Trial: ,22
Threshold: ,0.0
Maximum EMG: ,0.05954085535487406
Success: ,True

EMG Time,Raw EMG,Filtered EMG,Force Time,Raw Force (V),Filtered Force (N)
0.0,samples,5.3007444045401365e-08,0.467,0.5730000138282776,-2.3513232127378645
0.46551699999999996,time,7.417386193441286e-08,0.93,0.5680000185966492,-2.3622761849693874
0.9310339999999999,value,9.59900367939573e-08,1.4,0.5669999718666077,-2.364523041378846
1.396552,,1.1840627313713874e-07,1.864,0.5950000286102295,-2.3035944674172355
1.862069,,1.4136859051792568e-07,2.326,0.5529999732971191,-2.395174437634831
2.327586,,1.648187308705126e-07,2.792,0.5630000233650208,-2.3734655294894385
2.793103,,1.8869418141188658e-07,3.257,0.5680000185966492,-2.362648778614844
3.258621,,2.1292821369810678e-07,3.723,0.5540000200271606,-2.3932224242816744
3.724138,,2.3744993939273325e-07,4.189,0.5960000157356262,-2.3017849665363617
4.189654999999999,,2.6218438327039277e-07,4.655,0.546999990940094,-2.408595236900221
4.655172,,2.870525739396271e-07,5.12,0.5830000042915344,-2.330209299253444
5.12069,,3.119716527269245e-07,5.586,0.5659999847412109,-2.367279249158636
5.586207,,3.368550011181887e-07,6.045,0.5709999799728394,-2.3564050491708763
6.051723999999999,,3.6161238710487014e-07,6.511,0.5929999947547913,-2.3084790222699922
6.517241,,3.86150130729601e-07,6.978,0.5770000219345093,-2.3433261588837317
6.982759,,4.103712890704803e-07,7.441,0.5540000200271606,-2.3934094763004863
7.448276,,4.341758608441976e-07,7.912,0.5540000200271606,-2.393371525763129
7.913793000000001,,4.5746101074604267e-07,8.374,0.5680000185966492,-2.362821663046859
8.379309999999998,,4.80121313579597e-07,8.838,0.5540000200271606,-2.393264564237232
8.844828000000001,,5.020490181606556e-07,9.3,0.5630000233650208,-2.3735911917989485
9.310345,,5.231343309087758e-07,9.766,0.550000011920929,-2.401843171393849
9.775862,,5.432657189659394e-07,10.236,0.5730000138282776,-2.351661023573987
10.241379,,5.623302326052887e-07,10.702,0.5529999732971191,-2.3951603395156784
10.706897,,5.80213846613898e-07,11.16,0.4729999899864197,-2.5693821775629115
11.172414,,5.968018202522773e-07,11.626,0.5960000157356262,-2.3013452032466417
11.637931,,6.119790753099242e-07,12.093,0.5669999718666077,-2.3644694410143963
12.103447999999998,,6.256305916909924e-07,12.559,0.5839999914169312,-2.3273822291750257
12.568966000000001,,6.376418198772152e-07,13.024,0.5720000267028809,-2.3534840214768304
13.034483,,6.47899109526877e-07,13.489,0.5410000085830688,-2.420990477453533
13.5,,6.562901533791057e-07,13.952,0.5540000200271606,-2.3926486274126275
13.965517,,6.62704445542327e-07,14.415,0.5649999976158142,-2.3686769216452945
14.431034,,6.670337531546703e-07,14.885,0.5640000104904175,-2.3708612011181946
14.896552,,6.691726003127443e-07,15.348,0.5649999976158142,-2.3687000670989975
15.362069,,6.69018763073809e-07,15.816,0.5630000233650208,-2.3730860210237563
15.827586000000002,,6.664737742452983e-07,16.278,0.5630000233650208,-2.373125043165879
16.293103,,6.614434365852224e-07,16.744,0.546999990940094,-2.4080318826376703
16.758621,,6.538383429475499e-07,17.208,0.5820000171661377,-2.3318352029913068
17.224138,,6.435744018186141e-07,17.674,0.5299999713897705,-2.4451870222332843
17.689655,,6.305733666042576e-07,18.139,0.5529999732971191,-2.3951447569473214
18.155172,,6.147633669432208e-07,18.604,0.5709999799728394,-2.3559980445451996
18.62069,,5.960794402405839e-07,19.071,0.5389999747276306,-2.4257833788456806
19.086207,,5.74464061536282e-07,19.537,0.6039999723434448,-2.284236701394789
19.551724,,5.498676697482375e-07,20.002,0.5960000157356262,-2.3017244921733995
20.017241000000002,,5.222491882579098e-07,20.46,0.5669999718666077,-2.364955075043903
20.482758999999998,,4.915765377384591e-07,20.93,0.5669999718666077,-2.3649954663981125
20.948276,,4.5782713906268855e-07,21.392,0.5820000171661377,-2.3323458810469866
21.413793000000002,,4.2098840406987264e-07,21.86,0.5830000042915344,-2.330186011442658
21.87931,,3.810582119179458e-07,22.323,0.5630000233650208,-2.373765883278482
22.344828,,3.3804536870070644e-07,22.788,0.5730000138282776,-2.351975085976711
22.810344999999998,,2.9197004796913137e-07,23.252,0.5789999961853027,-2.338887930158763
23.275862,,2.4286420976199535e-07,23.717,0.4880000054836273,-2.5371207497873476
23.741379,,1.9077199572415977e-07,24.183,0.5659999847412109,-2.367155785265732
24.206897,,1.3575009787154067e-07,24.648,0.5789999961853027,-2.338796446768193
24.672414,,7.786809855027066e-08,25.115,0.5299999713897705,-2.4455071320257225
25.137931,,1.720877913432419e-08,25.581,0.5849999785423279,-2.325633866148711
25.603448,,4.61316049887608e-08,26.046,0.5839999914169312,-2.3277609409700797
26.068966,,1.1204308558010159e-07,26.511,0.5929999947547913,-2.308097969810737
26.534483,,1.8040178127203485e-07,26.975,0.5730000138282776,-2.3516139919314494
27.0,,2.510697382301809e-07,27.437,0.5320000052452087,-2.4408830439827995
27.465517,,3.238948140909967e-07,27.905,0.5540000200271606,-2.3929017008223448
27.931034,,3.987106074574501e-07,28.368,0.5899999737739563,-2.314424753982711
28.396552,,4.753364351716518e-07,28.83,0.5839999914169312,-2.3274559609133503
28.862069,,5.535773595088223e-07,29.3,0.5849999785423279,-2.3252424154243303
29.327586,,6.332242673516504e-07,29.766,0.4880000054836273,-2.5365450331504777
29.793103000000002,,7.140540033077593e-07,30.229,0.5540000200271606,-2.3927395647443515
30.258620999999998,,7.958295586255004e-07,30.695,0.5669999718666077,-2.364413720136058
30.724138,,8.783003176445347e-07,31.16,0.5669999718666077,-2.364419425310778
31.189655000000002,,9.61202363387599e-07,31.626,0.5789999961853027,-2.3382895972258115
31.655172000000004,,1.0442588437584363e-06,32.086,0.5789999961853027,-2.3383107982131683
32.12069,,1.1271803996581223e-06,32.552,0.5440000295639038,-2.4145914018179666
32.586207,,1.2096656561680147e-06,33.02,0.5789999961853027,-2.3383730693030973
33.051724,,1.2914017777723463e-06,33.485,0.5659999847412109,-2.36673458785458
33.517241000000006,,1.372065088407272e-06,33.945,0.5529999732971191,-2.395099584552408
33.982759,,1.4513217569260903e-06,34.415,0.5540000200271606,-2.392966147803441
34.448276,,1.5288285483626814e-06,34.878,0.5419999957084656,-2.4191570439303023
34.913793,,1.6042336411571907e-06,35.341,0.5529999732971191,-2.3952394436730313
35.37931,,1.6771775102799566e-06,35.809,0.5540000200271606,-2.393106886062572
35.844828,,1.747293875952056e-06,36.271,0.5789999961853027,-2.338683407943767
36.310345,,1.8142107174140055e-06,36.737,0.5630000233650208,-2.373578947591082
36.775862,,1.8775513509386397e-06,37.205,0.5659999847412109,-2.367073757692572
37.241378999999995,,1.9369355710204694e-06,37.67,0.5690000057220459,-2.360561160732797
37.706897000000005,,1.991980853402552e-06,38.131,0.5789999961853027,-2.338789852235185
38.172414,,2.0423036183236755e-06,38.596,0.5540000200271606,-2.393262701249596
38.637931,,2.0875205520841798e-06,39.063,0.5799999833106995,-2.3366163485974942
39.103448,,2.1272499847387463e-06,39.529,0.5699999928474426,-2.35839302162221
39.568965999999996,,2.1611133214297946e-06,39.997,0.5540000200271606,-2.3932340718492404
40.034483,,2.188736524576548e-06,40.456,0.5419999957084656,-2.419354992881998
40.5,,2.209751643833313e-06,40.923,0.5839999914169312,-2.327824110815426
40.965517,,2.2237983904269445e-06,41.385,0.5540000200271606,-2.393151515714775
41.431034,,2.2305257521789043e-06,41.856,0.5540000200271606,-2.3931166749047015
41.896552,,2.2295936452127297e-06,42.319,0.5460000038146973,-2.410510218293098
42.362069000000005,,2.2206745980442873e-06,42.785,0.5649999976158142,-2.3690805554708656
42.827586000000004,,2.203455463450924e-06,43.248,0.5720000267028809,-2.3537954369160357
43.293103,,2.1776391532178066e-06,43.713,0.5920000076293945,-2.3101889331131016
43.758621,,2.1429463905664975e-06,44.178,0.5529999732971191,-2.3951246338180203
44.224138,,2.09911747478343e-06,44.644,0.6010000109672546,-2.2905207453839274
44.689655,,2.045914052285715e-06,45.108,0.5929999947547913,-2.307924358685392
45.155172,,1.9831208880898716e-06,45.574,0.574999988079071,-2.347118017659481
45.620689999999996,,1.9105476313870427e-06,46.035,0.5669999718666077,-2.364530465990392
46.086206999999995,,1.828030568677327e-06,46.501,0.546999990940094,-2.408093440119138
46.551724,,1.7354343576774431e-06,46.971,0.5690000057220459,-2.3601607436519907
47.017241,,1.6326537349913963e-06,47.433,0.5709999799728394,-2.3558082241466285
47.482759,,1.5196151903245755e-06,47.901,0.5830000042915344,-2.3296752402993457
47.948276,,1.3962785998291612e-06,48.363,0.5789999961853027,-2.3384059794169136
48.413793,,1.262638810994281e-06,48.831,0.5540000200271606,-2.392893315718709
48.879310000000004,,1.1187271713393927e-06,49.293,0.5540000200271606,-2.392919727568086
49.344828,,9.646129930353487e-07,49.759,0.5730000138282776,-2.3515562035902096
49.810345,,8.004049454658209e-07,50.225,0.5630000233650208,-2.3733761903132273
50.275862,,6.262523676536599e-07,50.691,0.5540000200271606,-2.393019218772943
50.741379,,4.423464924136116e-07,51.156,0.5640000104904175,-2.3712686227448643
51.206897,,2.489215740559513e-07,51.622,0.5789999961853027,-2.338623668513144
51.672414,,4.6255911456285024e-08,52.087,0.597000002861023,-2.2994392256156155
52.137931,,1.6532724167378258e-07,52.545,0.5929999947547913,-2.3081795916619163
52.603448,,3.8545888743101314e-07,53.012,0.5199999809265137,-2.4672415509680325
53.068966,,6.137236233153778e-07,53.477,0.6179999709129333,-2.2537495590376575
53.534483,,8.496591186982511e-07,53.945,0.5920000076293945,-2.3104027341366886
54.0,,1.092755735941156e-06,54.408,0.5490000247955322,-2.40408548965714
54.465517,,1.3424563037625798e-06,54.871,0.5379999876022339,-2.4280464816479475
54.931034,,1.5981560502358591e-06,55.341,0.6169999837875366,-2.255923860942927
55.396552,,1.8592027025510324e-06,55.804,0.5649999976158142,-2.3691977940352396
55.862069,,2.1248967603872273e-06,56.267,0.574999988079071,-2.347390023373946
56.327586,,2.3944919494190687e-06,56.733,0.5529999732971191,-2.3952954316009833
56.793102999999995,,2.6671958611202873e-06,57.198,0.5809999704360962,-2.3342658574721065
57.258621000000005,,2.9421707846298942e-06,57.663,0.5429999828338623,-2.417025751355492
57.724138,,3.2185347360107234e-06,58.13,0.5540000200271606,-2.3930322166613034
58.189655,,3.49536268975679e-06,58.596,0.5669999718666077,-2.3646831028606434
58.655172,,3.7716880168947916e-06,59.06,0.5640000104904175,-2.3711940289008893
59.120689999999996,,4.046504133476422e-06,59.525,0.5699999928474426,-2.3580996831697143
59.586207,,4.318766362672248e-06,59.986,0.6039999723434448,-2.2840055569306856
60.051724,,4.587394013055255e-06,60.456,0.5460000038146973,-2.4103498050973884
60.517241,,4.8512726750034065e-06,60.919,0.5540000200271606,-2.3929079541956013
60.982758999999994,,5.10925673645647e-06,61.382,0.5820000171661377,-2.331898530482105
61.448276,,5.3601721185338915e-06,61.845,0.5759999752044678,-2.34496773100117
61.913793,,5.60281923075877e-06,62.315,0.5540000200271606,-2.3928997290892533
62.379310000000004,,5.8359761448392466e-06,62.782,0.5540000200271606,-2.3929069351734125
62.84482800000001,,6.058401985134361e-06,63.245,0.578000009059906,-2.3406315924837084
63.310345000000005,,6.26884053307824e-06,63.71,0.5699999928474426,-2.3580767598532018
63.775862000000004,,6.466024041956161e-06,64.174,0.5630000233650208,-2.373346214601627
64.241379,,6.648677257520564e-06,64.64,0.5720000267028809,-2.35375985693105
64.706897,,6.815521639006546e-06,65.104,0.550000011920929,-2.4017135372493947
65.172414,,6.965279774157179e-06,65.57,0.5640000104904175,-2.3712371652741786
65.637931,,7.096679980901548e-06,66.034,0.5419999957084656,-2.4191928731067964
66.103448,,7.208461087345427e-06,66.5,0.5540000200271606,-2.3930744286918633
66.56896599999999,,7.299377380738754e-06,66.96,0.5540000200271606,-2.393098771111342
67.03448300000001,,7.368203715078612e-06,67.43,0.5849999785423279,-2.3255822135857995
67.5,,7.413740765994465e-06,67.893,0.5669999718666077,-2.3648148126335653
67.965517,,7.434820420547061e-06,68.356,0.5389999747276306,-2.425829216672296
68.431034,,7.430311288557455e-06,68.826,0.5540000200271606,-2.393157526562707
68.896552,,7.399124321071436e-06,69.289,0.5540000200271606,-2.3931611707441527
69.362069,,7.340218520561083e-06,69.755,0.5540000200271606,-2.3931598056776147
69.827586,,7.252606726473278e-06,70.219,0.5989999771118164,-2.295113425834134
70.293103,,7.135361458758519e-06,70.684,0.5540000200271606,-2.3931387521716
70.75862099999999,,6.98762080105678e-06,71.149,0.5759999752044678,-2.3451891388085024
71.22413800000001,,6.80859430428446e-06,71.614,0.47200000286102295,-2.571746215991129
71.689655,,6.5975688904621325e-06,72.079,0.5669999718666077,-2.3647517782791923
72.15517200000001,,6.353914735751281e-06,72.545,0.5509999990463257,-2.3995863069897556
72.62069,,6.077091110834017e-06,73.005,0.5789999961853027,-2.338558459689819
73.086207,,5.766652155977505e-06,73.47,0.5809999704360962,-2.3341737723999687
73.551724,,5.422252567379017e-06,73.938,0.5509999990463257,-2.399504935038487
74.017241,,5.043653170693045e-06,74.4,0.5920000076293945,-2.3101526341070358
74.482759,,4.630726357003212e-06,74.871,0.578000009059906,-2.340627035946071
74.94827599999999,,4.183461355923696e-06,75.334,0.5509999990463257,-2.3994262637610935
75.41379300000001,,3.7019693200020583e-06,75.801,0.5669999718666077,-2.3645480252529056
75.87931,,3.1864881941525223e-06,76.264,0.5759999752044678,-2.3449253598172235
76.344828,,2.6373873434803463e-06,76.73,0.5759999752044678,-2.34491578443324
76.810345,,2.0551719125686e-06,77.19,0.5860000252723694,-2.3231251128718577
77.275862,,1.4404868890928028e-06,77.656,0.5669999718666077,-2.364521435084811
77.741379,,7.94120844510845e-07,78.123,0.6019999980926514,-2.288276599875427
78.206897,,1.1700932454963113e-07,78.589,0.5709999799728394,-2.3558284790243165
78.67241399999999,,5.897621377200091e-07,79.056,0.6449999809265137,-2.1946269170388404
79.137931,,1.3249554132584869e-06,79.515,0.5669999718666077,-2.364583843495264
79.603448,,2.0871775996472114e-06,79.983,0.5619999766349792,-2.3755043930203956
80.068966,,2.8748793012763974e-06,80.445,0.5630000233650208,-2.3733590735006396
80.53448300000001,,3.6863533930228455e-06,80.915,0.5879999995231628,-2.318931195914221
81.0,,4.5197342927045455e-06,81.378,0.5649999976158142,-2.3690817028897913
81.465517,,5.372997766877648e-06,81.841,0.5709999799728394,-2.3560537068751812
81.931034,,6.2439612937013254e-06,82.311,0.5649999976158142,-2.369170616238514
82.396552,,7.130285005635176e-06,82.77,0.5630000233650208,-2.373572703356439
82.86206899999999,,8.02947323365033e-06,83.24,0.5540000200271606,-2.393223908231584
83.327586,,8.938876673427818e-06,83.705,0.5680000185966492,-2.362763109012856
83.79310299999999,,9.855695192685109e-06,84.167,0.5669999718666077,-2.3649770586896905
84.258621,,1.0776981297313221e-05,84.632,0.5400000214576721,-2.423829274424788
84.72413800000001,,1.1699644272422333e-05,85.097,0.5659999847412109,-2.3672059468040954
85.189655,,1.2620455012683538e-05,85.563,0.5649999976158142,-2.369396979761966
85.65517200000001,,1.353605155451894e-05,86.027,0.5789999961853027,-2.3388974976469368
86.12069,,1.4442945320732839e-05,86.493,0.5690000057220459,-2.360673758904137
86.586207,,1.5337528086094973e-05,86.956,0.5490000247955322,-2.40422488112919
87.051724,,1.621607967018465e-05,87.426,0.5540000200271606,-2.393299177816896
87.517241,,1.7074776361485048e-05,87.886,0.5839999914169312,-2.32789676882689
87.98275899999999,,1.7909700074282776e-05,88.356,0.5669999718666077,-2.364880316238033
88.448276,,1.8716848237383238e-05,88.819,0.5889999866485596,-2.316886910529497
88.913793,,1.9492144411001107e-05,89.282,0.5149999856948853,-2.4780369219081915
89.37931,,2.0231449625432724e-05,89.748,0.550000011920929,-2.4017109189085346
89.844828,,2.0930574432268487e-05,90.212,0.5540000200271606,-2.3929221096595845
90.310345,,2.158529165596452e-05,90.678,0.574999988079071,-2.3470964915590806
90.775862,,2.2191349830570648e-05,91.145,0.5540000200271606,-2.3927760747471534
91.241379,,2.2744487303312954e-05,91.611,0.5789999961853027,-2.3382423529988716
91.706897,,2.3240446983562157e-05,92.075,0.5789999961853027,-2.338181114052746
92.17241399999999,,2.3674991712491598e-05,92.541,0.5870000123977661,-2.3206986551834206
92.63793100000001,,2.404392022544955e-05,93.0,0.5540000200271606,-2.392551348374649
93.103448,,2.4343083675749957e-05,93.466,0.5820000171661377,-2.3315194873676517
93.568966,,2.4568402685233136e-05,93.934,0.5019999742507935,-2.5057975230389933
94.03448300000001,,2.4715884883574004e-05,94.397,0.5929999947547913,-2.3075439743045254
94.5,,2.4781642894931442e-05,94.86,0.574999988079071,-2.346779788625061
94.965517,,2.4761912727149637e-05,95.33,0.5460000038146973,-2.4099967499527035
95.431034,,2.4653072515353113e-05,95.801,0.5540000200271606,-2.3926204953837784
95.896552,,2.445166156843427e-05,96.256,0.5830000042915344,-2.329508072924901
96.36206899999999,,2.415439966362843e-05,96.722,0.5680000185966492,-2.3622689244377972
96.827586,,2.375820653112042e-05,97.185,0.5820000171661377,-2.3318593761309527
97.293103,,2.326022146744199e-05,97.651,0.5680000185966492,-2.362459881292055
97.758621,,2.265782301331554e-05,98.116,0.5870000123977661,-2.321169908086993
98.224138,,2.1948648628591156e-05,98.582,0.5659999847412109,-2.3670277278354557
98.689655,,2.1130614294025487e-05,99.049,0.5630000233650208,-2.3736687370009446
99.155172,,2.0201933966877817e-05,99.514,0.5929999947547913,-2.3084101157186447
99.62069,,1.916113881466601e-05,99.975,0.6150000095367432,-2.2605714856431525
100.086207,,1.800709614894829e-05,100.444,0.550000011920929,-2.4022630367600395
100.551724,,1.6739027978691667e-05,100.908,0.5540000200271606,-2.393614674847969
101.017241,,1.535652910066988e-05,101.371,0.5460000038146973,-2.4110958665883655
101.482759,,1.3859584642418322e-05,101.841,0.5460000038146973,-2.411131687998072
101.948276,,1.2248586971576738e-05,102.304,0.5920000076293945,-2.3109311007512927
102.413793,,1.0524351883987316e-05,102.77,0.5669999718666077,-2.3653937271809973
102.87931,,8.688133981702188e-06,103.233,0.574999988079071,-2.3479392236018204
103.344828,,6.74164115110462e-06,103.699,0.5669999718666077,-2.3653220312809036
103.810345,,4.687048050677744e-06,104.163,0.5770000219345093,-2.3434686250092365
104.275862,,2.5270085175776726e-06,104.629,0.5509999990463257,-2.400028099388208
104.741379,,2.6466680209837525e-07,105.094,0.5630000233650208,-2.373782806670594
105.206897,,2.0963324606327664e-06,105.559,0.5669999718666077,-2.3649534852656924
105.672414,,4.55183563180417e-06,106.023,0.550000011920929,-2.4018652775639833
106.13793100000001,,7.0971728920575245e-06,106.489,0.5699999928474426,-2.3581605655303353
106.603448,,9.727152594467026e-06,106.957,0.5659999847412109,-2.366740259293698
107.068966,,1.2436057233555053e-05,107.419,0.5540000200271606,-2.3927499163968386
107.534483,,1.5217641114501262e-05,107.882,0.5540000200271606,-2.3926213446130187
108.0,,1.8065129804276303e-05,108.345,0.5540000200271606,-2.392502506664725
108.46551699999999,,2.097122144360954e-05,108.815,0.5669999718666077,-2.36407463643645
108.931034,,2.3928089995475155e-05,109.278,0.546999990940094,-2.4075587263139413
109.396552,,2.692739050214693e-05,109.744,0.5709999799728394,-2.3552021150185998
109.862069,,2.9960266418824205e-05,110.208,0.5899999737739563,-2.313760189164749
110.32758600000001,,3.301735908736633e-05,110.674,0.5709999799728394,-2.35512950903071
110.793103,,3.608881940878839e-05,111.138,0.574999988079071,-2.3464141291302925
111.258621,,3.916432176786663e-05,111.604,0.550000011920929,-2.400905131349396
111.724138,,4.223308025747802e-05,112.071,0.5669999718666077,-2.3639190572463753
112.189655,,4.528386724415779e-05,112.53,0.5540000200271606,-2.3923175092421003
112.655172,,4.8305034309804474e-05,112.997,0.5789999961853027,-2.3379506967615034
113.12069,,5.128453559750064e-05,113.462,0.5540000200271606,-2.392536818114511
113.586207,,5.4209953582055335e-05,113.93,0.546999990940094,-2.4079254042489606
114.051724,,5.7068527278120766e-05,114.393,0.5809999704360962,-2.334003701534656
114.51724100000001,,5.98471828906017e-05,114.856,0.5860000252723694,-2.323271452908884
114.982759,,6.253256690357342e-05,115.326,0.5630000233650208,-2.373545227558954
115.448276,,6.511108159506769e-05,115.792,0.5839999914169312,-2.3279577264529943
115.913793,,6.756892295589278e-05,116.25,0.5759999752044678,-2.3455451003222816
116.37931,,6.989212098113967e-05,116.716,0.6079999804496765,-2.275975001567552
116.84482799999999,,7.206658229321476e-05,117.182,0.5490000247955322,-2.4046459314001103
117.310345,,7.407813504514971e-05,117.647,0.5490000247955322,-2.404758142956902
117.77586199999999,,7.59125760425959e-05,118.112,0.5149999856948853,-2.478924044287386
118.241379,,7.755572001234098e-05,118.577,0.5879999995231628,-2.31995057328251
118.70689700000001,,7.899345093441539e-05,119.041,0.5659999847412109,-2.367920734494023
119.172414,,8.021177534391722e-05,119.507,0.593999981880188,-2.3069273820078173
119.63793100000001,,8.119687749760684e-05,119.975,0.5809999704360962,-2.3352263213432316
120.103448,,8.193517628914047e-05,120.437,0.5649999976158142,-2.370029111367105
120.568966,,8.241338378556081e-05,120.905,0.5669999718666077,-2.365586192714687
121.034483,,8.261856524638013e-05,121.367,0.5680000185966492,-2.3632938453850687
121.5,,8.253820047531369e-05,121.83,0.5669999718666077,-2.3653339206207042
121.96551699999999,,8.216024634349396e-05,122.3,0.5630000233650208,-2.3738884561947615
122.431034,,8.1473200311854e-05,122.766,0.5929999947547913,-2.308351854025235
122.896552,,8.046616476936273e-05,123.229,0.5659999847412109,-2.36698548258289
123.362069,,7.912891199296425e-05,123.695,0.5669999718666077,-2.364610183287928
123.827586,,7.745194952446893e-05,124.16,0.546999990940094,-2.407986402529385
124.293103,,7.542658574930921e-05,124.626,0.5789999961853027,-2.338078940119104
124.758621,,7.304499545205947e-05,125.089,0.5440000295639038,-2.414152664674795
125.22413800000001,,7.030028511397502e-05,125.555,0.5730000138282776,-2.35081046522302
125.68965500000002,,6.718655770858017e-05,126.02,0.5809999704360962,-2.333242054376299
126.15517200000001,,6.3698976742582e-05,126.486,0.5529999732971191,-2.394131265277425
126.62069000000001,,5.98338292811547e-05,126.946,0.5669999718666077,-2.363548064445598
127.086207,,5.558858768898284e-05,127.415,0.546999990940094,-2.4070730968983645
127.55172400000001,,5.096196981142029e-05,127.878,0.5370000004768372,-2.42884850929024
128.017241,,4.595399731376943e-05,128.341,0.5680000185966492,-2.361337155133763
128.48275900000002,,4.056605189106323e-05,128.805,0.5180000066757202,-2.4703339626990966
128.948276,,3.480092905589229e-05,129.274,0.546999990940094,-2.4072542367872796
129.413793,,2.8662889207812157e-05,129.74,0.5540000200271606,-2.3921384648566653
129.87931,,2.2157705684741465e-05,130.205,0.5709999799728394,-2.355265194535794
130.344828,,1.5292709494570217e-05,130.67,0.574999988079071,-2.3467375258578627
130.81034499999998,,8.076830423985922e-06,131.13,0.5540000200271606,-2.3926937466489413
131.275862,,5.206342213413796e-07,131.596,0.5709999799728394,-2.355873495097427
131.741379,,7.363644448724264e-06,132.06,0.5669999718666077,-2.3648101980817082
132.206897,,1.5562073579196285e-05,132.526,0.5809999704360962,-2.3345294579551856
132.67241399999997,,2.4059000220252495e-05,133.0,0.5799999833106995,-2.3369195590749707
133.13793099999998,,3.2837031997259894e-05,133.459,0.5519999861717224,-2.3981181865337575
133.60344800000001,,4.1877024034385544e-05,133.927,0.5630000233650208,-2.3743292112525842
134.06896600000002,,5.1158071564157866e-05,134.39,0.5540000200271606,-2.394087890206964
134.53448300000002,,6.06575084951703e-05,134.853,0.5630000233650208,-2.374600624694362
135.0,,7.035091220065377e-05,135.315,0.6060000061988831,-2.2810041863650574
135.465517,,8.021211477983471e-05,135.781,0.578000009059906,-2.3420525216960293
135.931034,,9.021322103182081e-05,136.251,0.5849999785423279,-2.3268073710937336
136.396552,,0.00010032463336820365,136.717,0.574999988079071,-2.3485583832689474
136.862069,,0.00011051508387562138,137.175,0.5619999766349792,-2.3768059490731175
137.327586,,0.00012075167372318332,137.641,0.5690000057220459,-2.3614436174649245
137.793103,,0.00013099992009191485,138.108,0.5540000200271606,-2.393978235119078
138.258621,,0.00014122381078424234,138.574,0.5669999718666077,-2.3654818431419593
138.724138,,0.0001513858666510085,139.039,0.5720000267028809,-2.354390250269251
139.189655,,0.00016144721195160414,139.504,0.546999990940094,-2.4086400457039803
139.655172,,0.00017136765273953957,139.967,0.5669999718666077,-2.3648391935801585
140.12069,,0.00018110576334118392,140.437,0.5669999718666077,-2.3646063930850003
140.586207,,0.0001906189809695014,140.897,0.5630000233650208,-2.373089845706517
141.05172399999998,,0.000199863708487449,141.36,0.5540000200271606,-2.392475692822261
141.51724099999998,,0.0002087954253073073,141.83,0.5809999704360962,-2.333445904917043
141.982759,,0.0002173688063826498,142.293,0.5690000057220459,-2.359404536375236
142.44827600000002,,0.0002255378492189658,142.758,0.5669999718666077,-2.3636037631928986
142.913793,,0.00023325600879720091,143.225,0.5419999957084656,-2.417944406719649
143.37931,,0.00024047634027173212,143.691,0.6079999804496765,-2.274064350041394
143.844828,,0.00024715164927062954,144.156,0.5879999995231628,-2.3175856025180113
144.310345,,0.00025323464959154925,144.621,0.5540000200271606,-2.391647453094527
144.77586200000002,,0.0002586781280513419,145.086,0.5669999718666077,-2.363354527721259
145.241379,,0.00026343511621154106,145.545,0.5950000286102295,-2.30242227894357
145.706897,,0.0002674590686654101,146.012,0.5419999957084656,-2.4179993666658337
146.172414,,0.00027070404753529105,146.478,0.5879999995231628,-2.317926298764861
146.637931,,0.00027312491279171496,146.945,0.550000011920929,-2.400891861656506
147.103448,,0.00027467751796822536,147.407,0.5640000104904175,-2.3705950375700118
147.568966,,0.000275318910808256,147.871,0.5929999947547913,-2.3076395506562464
148.034483,,0.00027500753834282005,148.341,0.5529999732971191,-2.3950246952431846
148.5,,0.0002737034558603456,148.801,0.6159999966621399,-2.2580153912812984
148.965517,,0.0002713685391928755,149.271,0.5540000200271606,-2.393336009443653
149.43103399999998,,0.00026796669970617415,149.737,0.5730000138282776,-2.352178364375946
149.89655199999999,,0.0002634641013452106,150.2,0.5799999833106995,-2.3371500356720234
150.362069,,0.00025782937905116253,150.666,0.550000011920929,-2.4027102898598125
150.82758600000003,,0.000251033857831671,151.131,0.5879999995231628,-2.3200953132407554
151.293103,,0.0002430517717327308,151.596,0.550000011920929,-2.4030249175187857
151.758621,,0.00023386048192849146,152.056,0.5809999704360962,-2.3355908107214898
152.224138,,0.0002234406931145384,152.522,0.5809999704360962,-2.3356538710246624
152.68965500000002,,0.00021177666736108756,152.986,0.5809999704360962,-2.335673295788069
153.155172,,0.00019885643455513718,153.456,0.5950000286102295,-2.3051467312104115
153.62069,,0.00018467199853514416,153.919,0.5920000076293945,-2.311612623604891
154.086207,,0.00016921953799840502,154.382,0.5759999752044678,-2.3463582506476834
154.551724,,0.0001524996012401972,154.845,0.593999981880188,-2.3069905061713505
155.017241,,0.00013451729376504572,155.315,0.5519999861717224,-2.3983073388392095
155.482759,,0.00011528245779439233,155.78,0.550000011920929,-2.402450525972639
155.948276,,9.480984268163308e-05,156.243,0.5709999799728394,-2.3564640552655374
156.413793,,7.311926523511735e-05,156.709,0.5400000214576721,-2.4237530908002705
156.87931,,5.023575894243331e-05,157.174,0.5540000200271606,-2.3929967574219124
157.34482799999998,,2.6189711085298082e-05,157.64,0.5809999704360962,-2.3339189112783565
157.81034499999998,,1.0169867337808572e-06,158.105,0.5929999947547913,-2.307527469508135
158.275862,,2.5240961388437757e-05,158.571,0.6060000061988831,-2.278970386747276
158.741379,,5.253699816938476e-05,159.03,0.5789999961853027,-2.33757914828378
159.20689700000003,,8.08182274957826e-05,159.496,0.5540000200271606,-2.3918581562947545
159.672414,,0.00011002593073830273,159.964,0.5659999847412109,-2.365561893759568
160.137931,,0.00014009552329310123,160.426,0.5979999899864197,-2.2957313729589486
160.60344800000001,,0.00017095653011487547,160.893,0.6079999804496765,-2.2738720142305904
161.06896600000002,,0.00020253258114960964,161.356,0.5669999718666077,-2.363166888518116
161.534483,,0.00023474142754372358,161.826,0.5849999785423279,-2.323966813882127
162.0,,0.0002674949794704286,162.289,0.5849999785423279,-2.3240278465736197
162.465517,,0.0003006993663736644,162.755,0.5709999799728394,-2.3546338708508907
162.931034,,0.00033425502038499224,163.218,0.5540000200271606,-2.391817760423912
163.396552,,0.00036805678361922015,163.684,0.5730000138282776,-2.3506088799304976
163.862069,,0.00040199404000030903,164.148,0.5669999718666077,-2.3638992678918496
164.327586,,0.00043595087221026034,164.614,0.5540000200271606,-2.392466756592944
164.793103,,0.00046980624429021926,165.079,0.5509999990463257,-2.3992681078999465
165.258621,,0.0005034342103549795,165.544,0.5540000200271606,-2.3930100636655935
165.72413799999998,,0.0005367041498094921,166.009,0.5709999799728394,-2.3562548765268576
166.189655,,0.0005694810293789246,166.474,0.5929999947547913,-2.3086004152902233
166.655172,,0.0006016256921823744,166.937,0.5540000200271606,-2.3938287081768967
167.12069,,0.0006329951739946169,167.4,0.5540000200271606,-2.3940678467161574
167.58620699999997,,0.0006634430467503946,167.871,0.5950000286102295,-2.3049529035430725
168.051724,,0.0006928197892518589,168.334,0.5690000057220459,-2.361770348765062
168.517241,,0.0007209731849420407,168.804,0.6000000238418579,-2.2943615593830846
168.98275900000002,,0.0007477487465058267,169.267,0.5540000200271606,-2.394661577168186
169.44827600000002,,0.0007729901669550771,169.725,0.5540000200271606,-2.394694783825876
169.913793,,0.0007965397967464478,170.19,0.5820000171661377,-2.3336758362945402
170.37931,,0.000818239146369434,170.656,0.6129999756813049,-2.266069538632299
170.844828,,0.000837929413728408,171.124,0.5669999718666077,-2.3661685651305833
171.310345,,0.0008554520355262903,171.589,0.5889999866485596,-2.3180728804626005
171.775862,,0.000870649261739279,172.056,0.5690000057220459,-2.3614391540317357
172.241379,,0.0008833647521520839,172.515,0.5699999928474426,-2.359019003602342
172.706897,,0.0008934441938016989,172.982,0.5699999928474426,-2.358750185559427
173.172414,,0.0009007359380553448,173.445,0.5540000200271606,-2.3933207966273633
173.637931,,0.0009050916559252636,173.915,0.5730000138282776,-2.351628822646531
174.103448,,0.0009063670100999718,174.378,0.5360000133514404,-2.4319405953296296
174.568966,,0.0009044223420485999,174.841,0.5830000042915344,-2.3292544999771603
175.034483,,0.0008991233724324654,175.311,0.5809999704360962,-2.3333387486520394
175.5,,0.0008903419129368494,175.77,0.6010000109672546,-2.2895162562504177
175.96551699999998,,0.0008779565875169436,176.24,0.574999988079071,-2.3459430105203434
176.43103399999998,,0.0008618535609352865,176.705,0.6010000109672546,-2.289118157434943
176.896552,,0.0008419272723531196,177.167,0.6119999885559082,-2.26501651159623
177.36206900000002,,0.000818081171625347,177.633,0.5249999761581421,-2.4544711385271203
177.827586,,0.0007902284558408692,178.097,0.5929999947547913,-2.3062886474233615
178.293103,,0.000758292803549542,178.562,0.5709999799728394,-2.3542392294403713
178.758621,,0.0007222091040216927,179.027,0.5699999928474426,-2.356492070285502
179.224138,,0.0006819241787902044,179.492,0.5839999914169312,-2.3261174964626075
179.68965500000002,,0.0006373974926298663,179.96,0.5669999718666077,-2.363329720383375
180.155172,,0.0005886018510481414,180.423,0.5509999990463257,-2.3984074996106934
180.62069,,0.0005355240813058812,180.886,0.5540000200271606,-2.3921297021187993
181.086207,,0.0004781656939360742,181.355,0.5540000200271606,-2.392419123617967
181.551724,,0.00041654352164818565,181.819,0.5789999961853027,-2.3382642941259855
182.01724099999998,,0.00035069033240877874,182.282,0.5709999799728394,-2.356016470635443
182.482759,,0.0002806554134606957,182.747,0.578000009059906,-2.3410901309942873
182.948276,,0.00020650512312380358,183.212,0.5789999961853027,-2.339226885523727
183.413793,,0.00012832340726952505,183.677,0.5929999947547913,-2.3090219866197517
183.87931,,4.621227718449098e-05,184.141,0.5540000200271606,-2.394257121050774
184.34482799999998,,3.9707754729111995e-05,184.607,0.5659999847412109,-2.3683454435224953
184.81034499999998,,0.0001292972848184033,185.074,0.5920000076293945,-2.3118890686642652
185.27586200000002,,0.00022239767631371179,185.54,0.6309999823570251,-2.2270588052077587
185.74137900000002,,0.0003188307681324862,186.005,0.5540000200271606,-2.3948951164251087
186.206897,,0.00041839863786329734,186.471,0.5540000200271606,-2.394918309180244
186.672414,,0.0005208834238326588,186.934,0.5709999799728394,-2.3578474593446797
187.137931,,0.0006260472098417127,187.396,0.5709999799728394,-2.357756552756762
187.60344800000001,,0.0007336319720688075,187.864,0.5379999876022339,-2.4295068151141472
188.06896600000002,,0.0008433595868653915,188.326,0.5759999752044678,-2.3465234416730083
188.534483,,0.0009549319057276755,188.792,0.578000009059906,-2.3419265671305594
189.0,,0.0010680309110554826,189.258,0.5680000185966492,-2.363435220774767
189.465517,,0.001182318956308309,189.723,0.5809999704360962,-2.334805132715838
189.931034,,0.0012974390707728971,190.19,0.5720000267028809,-2.354084303709938
190.39655199999999,,0.0014130153106767284,190.656,0.5460000038146973,-2.4103904447651034
190.862069,,0.001528653187283764,191.115,0.5669999718666077,-2.3643009493265423
191.327586,,0.0016439402380379233,191.582,0.578000009059906,-2.340008512538914
191.793103,,0.0017584467340375108,192.049,0.5759999752044678,-2.344058709669274
192.25862099999998,,0.0018717263856905153,192.515,0.5669999718666077,-2.363389008238436
192.72413799999998,,0.001983316952657312,192.978,0.5540000200271606,-2.3914727387954895
193.189655,,0.0020927409691567046,193.441,0.5709999799728394,-2.354244027231683
193.655172,,0.002199506947352043,193.908,0.6019999980926514,-2.286566124648183
194.12069000000002,,0.0023031109147419013,194.371,0.5630000233650208,-2.3714495384048924
194.586207,,0.0024030374247126472,194.838,0.5789999961853027,-2.336566776642931
195.051724,,0.002498759649021781,195.3,0.5540000200271606,-2.3910697036713153
195.517241,,0.002589740008686108,195.766,0.5759999752044678,-2.3432369635864685
195.98275900000002,,0.0026754333072225916,196.236,0.5720000267028809,-2.352106725341851
196.448276,,0.002755290934839699,196.695,0.5690000057220459,-2.3588512410846083
196.913793,,0.00282876095941421,197.16,0.5540000200271606,-2.391787141275195
197.37931,,0.002895282907389029,197.626,0.5830000042915344,-2.32890273040991
197.844828,,0.0029542869341061925,198.094,0.5860000252723694,-2.322693600420537
198.310345,,0.0030052075752251195,198.56,0.5740000009536743,-2.349184527758158
198.775862,,0.00304750025683087,199.027,0.5920000076293945,-2.3103256960521894
199.241379,,0.003080630168581403,199.485,0.5699999928474426,-2.3586117931843793
199.706897,,0.0031040335540476493,199.953,0.5630000233650208,-2.3742067306376593
200.172414,,0.0031171139522515223,200.415,0.5540000200271606,-2.3941379848547992
200.63793099999998,,0.003119323150501883,200.886,0.5640000104904175,-2.372644120159445
201.103448,,0.0031102379437227363,201.348,0.5809999704360962,-2.3358592811958223
201.568966,,0.0030894594493414613,201.812,0.5540000200271606,-2.394885986447003
202.034483,,0.003056379573884123,202.282,0.5669999718666077,-2.366711978651061
202.5,,0.0030102064377711237,202.74,0.5429999828338623,-2.4190884178552885
202.965517,,0.002950469581389267,203.205,0.5540000200271606,-2.395149879738465
203.431034,,0.002877375430810543,203.671,0.5669999718666077,-2.3667904711014405
203.896552,,0.0027910567745881953,204.138,0.5730000138282776,-2.3536174080396184
204.36206900000002,,0.0026902478988878385,204.604,0.546999990940094,-2.4100997975587775
204.827586,,0.002572775739484237,205.068,0.5540000200271606,-2.3946303339887227
205.293103,,0.0024386805936357117,205.535,0.5630000233650208,-2.374753530869886
205.758621,,0.0022917001452165244,206.001,0.5669999718666077,-2.3657271819345063
206.224138,,0.0021340407911472933,206.466,0.5540000200271606,-2.3937037701495654
206.689655,,0.001959159644830996,206.927,0.5669999718666077,-2.365012193190507
207.155172,,0.0017567625432967123,207.397,0.5630000233650208,-2.373344798936662
207.62069,,0.0015316370235410224,207.86,0.5690000057220459,-2.35988973310361
208.086207,,0.0013084019399020592,208.322,0.5920000076293945,-2.3094073454022572
208.551724,,0.0010965745392469731,208.788,0.5669999718666077,-2.3635209569659335
209.01724099999998,,0.0008529418946711509,209.252,0.5830000042915344,-2.3283417705285556
209.482759,,0.0005233790725268886,209.718,0.5759999752044678,-2.343313785519025
209.948276,,0.00015358352670143778,210.185,0.5440000295639038,-2.412803543173195
210.413793,,0.0001085800695532869,210.651,0.515999972820282,-2.4736399939247526
210.87930999999998,,0.00023890456247327327,211.116,0.5210000276565552,-2.4626490302421526
211.344828,,0.0005217856760868998,211.581,0.5339999794960022,-2.4343009653450687
211.810345,,0.0012333447638962622,212.045,0.5789999961853027,-2.336307690148143
212.27586200000002,,0.0020082919101804377,212.511,0.5540000200271606,-2.3908891212760954
212.741379,,0.001986844438061573,212.974,0.5770000219345093,-2.340961272883865
213.206897,,0.0012366047452681767,213.436,0.5680000185966492,-2.3608106962940485
213.672414,,0.0015923400444483782,213.904,0.5929999947547913,-2.306639021945831
214.137931,,0.004399141979681437,214.367,0.515999972820282,-2.4747345440935513
214.60344800000001,,0.006865311218848907,214.835,0.5669999718666077,-2.363999306300165
215.068966,,0.0032756987496492464,215.297,0.5979999899864197,-2.2968610987229896
215.534483,,0.007291653794885008,215.762,0.6209999918937683,-2.247161602668221
216.0,,0.016189076040949497,216.226,0.5730000138282776,-2.352142738229006
216.465517,,0.012313427252373044,216.692,0.5960000157356262,-2.302425083796345
216.93103399999998,,0.006061937668519268,217.156,0.5740000009536743,-2.350720566644137
217.39655199999999,,0.029686390299231268,217.622,0.5759999752044678,-2.346691660897192
217.862069,,0.04797287287781862,218.089,0.5879999995231628,-2.3208294321347376
218.327586,,0.057042427296493656,218.555,0.5730000138282776,-2.35373519044676
218.793103,,0.05868709967630019,219.019,0.574999988079071,-2.349541737877704
219.25862099999998,,0.05517751627822757,219.485,0.5630000233650208,-2.37578225430375
219.724138,,0.04705982854360865,219.945,0.5989999771118164,-2.2973773574943492
220.18965500000002,,0.03482522710429244,220.415,0.5669999718666077,-2.3670484866563797
220.65517200000002,,0.02073929039832537,220.878,0.5699999928474426,-2.3603963546404296
221.12069,,0.00815786746764598,221.341,0.5789999961853027,-2.3406054051081138
221.586207,,0.0006783707607404691,221.812,0.5759999752044678,-2.346896217289909
222.051724,,0.005791409315923279,222.274,0.5630000233650208,-2.3749185733787854
222.517241,,0.00867639674886804,222.74,0.5979999899864197,-2.2983197998900433
222.98275900000002,,0.010800635924409325,223.204,0.5649999976158142,-2.3698326795263327
223.448276,,0.012810006782421522,223.67,0.5720000267028809,-2.3541749185290963
223.913793,,0.014754961130374463,224.131,0.578000009059906,-2.3406836463370406
224.37931,,0.016596968942858982,224.596,0.5709999799728394,-2.3555148840669267
224.844828,,0.01816089530331443,225.063,0.6000000238418579,-2.291926825691428
225.31034499999998,,0.018767864435153804,225.529,0.5820000171661377,-2.330759292094689
225.775862,,0.017547884598829278,225.99,0.597000002861023,-2.2977317481755324
226.241379,,0.014463921154278803,226.459,0.4950000047683716,-2.5196538737912046
226.706897,,0.010784281037825805,226.923,0.5989999771118164,-2.292832909956854
227.172414,,0.008252568582900133,227.385,0.5630000233650208,-2.3710874321933075
227.63793099999998,,0.0077544427172117295,227.853,0.5799999833106995,-2.3339431016129857
228.103448,,0.008724492179782443,228.315,0.5809999704360962,-2.3317299573762256
228.56896600000002,,0.009705509946773622,228.781,0.5410000085830688,-2.418915869473541
229.03448300000002,,0.009571810177483058,229.251,0.5910000205039978,-2.3100975540971387
229.5,,0.008452369210570168,229.71,0.5809999704360962,-2.3320683448803283
229.965517,,0.007481904158314631,230.175,0.5479999780654907,-2.4042127080322646
230.431034,,0.007551727260788701,230.641,0.5830000042915344,-2.328267144535324
230.896552,,0.00846032679385754,231.108,0.5830000042915344,-2.3286228695379574
231.362069,,0.009448072222585037,231.574,0.5709999799728394,-2.3551599661528533
231.827586,,0.010228366016239283,232.041,0.5540000200271606,-2.3926167605471593
232.293103,,0.010992784656590393,232.5,0.5540000200271606,-2.3930515059359685
232.758621,,0.011489219960562846,232.967,0.5770000219345093,-2.3433790283787026
233.224138,,0.010727252796751486,233.43,0.5830000042915344,-2.3307311723415265
233.689655,,0.008079153697569879,233.901,0.5789999961853027,-2.339843880660514
234.155172,,0.00454028391003956,234.363,0.5809999704360962,-2.335846710410808
234.62069,,0.0022497945191574764,234.827,0.5540000200271606,-2.394981696412832
235.086207,,0.002358760357206316,235.296,0.5720000267028809,-2.3560201264977856
235.55172399999998,,0.003830536764653346,235.755,0.578000009059906,-2.3431368102916785
236.01724099999998,,0.004901807585469307,236.226,0.5419999957084656,-2.421685341975902
236.482759,,0.00529847755360733,236.691,0.5669999718666077,-2.3672618379412005
236.94827600000002,,0.006231235298188928,237.156,0.5540000200271606,-2.3955507658666884
237.413793,,0.00836900792897579,237.622,0.6039999723434448,-2.2865086563794828
237.87931,,0.010667318246430729,238.087,0.6029999852180481,-2.288502537468953
238.344828,,0.011631246475809669,238.545,0.6010000109672546,-2.292604480294257
238.810345,,0.011512366026313878,239.012,0.5419999957084656,-2.4208276694678337
239.27586200000002,,0.012739628798313406,239.478,0.5929999947547913,-2.30934830123139
239.741379,,0.01766575342010807,239.941,0.5669999718666077,-2.365584574272891
240.206897,,0.025836104437021074,240.411,0.5899999737739563,-2.3150384678198854
240.672414,,0.034029462707872826,240.871,0.5540000200271606,-2.393017571958734
241.137931,,0.03922018088810108,241.341,0.5799999833106995,-2.335919756207902
241.603448,,0.04076208806658565,241.804,0.574999988079071,-2.3463727067533826
242.068966,,0.0391528232084862,242.267,0.574999988079071,-2.3459582927690175
242.534483,,0.03368213086379163,242.732,0.5659999847412109,-2.365190565158123
243.0,,0.02276352030026442,243.197,0.574999988079071,-2.3452577036500184
243.465517,,0.006553874780728249,243.663,0.5669999718666077,-2.3624225267910983
243.93103399999998,,0.011871656736416174,244.13,0.574999988079071,-2.3447977184819524
244.39655199999999,,0.02833596880636582,244.595,0.5669999718666077,-2.36210636474205
244.862069,,0.04020743114325987,245.06,0.5540000200271606,-2.390387407948945
245.327586,,0.04745514176107363,245.526,0.5759999752044678,-2.3424969328601395
245.793103,,0.05165623310503915,245.989,0.5649999976158142,-2.3665813716674045
246.258621,,0.05394941497459508,246.452,0.5540000200271606,-2.3907422216676526
246.724138,,0.05386579346846362,246.915,0.5540000200271606,-2.3910092258690194
247.18965500000002,,0.05051990415109767,247.385,0.5889999866485596,-2.3150863820769967
247.655172,,0.04460806601323161,247.849,0.5649999976158142,-2.3677557437272365
248.12069,,0.038037257682376674,248.311,0.5669999718666077,-2.3638209605023293
248.586207,,0.031656692698056224,248.777,0.5989999771118164,-2.294554254809226
249.051724,,0.024927176175696005,249.247,0.5540000200271606,-2.393057018614915
249.517241,,0.018040277051567175,249.705,0.5540000200271606,-2.393521209046902
249.982759,,0.012578299492407258,250.174,0.5889999866485596,-2.317719330601157
250.44827600000002,,0.009294268553189171,250.639,0.5659999847412109,-2.3682509501645908
250.913793,,0.006654136112953035,251.104,0.5669999718666077,-2.3664541486341575
251.37931000000003,,0.00276448941392699,251.57,0.5809999704360962,-2.3362824085415754
251.844828,,0.0019526773576937753,252.035,0.5820000171661377,-2.334369802440818
252.31034499999998,,0.00518237100198769,252.501,0.5889999866485596,-2.3193135912083265
252.77586200000002,,0.005667287669293951,252.964,0.5720000267028809,-2.3564669210848104
253.241379,,0.004682922774323767,253.426,0.5789999961853027,-2.3412516504869174
253.706897,,0.004315307110681004,253.897,0.5730000138282776,-2.354276531306979
254.172414,,0.005181251301891757,254.36,0.5929999947547913,-2.310575477979094
254.63793099999998,,0.006424339383345218,254.823,0.5809999704360962,-2.33651348526776
255.10344800000001,,0.007308845058456499,255.286,0.5509999990463257,-2.4015961885248296
255.56896600000002,,0.00803314403735325,255.751,0.5830000042915344,-2.3315409516936896
256.03448299999997,,0.009108801129279122,256.215,0.5540000200271606,-2.3943317286124866
256.5,,0.010525400006638508,256.681,0.5920000076293945,-2.3111131102879208
256.965517,,0.011815869341204406,257.146,0.593999981880188,-2.3062980790391197
257.431034,,0.012839427921487017,257.612,0.5669999718666077,-2.3646496873899987
257.896552,,0.014143201337329797,258.079,0.5809999704360962,-2.333677629726657
258.362069,,0.01624958691533608,258.545,0.5860000252723694,-2.3223285626732655
258.827586,,0.018684451058706013,259.009,0.5009999871253967,-2.5070885071447213
259.29310300000003,,0.02002752744790044,259.475,0.5730000138282776,-2.349845523913226
259.758621,,0.01907849387917363,259.937,0.609000027179718,-2.2710889047143556
260.224138,,0.01597696110448042,260.4,0.5339999794960022,-2.4342260622125047
260.689655,,0.012108232484688711,260.871,0.5630000233650208,-2.3708566553074295
261.155172,,0.00885254848775837,261.333,0.5699999928474426,-2.3554967781084772
261.62068999999997,,0.0065660940341519605,261.805,0.5690000057220459,-2.3576476072066517
262.086207,,0.004763190751750595,262.267,0.5540000200271606,-2.390382132894804
262.551724,,0.002712382955672802,262.725,0.5429999828338623,-2.4144838603701633
263.017241,,0.00041181912224751827,263.19,0.5630000233650208,-2.371125069973283
263.482759,,0.005129290316411905,263.656,0.6010000109672546,-2.2886206041829324
263.94827599999996,,0.01060725837578075,264.123,0.5519999861717224,-2.395718909375769
264.413793,,0.014494027513994633,264.589,0.5820000171661377,-2.3307540613815694
264.87931,,0.014856422372390857,265.053,0.5889999866485596,-2.315936127779854
265.34482799999995,,0.012517532148252866,265.519,0.5659999847412109,-2.366501867133453
265.810345,,0.01067093443092429,265.982,0.5509999990463257,-2.399649746465863
266.27586199999996,,0.011448354900605962,266.451,0.5809999704360962,-2.3347560689790923
266.741379,,0.01316737930093192,266.912,0.597000002861023,-2.3003456123182233
267.206897,,0.011723715892134952,267.375,0.5669999718666077,-2.3661212318254448
267.672414,,0.0048278312068108275,267.845,0.5830000042915344,-2.331634865956728
268.137931,,0.005382019062249994,268.307,0.5669999718666077,-2.3668104834941617
268.603448,,0.01388301232573746,268.773,0.5849999785423279,-2.3278474452956153
269.06896600000005,,0.01692684757818536,269.236,0.5669999718666077,-2.3672437236402546
269.53448299999997,,0.014909408594011875,269.701,0.5759999752044678,-2.347739184024174
270.0,,0.011120923215711986,270.168,0.5649999976158142,-2.3717275262024526
270.465517,,0.007874501989972194,270.634,0.6019999980926514,-2.2910596680407496
270.931034,,0.004778789237930384,271.101,0.5540000200271606,-2.3954974727319587
271.396552,,0.0010763588964438377,271.566,0.5920000076293945,-2.3124967429294783
271.86206899999996,,0.0018298702763527267,272.03,0.48500001430511475,-2.5453333794642172
272.327586,,0.0017260657146552106,272.496,0.5920000076293945,-2.311882201259797
272.793103,,0.0010629434098524504,272.96,0.5509999990463257,-2.4008231427099145
273.258621,,0.0033535926030798225,273.422,0.5730000138282776,-2.3524718448085498
273.724138,,0.0026052511112379757,273.89,0.574999988079071,-2.347668903167989
274.18965499999996,,0.00023654068612644023,274.352,0.6039999723434448,-2.2840300581414064
274.655172,,0.002009194446600452,274.816,0.5170000195503235,-2.4731163170070944
275.12069,,0.0008181211162493507,275.285,0.5540000200271606,-2.392067836991211
275.586207,,0.002521794638713588,275.751,0.5669999718666077,-2.3633378392486266
276.051724,,0.006329247878398704,276.215,0.6499999761581421,-2.1821424987913742
276.517241,,0.010387898288660716,276.681,0.5759999752044678,-2.34304432758948
276.98275900000004,,0.015717750525267183,277.146,0.5540000200271606,-2.3907167274477437
277.448276,,0.022307716978298052,277.611,0.5979999899864197,-2.2946680604882244
277.913793,,0.028091983106155818,278.071,0.5770000219345093,-2.3403059553163947
278.37931,,0.030470747546564904,278.536,0.5730000138282776,-2.3489849341030036
278.844828,,0.027848706074936714,279.001,0.5879999995231628,-2.3163490602197023
279.31034500000004,,0.019294331825663133,279.467,0.5410000085830688,-2.4188680436408077
279.77586199999996,,0.004259107475849424,279.93,0.5299999713897705,-2.443032511845973
280.241379,,0.016023780466088915,280.4,0.5730000138282776,-2.3496210419624
280.706897,,0.03776754729770246,280.86,0.574999988079071,-2.345596028198384
281.172414,,0.056516021451600125,281.33,0.5830000042915344,-2.3285496326939548
281.637931,,0.06951963489003953,281.797,0.5860000252723694,-2.322435106831052
282.10344799999996,,0.07592608437235028,282.26,0.6000000238418579,-2.2923808727380828
282.568966,,0.07556876312778113,282.726,0.5630000233650208,-2.3734497850729523
283.034483,,0.06846143355263447,283.185,0.5540000200271606,-2.3935160558493496
283.5,,0.055385001812841776,283.651,0.5860000252723694,-2.3242438570940864
283.965517,,0.03863461802432797,284.116,0.6800000071525574,-2.119865444144735
284.431034,,0.02185675697032983,284.582,0.5640000104904175,-2.3729589335991688
284.89655200000004,,0.008344302695388118,285.049,0.5649999976158142,-2.3710976759231364
285.362069,,0.001221446783955567,285.515,0.578000009059906,-2.34303227378331
285.827586,,0.009056039276156586,285.978,0.5680000185966492,-2.365007611765622
286.293103,,0.01765176537212982,286.44,0.5680000185966492,-2.3651228582695154
286.758621,,0.026961657388682374,286.908,0.5730000138282776,-2.354267968291418
287.22413800000004,,0.03457790595994854,287.37,0.5920000076293945,-2.312833449368403
287.689655,,0.038373459977286084,287.838,0.5669999718666077,-2.36718191878518
288.155172,,0.03846126243723531,288.301,0.5789999961853027,-2.3408465028323597
288.62069,,0.03683105669581134,288.766,0.6019999980926514,-2.29047759791861
289.086207,,0.03543192663686616,289.237,0.5889999866485596,-2.3184786503098342
289.55172400000004,,0.034269461933214763,289.695,0.5419999957084656,-2.4205028731240095
290.01724099999996,,0.031261652844836584,290.16,0.5759999752044678,-2.3460182431054
290.482759,,0.024616594744041397,290.626,0.5799999833106995,-2.3368664997200224
290.948276,,0.015548584872841276,291.093,0.5839999914169312,-2.3277003981596147
291.413793,,0.007947413005669063,291.559,0.5789999961853027,-2.338141111680872
291.87931,,0.005022778223404981,292.023,0.5809999704360962,-2.333343873422292
292.344828,,0.006597900477704945,292.489,0.5669999718666077,-2.363430885026937
292.81034500000004,,0.00962917103957313,292.953,0.5669999718666077,-2.363055552451436
293.275862,,0.010864118591071075,293.415,0.5889999866485596,-2.3147996577120615
293.74137900000005,,0.009113189533768166,293.886,0.5630000233650208,-2.37117795903041
294.206897,,0.005703733564619355,294.348,0.5910000205039978,-2.309976305088937
294.672414,,0.0030060463411721696,294.812,0.5789999961853027,-2.3359932497993534
295.13793100000004,,0.002109968862620744,295.281,0.5540000200271606,-2.3904092517043978
295.603448,,0.0018689541939902838,295.747,0.5860000252723694,-2.320721030117141
296.068966,,0.0006150195921611767,296.212,0.5879999995231628,-2.316469429017823
296.534483,,0.0014722242812675993,296.67,0.5389999747276306,-2.423403064516421
297.0,,0.0026353984028207947,297.141,0.6019999980926514,-2.286397225726613
297.46551700000003,,0.002114676323534224,297.6,0.5669999718666077,-2.3629602021433236
297.931034,,0.0011373359461583363,298.072,0.5669999718666077,-2.3633223195514894
298.396552,,0.0007200583294342561,298.53,0.5649999976158142,-2.3680834587864146
298.862069,,0.0003768178528723192,298.997,0.5879999995231628,-2.3184077528007547
299.327586,,0.004195469664651659,299.463,0.5630000233650208,-2.3733231738445397
299.79310300000003,,0.010351056308053237,299.93,0.5989999771118164,-2.295343552143819
300.258621,,0.0154298502727972,300.392,0.5680000185966492,-2.363321856269753
300.724138,,0.01596943991175623,300.86,0.5789999961853027,-2.339772802098018
301.189655,,0.011621535119204659,301.323,0.5849999785423279,-2.3270804207961953
301.65517200000005,,0.005464107579570623,301.788,0.5830000042915344,-2.3317688977487845
302.12069,,0.0016338565962082348,302.252,0.5690000057220459,-2.3625433760273955
302.586207,,0.0021567385598728513,302.718,0.5329999923706055,-2.4411834710799685
303.05172400000004,,0.0051259673103613524,303.182,0.5830000042915344,-2.332389464183767
303.517241,,0.006132880541592494,303.647,0.5690000057220459,-2.3629537450928595
303.982759,,0.002373217173469028,304.112,0.5690000057220459,-2.3629393258253826
304.448276,,0.004616399044562028,304.577,0.5699999928474426,-2.36066930353483
304.913793,,0.010731329040656537,305.045,0.5540000200271606,-2.395362182142145
305.37931000000003,,0.01350513002174923,305.511,0.5849999785423279,-2.3275895076253628
305.844828,,0.014156652544584956,305.971,0.5690000057220459,-2.36215035620818
306.310345,,0.015830580605909587,306.441,0.5669999718666077,-2.3661562469596014
306.775862,,0.020203717944658167,306.904,0.5519999861717224,-2.398441523538404
307.241379,,0.025687527875414326,307.367,0.597000002861023,-2.299976317342321
307.70689699999997,,0.02890850884012756,307.834,0.6000000238418579,-2.2929940000003834
308.172414,,0.02811769896197437,308.296,0.578000009059906,-2.340470345113992
308.637931,,0.025026552101375173,308.762,0.5899999737739563,-2.313879115311247
309.103448,,0.023002178271822087,309.226,0.6010000109672546,-2.2894860080883026
309.568966,,0.023552259496891523,309.692,0.5699999928474426,-2.356628755804838
310.034483,,0.025008913224144527,310.156,0.5669999718666077,-2.3628147830238717
310.5,,0.024724842296810778,310.622,0.574999988079071,-2.345092222385012
310.96551700000003,,0.02192426211227196,311.086,0.5199999809265137,-2.464690981621847
311.431034,,0.017795068653028576,311.551,0.5540000200271606,-2.3904644280891647
311.896552,,0.013201421661713062,312.015,0.5879999995231628,-2.3163163305571914
312.362069,,0.007536858617312435,312.481,0.5389999747276306,-2.4230757092465467
312.827586,,0.00043809471097316504,312.949,0.5830000042915344,-2.327300388204648
313.29310300000003,,0.0062920446491016606,313.411,0.5730000138282776,-2.349248855775783
313.758621,,0.009886446796626787,313.879,0.5669999718666077,-2.3625543129462696
314.224138,,0.009862096845435252,314.341,0.5460000038146973,-2.408604609267166
314.689655,,0.00895023006577207,314.812,0.5649999976158142,-2.3675658301684837
315.155172,,0.010249975692863622,315.274,0.574999988079071,-2.346180477954199
315.62068999999997,,0.014160396004517267,315.74,0.5690000057220459,-2.3596862988696476
316.086207,,0.018599697005538027,316.205,0.5889999866485596,-2.3165667295353303
316.551724,,0.021584302708251492,316.67,0.5669999718666077,-2.364955939114741
317.017241,,0.022950989906315843,317.13,0.597000002861023,-2.3000468892815276
317.482759,,0.023920561691864725,317.596,0.5799999833106995,-2.3375121449970497
317.94827599999996,,0.025624565834344103,318.061,0.5889999866485596,-2.3182972402560873
318.413793,,0.02806442418472136,318.526,0.5669999718666077,-2.366573942156912
318.87931000000003,,0.03001092660324099,318.99,0.5540000200271606,-2.3951867021794495
319.344828,,0.02959126602507293,319.46,0.5460000038146973,-2.412842814871392
319.810345,,0.025305869829310636,319.923,0.5720000267028809,-2.3563545239852535
320.275862,,0.0171538729638683,320.386,0.5659999847412109,-2.369507500772384
320.741379,,0.006953116905850135,320.856,0.5879999995231628,-2.321579404881844
321.20689699999997,,0.0027067584825063076,321.318,0.5669999718666077,-2.367254142905974
321.672414,,0.009919909586232933,321.784,0.5709999799728394,-2.35838599059639
322.137931,,0.014146380072115472,322.247,0.5630000233650208,-2.375589956027025
322.603448,,0.016130865906180056,322.712,0.5820000171661377,-2.3339055036728475
323.068966,,0.017264853505485546,323.178,0.574999988079071,-2.3488092302330523
323.53448299999997,,0.018425277621765074,323.643,0.5879999995231628,-2.3200931823456954
324.0,,0.019294440455687113,324.108,0.5860000252723694,-2.324021630311311
324.465517,,0.019080544703815015,324.574,0.5619999766349792,-2.375858485776543
324.931034,,0.017521033394478136,325.038,0.5860000252723694,-2.323111990027798
325.396552,,0.014659010721979148,325.503,0.5669999718666077,-2.364053386982019
325.86206899999996,,0.01011509663705741,325.971,0.5669999718666077,-2.363620003499848
326.327586,,0.003483790593511912,326.433,0.5730000138282776,-2.350147612099622
326.793103,,0.004436018657216812,326.901,0.5649999976158142,-2.3672214060000742
327.258621,,0.011368980199962414,327.363,0.5680000185966492,-2.3603857831738604
327.724138,,0.01496937246902131,327.826,0.5830000042915344,-2.3274710274471238
328.189655,,0.014709403463106997,328.297,0.47200000286102295,-2.569139155444601
328.655172,,0.012588344879346281,328.755,0.5199999809265137,-2.464482997403305
329.12068999999997,,0.011885169930952146,329.226,0.5540000200271606,-2.3904105936205466
329.586207,,0.014386375040208843,329.692,0.5809999704360962,-2.331668701632917
330.051724,,0.018098469646489614,330.156,0.5849999785423279,-2.323110888796016
330.517241,,0.01827621062948865,330.622,0.5789999961853027,-2.336409264118025
330.982759,,0.011848074268168583,331.086,0.5830000042915344,-2.3279839081987728
331.44827599999996,,0.0007519012693780373,331.545,0.6039999723434448,-2.2825750423964024
331.913793,,0.009871151573171243,332.012,0.5690000057220459,-2.359213231883991
332.37931,,0.016461865386418053,332.478,0.5699999928474426,-2.357452294850235
332.844828,,0.019109452697727815,332.945,0.597000002861023,-2.2990661925787514
333.310345,,0.01922738173164969,333.408,0.515999972820282,-2.4759815160038667
333.77586199999996,,0.016744645616745917,333.871,0.5789999961853027,-2.3391665882134656
334.241379,,0.010448593250931223,334.341,0.5690000057220459,-2.361374710107293
334.706897,,0.0003844021209587833,334.805,0.5699999928474426,-2.3595860244046927
335.17241399999995,,0.011023613190284167,335.267,0.578000009059906,-2.342503475156387
335.637931,,0.01999353207609219,335.733,0.5540000200271606,-2.3950843669829585
336.103448,,0.02300603029765943,336.2,0.5669999718666077,-2.3669939144984338
336.56896600000005,,0.01820426595673296,336.666,0.46799999475479126,-2.5828456031039204
337.034483,,0.00652125743907847,337.131,0.5979999899864197,-2.2997164268186654
337.5,,0.008475734718445871,337.596,0.6039999723434448,-2.2866635631345473
337.965517,,0.022585173562827007,338.061,0.5699999928474426,-2.360677768871584
338.431034,,0.033106483393737354,338.526,0.5659999847412109,-2.3692568071278934
338.89655200000004,,0.03920086870815799,338.989,0.6050000190734863,-2.28408225786835
339.36206899999996,,0.040837064435460396,339.451,0.5659999847412109,-2.3687765439132464
339.827586,,0.03795821473333983,339.919,0.5540000200271606,-2.394590427058983
340.293103,,0.030684344920029458,340.381,0.5830000042915344,-2.3310336944593386
340.758621,,0.020010252555401776,340.85,0.5950000286102295,-2.304478059154565
341.224138,,0.007956703233729693,341.311,0.5699999928474426,-2.358508621100812
341.68965499999996,,0.0031377516284519786,341.777,0.5540000200271606,-2.3929214131881404
342.155172,,0.011613276311604161,342.24,0.5540000200271606,-2.392480590388101
342.62069,,0.017222340593563097,342.706,0.5720000267028809,-2.352841995286878
343.086207,,0.021206512500647815,343.17,0.5699999928474426,-2.3568064359788674
343.551724,,0.025339019346110554,343.636,0.574999988079071,-2.34556162129002
344.01724099999996,,0.030495746168475488,344.101,0.5849999785423279,-2.3234750794827534
344.48275900000004,,0.036197197969330075,344.567,0.5669999718666077,-2.3624510354890784
344.948276,,0.04142915940782155,345.031,0.5649999976158142,-2.3666365250420696
345.413793,,0.04534212899668958,345.497,0.6019999980926514,-2.2859275592714168
345.87931,,0.0468521891998351,345.967,0.5669999718666077,-2.362156433559951
346.344828,,0.04403331321021487,346.429,0.597000002861023,-2.296848767876874
346.81034500000004,,0.03478049837689068,346.89,0.5669999718666077,-2.362334514623404
347.275862,,0.018675250994566038,347.36,0.5669999718666077,-2.362531837085118
347.741379,,0.0017863605889563172,347.823,0.5519999861717224,-2.3954749349250997
348.206897,,0.022041286463655115,348.285,0.5640000104904175,-2.3696529885871875
348.672414,,0.03774194025968381,348.751,0.5989999771118164,-2.2937702363182177
349.13793100000004,,0.04681205536172701,349.215,0.5839999914169312,-2.326855459750442
349.60344799999996,,0.05009662901980308,349.681,0.5849999785423279,-2.3251056895283906
350.068966,,0.050020986557078706,350.146,0.578000009059906,-2.3407958902320165
350.534483,,0.048017473853076253,350.612,0.5389999747276306,-2.426201707885855
351.0,,0.04343839194700315,351.079,0.574999988079071,-2.348195229244901
351.465517,,0.03559879078162129,351.545,0.5640000104904175,-2.3725585853365816
351.93103399999995,,0.026218842714765357,352.005,0.5540000200271606,-2.394704606240316
352.396552,,0.01835819600346955,352.471,0.5929999947547913,-2.3100471820607815
352.862069,,0.012912600169075786,352.938,0.6019999980926514,-2.2906886542243905
353.32758600000005,,0.007735186863724952,353.4,0.5789999961853027,-2.340978228201253
353.793103,,0.0008850138570587484,353.871,0.5720000267028809,-2.3563360538203755
354.258621,,0.006522521825495834,354.334,0.5860000252723694,-2.325866249253431
354.72413800000004,,0.011737320614162139,354.805,0.5450000166893005,-2.4151455601527916
355.189655,,0.013869418693633005,355.267,0.6060000061988831,-2.2821275533094156
355.655172,,0.014867142636436912,355.725,0.5419999957084656,-2.4213689059366774
356.12069,,0.017134567139800227,356.19,0.5649999976158142,-2.3710025483822075
356.586207,,0.02080465373264851,356.656,0.5830000042915344,-2.3314719330632916
357.05172400000004,,0.023553962938827833,357.123,0.6029999852180481,-2.2875345152837125
357.517241,,0.022993606683764302,357.589,0.5830000042915344,-2.3307036318614864
357.982759,,0.019036937635648298,358.056,0.5730000138282776,-2.352059627890813
358.448276,,0.013871386631637273,358.521,0.5929999947547913,-2.3080429052899585
358.913793,,0.010080650910375107,358.983,0.5669999718666077,-2.364244065024941
359.37931000000003,,0.009106392783922055,359.446,0.5519999861717224,-2.396494291416376
359.844828,,0.010788836628842077,359.916,0.5920000076293945,-2.3089463442024982
360.310345,,0.013463191562495477,360.379,0.5640000104904175,-2.369585557873315
360.775862,,0.014761941696832636,360.841,0.5910000205039978,-2.310448754366127
361.241379,,0.013279976796866998,361.311,0.550000011920929,-2.3995195756829872
361.706897,,0.009809966451709798,361.777,0.6100000143051147,-2.2686138020679425
362.172414,,0.0066460884552820305,362.239,0.5339999794960022,-2.434076994670048
362.63793100000004,,0.005362841420850664,362.705,0.574999988079071,-2.3447151315365162
363.103448,,0.005277106079075445,363.171,0.5640000104904175,-2.368721205434803
363.568966,,0.004355308693570701,363.637,0.5630000233650208,-2.37101740805828
364.034483,,0.00163462301111887,364.101,0.5839999914169312,-2.3254562803861236
364.5,,0.0017506648103073966,364.567,0.5540000200271606,-2.391072980223348
364.96551700000003,,0.004051304445010395,365.027,0.5709999799728394,-2.35435275523558
365.431034,,0.004670517572186169,365.493,0.578000009059906,-2.339468483257487
365.896552,,0.004084289807483223,365.956,0.5540000200271606,-2.392160734409666
366.362069,,0.0027712395085287053,366.426,0.578000009059906,-2.3403042659355204
366.827586,,0.000998409838504144,366.889,0.5809999704360962,-2.3342123039952476
367.29310300000003,,0.0006190585896115459,367.352,0.5540000200271606,-2.3934789281344333
367.758621,,0.0011025417480049666,367.816,0.6010000109672546,-2.291511592857006
368.224138,,0.00011391442101911524,368.286,0.5709999799728394,-2.3572725810325674
368.689655,,0.0025827368708586556,368.751,0.5720000267028809,-2.3554556709583503
369.155172,,0.005045648393057186,369.215,0.5789999961853027,-2.340516934737926
369.62068999999997,,0.0062177890018167165,369.681,0.5540000200271606,-2.395235580910529
370.086207,,0.005696576082344184,370.146,0.5989999771118164,-2.297382046675002
370.55172400000004,,0.0043668139767098,370.611,0.574999988079071,-2.3497820054429455
371.017241,,0.0036623875558790264,371.071,0.5789999961853027,-2.3411032786104546
371.482759,,0.0042139453603111925,371.536,0.5540000200271606,-2.3955286230315016
371.948276,,0.005411618462385805,372.001,0.5759999752044678,-2.3474826675095914
372.413793,,0.0061929352307207395,372.467,0.6039999723434448,-2.2862924950296772
372.87931000000003,,0.005829356668667193,372.93,0.5799999833106995,-2.338324582419838
373.344828,,0.004224963420577434,373.4,0.5709999799728394,-2.357617869220473
373.810345,,0.00224612003957713,373.864,0.5669999718666077,-2.3659693179149257
374.275862,,0.00159704328851328,374.326,0.5849999785423279,-2.3263529130683365
374.741379,,0.0033112430474720083,374.792,0.5920000076293945,-2.310675531493321
375.20689699999997,,0.006131487153612365,375.258,0.5889999866485596,-2.316771123577656
375.672414,,0.007317893245921972,375.724,0.6050000190734863,-2.281471726887802
376.137931,,0.005537163763156499,376.189,0.5680000185966492,-2.361653868709061
376.603448,,0.0022591254019033386,376.655,0.5540000200271606,-2.3917545369611477
377.068966,,0.0001269931521398946,377.12,0.5540000200271606,-2.3913949951363285
377.53448299999997,,0.0007733645615698109,377.585,0.6079999804496765,-2.2734395045513076
378.0,,0.0003902277739988013,378.045,0.5669999718666077,-2.362514700401932
378.465517,,0.00021805424085195662,378.511,0.5830000042915344,-2.327473606901521
378.931034,,0.0006375138251341683,378.979,0.5830000042915344,-2.3273634181657465
379.396552,,0.0005903747271062265,379.441,0.5509999990463257,-2.397046024702021
379.862069,,0.00026241068568530013,379.908,0.5720000267028809,-2.351337900361567
380.327586,,0.00036603603091349933,380.37,0.5540000200271606,-2.3906736133277504
380.79310300000003,,0.0010027341789058232,380.838,0.5540000200271606,-2.3908665314511492
381.258621,,0.001103086871679285,381.301,0.5849999785423279,-2.3235880066020544
381.724138,,2.42555411586292e-05,381.767,0.5669999718666077,-2.3631208715687335
382.189655,,0.0012098798232597116,382.23,0.5230000019073486,-2.4593472383543413
382.655172,,0.0007946377287774461,382.696,0.5709999799728394,-2.35517641184676
383.12068999999997,,0.000702511673049995,383.16,0.5730000138282776,-2.3512481770055795
383.586207,,0.0007866841224446856,383.626,0.6110000014305115,-2.2688985157639525
384.051724,,0.001619575619131355,384.093,0.5669999718666077,-2.3651937753156616
384.517241,,0.004285851083023956,384.559,0.5730000138282776,-2.3525395348595595
384.982759,,0.00431601453757398,385.023,0.5730000138282776,-2.352928223330469
385.44827599999996,,0.001987921955447829,385.488,0.5419999957084656,-2.42081464334978
385.913793,,0.0006567800946997454,385.956,0.5809999704360962,-2.3361450458768087
386.37931,,0.0028151517118996687,386.419,0.5540000200271606,-2.395206151006839
386.84482799999995,,0.007227264592410246,386.882,0.5540000200271606,-2.3953769581266386
387.310345,,0.01041234744496821,387.345,0.578000009059906,-2.343188265761691
387.775862,,0.010353716312139662,387.816,0.574999988079071,-2.349747424267514
388.241379,,0.008053700020443389,388.278,0.5649999976158142,-2.3714806303253377
388.70689699999997,,0.00577509070241775,388.744,0.5669999718666077,-2.366995863779555
389.172414,,0.004669301898388769,389.209,0.574999988079071,-2.349368873536169
389.637931,,0.004137293981371767,389.674,0.6119999885559082,-2.2684960385293285
390.103448,,0.0026977521221012483,390.141,0.5889999866485596,-2.3182842430643715
390.56896600000005,,0.0005946353331312504,390.607,0.5630000233650208,-2.374561105095424
391.03448299999997,,0.004908549902372458,391.072,0.578000009059906,-2.3414789083900103
391.5,,0.007876449157409676,391.53,0.5669999718666077,-2.3650198026378444
391.965517,,0.0078045828645843494,391.997,0.5929999947547913,-2.3079415769092657
392.431034,,0.00554846000006756,392.463,0.578000009059906,-2.340192017068521
392.896552,,0.0034123027131048944,392.93,0.5720000267028809,-2.352852167455245
393.36206899999996,,0.0022744739922226365,393.393,0.5889999866485596,-2.3154340433919205
393.827586,,0.0008173476175366837,393.856,0.5680000185966492,-2.360846652039928
394.293103,,0.002087556202094097,394.326,0.5720000267028809,-2.3518461820564007
394.75862099999995,,0.005327672407789061,394.792,0.5889999866485596,-2.3145852183005453
395.224138,,0.00690370491807916,395.25,0.5920000076293945,-2.3078931618494973
395.68965499999996,,0.006720524430974473,395.716,0.5929999947547913,-2.305630749584803
396.155172,,0.0066465281510070555,396.182,0.5669999718666077,-2.36226709684735
396.62069,,0.00780738932633379,396.648,0.5860000252723694,-2.3209400871469814
397.086207,,0.00906693718465589,397.113,0.5920000076293945,-2.3080092150073432
397.551724,,0.00844071225514051,397.578,0.550000011920929,-2.3997227814811017
398.017241,,0.005033864420305529,398.045,0.6010000109672546,-2.288885229916564
398.48275900000004,,0.0006091362996068132,398.511,0.5730000138282776,-2.3502150586774926
398.94827599999996,,0.00709803562571581,398.971,0.5640000104904175,-2.370194697335404
399.413793,,0.012756900090370192,399.441,0.5929999947547913,-2.307418541907094
399.87931,,0.016384084322825846,399.901,0.6019999980926514,-2.2882344704874247
400.344828,,0.018092932674265837,400.371,0.5860000252723694,-2.3235219440412997
400.810345,,0.019164410324647645,400.834,0.5920000076293945,-2.310871594861234
401.27586199999996,,0.020729013196512887,401.296,0.5540000200271606,-2.394061842789342
401.741379,,0.022683643261910004,401.762,0.5879999995231628,-2.32035776065974
402.206897,,0.023891902472843056,402.226,0.5820000171661377,-2.333756005545208
402.672414,,0.023143015057835788,402.691,0.5709999799728394,-2.3579937466129164
403.137931,,0.02005032483662873,403.156,0.5759999752044678,-2.347311158861866
403.60344799999996,,0.01555947864182066,403.622,0.5709999799728394,-2.3583467640197497
404.068966,,0.011455126079341692,404.086,0.5920000076293945,-2.312664446234843
404.534483,,0.008683135963774843,404.552,0.5709999799728394,-2.3584100691567182
405.0,,0.0062595487180845105,405.015,0.5680000185966492,-2.364865049040351
405.465517,,0.002586645856234854,405.481,0.5460000038146973,-2.412643081205689
405.931034,,0.002241784610780903,405.949,0.5630000233650208,-2.375387555400467
406.39655200000004,,0.006266924653497008,406.411,0.5950000286102295,-2.305392016704506
406.862069,,0.007834717367835059,406.879,0.6119999885559082,-2.2680227072418444
407.327586,,0.00718379151343858,407.341,0.6029999852180481,-2.287253750243802
407.793103,,0.005733069769089349,407.812,0.5709999799728394,-2.3565615698828464
408.258621,,0.004552769915645133,408.274,0.5730000138282776,-2.351777117137562
408.72413800000004,,0.003979110164428229,408.74,0.5839999914169312,-2.3273804450365967
409.18965499999996,,0.004192085714744984,409.205,0.5709999799728394,-2.3552800654428876
409.655172,,0.005420381064412526,409.671,0.5669999718666077,-2.3635940987217903
410.12069,,0.007489651647940223,410.13,0.5329999923706055,-2.4373033138835423
410.586207,,0.009587519738347752,410.596,0.5440000295639038,-2.413021512685945
411.05172400000004,,0.010767141602810523,411.063,0.5809999704360962,-2.332152573829235
411.51724099999996,,0.010650077292043536,411.529,0.5120000243186951,-2.4822853647922605
411.982759,,0.009545942477386722,411.994,0.5490000247955322,-2.4015536610531365
412.448276,,0.008038241834081175,412.46,0.5929999947547913,-2.305646317721871
412.913793,,0.0067274425739451875,412.922,0.5540000200271606,-2.390641158929727
413.37931,,0.0062333109693453355,413.385,0.5230000019073486,-2.458281422811094
413.844828,,0.006838997903645027,413.856,0.5759999752044678,-2.342987154929924
414.31034500000004,,0.00787743448937928,414.319,0.6019999980926514,-2.2865807158043765
414.775862,,0.007954537011514998,414.784,0.5630000233650208,-2.3718419907946617
415.241379,,0.006305991878576831,415.247,0.5669999718666077,-2.363468629229665
415.706897,,0.003947708810999323,415.713,0.5849999785423279,-2.324630703631996
416.172414,,0.003144265273076104,416.178,0.5839999914169312,-2.3272112383719215
416.63793100000004,,0.0052346968871904345,416.644,0.5870000123977661,-2.3210884849045144
417.103448,,0.008701140017032092,417.109,0.5759999752044678,-2.345465664403738
417.568966,,0.009977491627166863,417.575,0.5540000200271606,-2.3937946873884077
418.034483,,0.007098861320048734,418.042,0.5540000200271606,-2.3941692887420483
418.5,,0.0022944295317518302,418.5,0.5730000138282776,-2.35311401101844
418.96551700000003,,0.00021123710615517563,418.968,0.574999988079071,-2.349049239884577
419.43103399999995,,0.001019993912474897,419.43,0.5830000042915344,-2.3318565237911306
419.896552,,0.003384452314455241,419.9,0.49900001287460327,-2.51503778263175
420.362069,,0.00409105313672301,420.363,0.5529999732971191,-2.3975006095165408
420.827586,,0.0037591662745283887,420.831,0.5720000267028809,-2.356146993789329
421.293103,,0.0050511070722770125,421.294,0.5989999771118164,-2.2972920774671644
421.758621,,0.008783928316886598,421.76,0.5649999976158142,-2.371262642959184
422.22413800000004,,0.013099078362948316,422.225,0.5540000200271606,-2.3950566074255524
422.689655,,0.016257233793439275,422.691,0.6029999852180481,-2.2880696229100157
423.15517200000005,,0.0185456695435704,423.156,0.5979999899864197,-2.2986732778336965
423.62069,,0.020953807918598733,423.621,0.5860000252723694,-2.3244796544573787
424.086207,,0.023296211577519512,424.086,0.5699999928474426,-2.358964449737284
424.55172400000004,,0.024548957272497864,424.551,0.5669999718666077,-2.365103050345025
425.017241,,0.024324173363198937,425.016,0.5860000252723694,-2.323299959293879
425.482759,,0.023017291323746417,425.481,0.5649999976158142,-2.3686442501764637
425.948276,,0.020657168648297367,425.942,0.5809999704360962,-2.3333925627280987
426.413793,,0.016557643899263067,426.412,0.5740000009536743,-2.3482758630727694
426.87931000000003,,0.010499614568107996,426.875,0.5709999799728394,-2.3544822483376087
427.344828,,0.0036730108330000227,427.337,0.5730000138282776,-2.3498432187494083
427.810345,,0.002147947527688383,427.805,0.5669999718666077,-2.362690247988903
428.275862,,0.006182040580421931,428.267,0.5820000171661377,-2.329848923639638
428.741379,,0.00891806271407335,428.733,0.5830000042915344,-2.3275766885560563
429.20689699999997,,0.010727341971769883,429.2,0.5460000038146973,-2.4081640990665747
429.672414,,0.010526417808670389,429.666,0.5929999947547913,-2.3058170171971843
430.137931,,0.006466144833490869,430.131,0.5989999771118164,-2.292863703369262
430.603448,,0.0014470352896062645,430.596,0.5419999957084656,-2.4172304586955047
431.068966,,0.009649231621609572,431.061,0.5709999799728394,-2.3542943253818747
431.534483,,0.0128489883616601,431.526,0.5630000233650208,-2.372021333186265
432.0,,0.00790521450893015,431.989,0.5809999704360962,-2.3331469193253764
432.46551700000003,,0.004463898158095852,432.452,0.5989999771118164,-2.2943040097721337
432.931034,,0.021521400600666773,432.919,0.5929999947547913,-2.307767696286111
433.396552,,0.040866624575773045,433.382,0.5669999718666077,-2.364811643381584
433.862069,,0.060558332211438914,433.845,0.49399998784065247,-2.5242492614590963
434.327586,,0.07810022101907257,434.315,0.5799999833106995,-2.337268221655751
434.79310300000003,,0.09062759001639918,434.781,0.5659999847412109,-2.368125069462486
435.258621,,0.09613133821766105,435.243,0.5839999914169312,-2.3292255499435326
435.724138,,0.09402142416665286,435.709,0.574999988079071,-2.349099878425006
436.189655,,0.0847818958211702,436.174,0.5680000185966492,-2.364558964370405
436.655172,,0.06978402864143633,436.64,0.5540000200271606,-2.395205013269508
437.12068999999997,,0.05155290656323166,437.105,0.5400000214576721,-2.4257838567947307
437.586207,,0.033539305292636976,437.571,0.597000002861023,-2.3016087619513637
438.051724,,0.018541852929452457,438.03,0.5809999704360962,-2.336403402220885
438.517241,,0.006655044275598137,438.496,0.546999990940094,-2.41034412171067
438.982759,,0.0047360809517893185,438.964,0.5540000200271606,-2.394896369685663
439.448276,,0.01789749745744331,439.426,0.597000002861023,-2.300959276097982
439.913793,,0.03163751623555129,439.897,0.5649999976158142,-2.3703696383690995
440.37931000000003,,0.04203461132235176,440.359,0.574999988079071,-2.3482353546147974
440.844828,,0.04638281917085582,440.823,0.5690000057220459,-2.3609292746372343
441.310345,,0.04579566483356656,441.286,0.6010000109672546,-2.2908157387956023
441.775862,,0.04378874786128384,441.751,0.492000013589859,-2.5278863693819895
442.241379,,0.04283285661058472,442.215,0.593999981880188,-2.3052709060169496
442.70689699999997,,0.04251584198366413,442.681,0.5479999780654907,-2.405115676423922
443.172414,,0.040649508008454543,443.146,0.5370000004768372,-2.4287395291085545
443.637931,,0.03574394077469643,443.611,0.531000018119812,-2.4415139974859335
444.103448,,0.02853870498382358,444.079,0.5839999914169312,-2.32580071742741
444.568966,,0.02153735697050671,444.544,0.5540000200271606,-2.3909738368163644
445.03448299999997,,0.017054574314412378,445.008,0.5690000057220459,-2.3581719588872887
445.5,,0.015365724074312193,445.474,0.5529999732971191,-2.3929763118459477
445.965517,,0.014716056364858286,445.942,0.5540000200271606,-2.3908133350389713
446.431034,,0.01334758699491432,446.405,0.5929999947547913,-2.3059305882833043
446.896552,,0.011378412556836482,446.867,0.5659999847412109,-2.3649036322935424
447.36206899999996,,0.010383382105516837,447.33,0.5519999861717224,-2.395614946433683
447.827586,,0.011270710541815793,447.801,0.5519999861717224,-2.3958802949502376
448.29310300000003,,0.012979022010457366,448.263,0.5830000042915344,-2.3286539277510987
448.758621,,0.013342757495755631,448.729,0.5669999718666077,-2.3638599921979644
449.224138,,0.011060445676896897,449.194,0.593999981880188,-2.30540851201825
449.689655,,0.006840822699741814,449.66,0.5839999914169312,-2.3275794361525106
450.155172,,0.0028984748233499176,450.126,0.5879999995231628,-2.3192495758499154
450.62068999999997,,0.0013854573117991333,450.592,0.5789999961853027,-2.339230878622411
451.086207,,0.0028242845329629752,451.057,0.5709999799728394,-2.3570112749263843
451.551724,,0.005592014549622949,451.515,0.5680000185966492,-2.363865886134226
452.017241,,0.007202311817972937,451.986,0.5540000200271606,-2.3946441946017747
452.482759,,0.006574573691318397,452.449,0.550000011920929,-2.4035868171993338
452.94827599999996,,0.004870735786196847,452.912,0.5669999718666077,-2.3667219100843897
453.413793,,0.0039058054488585042,453.382,0.5170000195503235,-2.4757655704269195
453.87931,,0.004302136996887562,453.842,0.5540000200271606,-2.395203646668336
454.344828,,0.005520175165460742,454.311,0.5709999799728394,-2.358149381367523
454.810345,,0.00682143069284992,454.777,0.5920000076293945,-2.3123137588777536
455.27586199999996,,0.007401638278510234,455.24,0.5669999718666077,-2.366631463681538
455.741379,,0.006316540505859786,455.706,0.5429999828338623,-2.418711314491373
456.206897,,0.0035543578406035344,456.166,0.574999988079071,-2.348734878799789
456.672414,,0.0009862711188543278,456.632,0.5540000200271606,-2.394182464019872
457.137931,,0.0007856375060676058,457.097,0.5920000076293945,-2.311054299800736
457.603448,,0.0024307867691877386,457.562,0.6000000238418579,-2.2932592395393074
458.06896600000005,,0.002592191840032277,458.026,0.5669999718666077,-2.364773495735552
458.53448299999997,,0.0010364390743741261,458.492,0.5690000057220459,-2.360032211412703
459.0,,0.006817494211042803,458.96,0.5690000057220459,-2.3596580841737627
459.465517,,0.011343540269946823,459.422,0.5669999718666077,-2.3636626861785284
459.931034,,0.013774513721111869,459.886,0.5720000267028809,-2.35244880099585
460.39655200000004,,0.016269174356208997,460.355,0.578000009059906,-2.3390983306876847
460.86206899999996,,0.02014931328828764,460.816,0.5699999928474426,-2.3562993152315617
461.327586,,0.023633694690100765,461.286,0.5920000076293945,-2.3081979872998057
461.793103,,0.02442747366513629,461.745,0.6079999804496765,-2.2732302472043147
462.258621,,0.02296087985404868,462.211,0.5630000233650208,-2.3712248733591506
462.724138,,0.021252718353919543,462.677,0.5270000100135803,-2.449680271083637
463.18965499999996,,0.019588817319574736,463.141,0.5649999976158142,-2.3669849801794296
463.655172,,0.01662762176756931,463.607,0.5630000233650208,-2.3715014068916576
464.12069,,0.012520622008363983,464.072,0.578000009059906,-2.339040902992692
464.58620699999994,,0.009537116968416987,464.538,0.5699999928474426,-2.3567422088849486
465.051724,,0.009050663289153903,465.005,0.5799999833106995,-2.335272103615941
465.517241,,0.009826678085495607,465.471,0.5789999961853027,-2.3378013877192747
465.98275900000004,,0.01025270389890603,465.934,0.5830000042915344,-2.3294606637035327
466.448276,,0.01074711071734141,466.396,0.5699999928474426,-2.3581688052204135
466.913793,,0.012506831075142028,466.86,0.5680000185966492,-2.3629120450947676
467.37931,,0.014747423536657794,467.33,0.5709999799728394,-2.3567508300776514
467.844828,,0.015052018505223586,467.797,0.574999988079071,-2.3483877686951256
468.31034500000004,,0.01257921700472043,468.259,0.6790000200271606,-2.1221235967093084
468.77586199999996,,0.009289595501676278,468.725,0.5659999847412109,-2.368578749890438
469.241379,,0.007281279987719751,469.185,0.5820000171661377,-2.333934131957204
469.706897,,0.006181424351999641,469.651,0.5730000138282776,-2.353697195773257
470.172414,,0.004156251714569877,470.115,0.5699999928474426,-2.3603252352383874
470.63793100000004,,0.0005744315000350439,470.581,0.5669999718666077,-2.3668877411597546
471.10344799999996,,0.0034283885051209573,471.046,0.5669999718666077,-2.366848176327557
471.568966,,0.006468708848390322,471.512,0.6060000061988831,-2.2817757549774313
472.034483,,0.007979215278083018,471.982,0.5740000009536743,-2.351324481771381
472.5,,0.008140340393107834,472.444,0.574999988079071,-2.3489204469617646
472.965517,,0.007791254360497574,472.912,0.550000011920929,-2.4031118752866427
473.43103399999995,,0.008246697725737646,473.374,0.5830000042915344,-2.330901147033262
473.89655200000004,,0.010187399797182327,473.838,0.5630000233650208,-2.3741274780146666
474.362069,,0.012702032292212317,474.3,0.593999981880188,-2.3062216860749176
474.827586,,0.014305018509060404,474.766,0.5809999704360962,-2.334165937705941
475.293103,,0.014910291493851343,475.236,0.597000002861023,-2.2989299658452844
475.758621,,0.01586414783746555,475.695,0.5830000042915344,-2.329065688021072
476.22413800000004,,0.01793116383005309,476.16,0.5830000042915344,-2.328723886655222
476.689655,,0.020328315295689264,476.626,0.5789999961853027,-2.3371310786074084
477.155172,,0.022257938302056336,477.093,0.49900001287460327,-2.5111610075533948
477.62069,,0.02442728893155878,477.559,0.5630000233650208,-2.371520762361254
478.086207,,0.0279602651194492,478.02,0.5690000057220459,-2.3583027213304204
478.55172400000004,,0.03221468351501547,478.485,0.5540000200271606,-2.390899864288368
479.01724099999996,,0.03515179631044567,478.956,0.5680000185966492,-2.3603823133879054
479.482759,,0.03625986171710231,479.418,0.5669999718666077,-2.3626107192063435
479.948276,,0.03761700627943539,479.887,0.5669999718666077,-2.362724477190003
480.413793,,0.040792017589462826,480.349,0.5820000171661377,-2.330218488571767
480.87931000000003,,0.04353171240518186,480.812,0.5730000138282776,-2.3500543152404254
481.344828,,0.04111970223260222,481.282,0.5839999914169312,-2.3263639877836466
481.810345,,0.03121889934565522,481.74,0.5789999961853027,-2.3375700570479703
482.275862,,0.016436907065416072,482.208,0.5830000042915344,-2.329196572870171
482.74137900000005,,0.0017128390180422232,482.674,0.5540000200271606,-2.3927367992184188
483.206897,,0.010102848054296525,483.141,0.5730000138282776,-2.3517098758056596
483.672414,,0.019390808593150646,483.607,0.5759999752044678,-2.3455379499986533
484.13793100000004,,0.027231111401357116,484.072,0.5540000200271606,-2.3938174944596056
484.603448,,0.03320674701450676,484.53,0.5730000138282776,-2.352747780620827
485.068966,,0.03596948988717705,484.997,0.5709999799728394,-2.3573949423997274
485.534483,,0.03491785721830118,485.462,0.5659999847412109,-2.368534242728983
486.0,,0.030841874024227292,485.925,0.578000009059906,-2.3425853788069193
486.46551700000003,,0.025644540534915047,486.395,0.5669999718666077,-2.3666885680746397
486.931034,,0.021948164301982667,486.856,0.5699999928474426,-2.36022963907845
487.396552,,0.0223265616965765,487.326,0.46700000762939453,-2.584646503178816
487.862069,,0.027822922272589267,487.792,0.6050000190734863,-2.283948734178374
488.327586,,0.036826373848461456,488.25,0.5669999718666077,-2.3666320578546105
488.79310300000003,,0.04587785763726436,488.715,0.5669999718666077,-2.366467387858778
489.258621,,0.05205656045485168,489.183,0.5920000076293945,-2.311782487175981
489.724138,,0.054547945762540476,489.649,0.5680000185966492,-2.3638037510704475
490.189655,,0.05394350040178608,490.115,0.5460000038146973,-2.411429087003637
490.655172,,0.050605159109235846,490.581,0.5809999704360962,-2.3348427349405343
491.12069,,0.04421589592236453,491.046,0.5839999914169312,-2.3279535625760386
491.586207,,0.03484035001512583,491.511,0.5830000042915344,-2.3297695709705404
492.05172400000004,,0.02405547731434498,491.975,0.5929999947547913,-2.30762194758053
492.517241,,0.014625855175957377,492.437,0.5699999928474426,-2.3573823517077583
492.982759,,0.008586629122398586,492.901,0.5699999928474426,-2.357057832815262
493.448276,,0.005373477356279708,493.371,0.5830000042915344,-2.3284450408049127
493.913793,,0.00208264436596906,493.834,0.5979999899864197,-2.2955173758358063
494.37931000000003,,0.003872941552855828,494.296,0.5669999718666077,-2.3628573934244375
494.844828,,0.0120751639571367,494.762,0.546999990940094,-2.406289409218736
495.310345,,0.019331625497394637,495.226,0.5540000200271606,-2.3909606810353257
495.775862,,0.022972804877703996,495.692,0.5540000200271606,-2.3909478940671103
496.241379,,0.023780472350716918,496.156,0.5649999976158142,-2.3670353653921987
496.70689699999997,,0.025352272820554234,496.621,0.5540000200271606,-2.3911164720912166
497.172414,,0.030756774311379277,497.086,0.5759999752044678,-2.3433618664399773
497.637931,,0.03982291068018058,497.552,0.5770000219345093,-2.3414120952553006
498.103448,,0.04904776187505995,498.015,0.5809999704360962,-2.3329722955180543
498.568966,,0.05404597671340712,498.481,0.5799999833106995,-2.33546260077337
499.03448299999997,,0.05307251967120169,498.949,0.5619999766349792,-2.3750176172406325
499.5,,0.04866916142761126,499.412,0.5669999718666077,-2.364481431777494
499.96551700000003,,0.04527020854242074,499.875,0.5699999928474426,-2.358309282973124
500.431034,,0.04490360184626325,500.345,0.5540000200271606,-2.393527104719038
500.89655200000004,,0.045730325242416575,500.808,0.5669999718666077,-2.365549106297357
501.362069,,0.04471443204262225,501.271,0.5540000200271606,-2.3941900344171465
501.827586,,0.04054313673922319,501.736,0.5799999833106995,-2.3378279828948085
502.293103,,0.033211362834452425,502.2,0.5669999718666077,-2.366388114108005
502.758621,,0.021921094714124206,502.666,0.578000009059906,-2.342607921784353
503.224138,,0.0053656644304405565,503.13,0.6000000238418579,-2.294803719231897
503.68965499999996,,0.015525754184731644,503.596,0.5630000233650208,-2.375476754051252
504.15517200000005,,0.03647327241315298,504.06,0.5759999752044678,-2.347153202801575
504.62068999999997,,0.05242142338650699,504.525,0.6110000014305115,-2.2708346799690724
505.08620699999994,,0.06096628026439559,504.997,0.5540000200271606,-2.3948890646810512
505.55172400000004,,0.06298784217711559,505.456,0.5669999718666077,-2.3663806929916413
506.017241,,0.06039706170384092,505.926,0.5699999928474426,-2.359607655189187
506.48275899999993,,0.0539173805577083,506.389,0.5839999914169312,-2.328825378666077
506.948276,,0.043253260404661105,506.853,0.5830000042915344,-2.330686935484687
507.413793,,0.028993673568846474,507.316,0.574999988079071,-2.347773094307898
507.87931,,0.013699192168949033,507.781,0.6010000109672546,-2.2907696673845637
508.344828,,0.0008602794447462054,508.251,0.6100000143051147,-2.270798131752251
508.810345,,0.007216419786378106,508.717,0.5730000138282776,-2.351050565159081
509.27586199999996,,0.01081879165702042,509.175,0.5879999995231628,-2.3180315496498416
509.74137900000005,,0.012597685761618627,509.641,0.5759999752044678,-2.3438654022561023
510.20689699999997,,0.015823998917138052,510.108,0.5630000233650208,-2.3719172251137475
510.67241399999995,,0.022107918280508777,510.574,0.5659999847412109,-2.3651594715947577
511.13793100000004,,0.030047377233240365,511.039,0.5809999704360962,-2.33231327130807
511.603448,,0.036077566040786435,511.504,0.5630000233650208,-2.371422616931903
512.0689659999999,,0.03731280504537566,511.967,0.574999988079071,-2.345236347377177
512.534483,,0.033925762084575935,512.43,0.5669999718666077,-2.3626879381317214
513.0,,0.02849191713443102,512.9,0.5680000185966492,-2.3605956709434475
513.465517,,0.0230855055083815,513.363,0.5669999718666077,-2.3629222748597893
513.931034,,0.01764670378696938,513.831,0.5540000200271606,-2.3914492634541236
514.396552,,0.011202747737397182,514.293,0.5929999947547913,-2.306736594477983
514.862069,,0.003721877163885675,514.759,0.550000011920929,-2.400714392469761
515.327586,,0.003951701573202297,515.225,0.5759999752044678,-2.3443977256295683
515.793103,,0.011546696146951824,515.691,0.5920000076293945,-2.3098886437882395
516.258621,,0.019654050974041878,516.156,0.597000002861023,-2.29935370404944
516.724138,,0.027982732897437235,516.621,0.5860000252723694,-2.3236743668976687
517.189655,,0.03393707854355179,517.086,0.593999981880188,-2.3065870740632293
517.655172,,0.03425911003000891,517.545,0.5540000200271606,-2.394050953330493
518.1206900000001,,0.02870971215751028,518.012,0.5649999976158142,-2.370371271633604
518.5862070000001,,0.021347554704007635,518.478,0.5789999961853027,-2.3401142196263827
519.051724,,0.017059115061007636,518.941,0.5830000042915344,-2.3315938974071297
519.517241,,0.016805734168680166,519.411,0.5529999732971191,-2.397092168142985
519.982759,,0.017163278137376076,519.872,0.5540000200271606,-2.394993392540649
520.448276,,0.014766458677229057,520.341,0.5419999957084656,-2.4211568258224756
520.9137929999999,,0.010168360916570288,520.804,0.5669999718666077,-2.3666492855365644
521.37931,,0.006501379450257371,521.267,0.574999988079071,-2.349118229041603
521.844828,,0.005222859439775162,521.732,0.5440000295639038,-2.416497006640436
522.310345,,0.004728863960683045,522.197,0.5669999718666077,-2.366177098325642
522.7758620000001,,0.0031224935475571546,522.663,0.5979999899864197,-2.2983817361964793
523.241379,,0.0007611111520822214,523.127,0.5669999718666077,-2.365623652459025
523.7068969999999,,0.0007707639424857475,523.592,0.6039999723434448,-2.2846875155102997
524.172414,,0.0011980011167299102,524.06,0.6010000109672546,-2.2908769231430397
524.637931,,0.0017499183064854642,524.525,0.5789999961853027,-2.338451232290631
525.103448,,0.0030346826624288023,524.986,0.5860000252723694,-2.3228471276518867
525.568966,,0.004017327367601333,525.457,0.5699999928474426,-2.3573663114486605
526.034483,,0.0035202669886425643,525.919,0.5979999899864197,-2.29604986022394
526.5,,0.0017923980678541864,526.382,0.5680000185966492,-2.3611298589392704
526.9655170000001,,0.00011195956864018842,526.85,0.5680000185966492,-2.3608948696498926
527.4310340000001,,0.00030611113804784374,527.311,0.5669999718666077,-2.3628911942142
527.8965519999999,,0.0014031630613217732,527.777,0.5669999718666077,-2.3627672387129155
528.362069,,0.005418727232662457,528.24,0.6079999804496765,-2.2733803640959427
528.827586,,0.010349258969498487,528.706,0.5740000009536743,-2.347455012539303
529.293103,,0.013612802001882461,529.17,0.48100000619888306,-2.550135153721902
529.7586210000001,,0.013782854857447,529.636,0.574999988079071,-2.3454733898322235
530.224138,,0.012126331198407095,530.101,0.5699999928474426,-2.356557378871877
530.689655,,0.011046565422538521,530.567,0.6019999980926514,-2.2870825119411897
531.155172,,0.01149884047699327,531.034,0.5799999833106995,-2.3352974054286495
531.62069,,0.01272044070351835,531.5,0.6000000238418579,-2.292042274160073
532.086207,,0.01391025674428533,531.96,0.5839999914169312,-2.3272418319379216
532.5517239999999,,0.014987854706700905,532.43,0.6209999918937683,-2.2469847339587594
533.017241,,0.015810382718987367,532.893,0.5789999961853027,-2.3388412555244593
533.482759,,0.015761307044407737,533.355,0.6169999837875366,-2.2563952403655025
533.9482760000001,,0.014455680421045811,533.826,0.6060000061988831,-2.280681148773166
534.413793,,0.012233710990043936,534.289,0.6039999723434448,-2.285327264723133
534.87931,,0.009634651984140805,534.755,0.6169999837875366,-2.257252590992696
535.344828,,0.006673849832919254,535.218,0.6499999761581421,-2.185555393972209
535.810345,,0.0028840988057006857,535.684,0.6010000109672546,-2.2924512861910813
536.275862,,0.0019682769797691037,536.148,0.6209999918937683,-2.2489612243439376
536.7413789999999,,0.0072821687314013625,536.614,0.6119999885559082,-2.268590883125291
537.206897,,0.011724491871351413,537.079,0.6060000061988831,-2.2816233705785756
537.672414,,0.01405970049674708,537.545,0.6190000176429749,-2.253202268570106
538.137931,,0.014252941028072891,538.005,0.628000020980835,-2.2334395950761468
538.6034480000001,,0.013821911513122176,538.471,0.5979999899864197,-2.298593498393019
539.0689659999999,,0.014498387125447723,538.938,0.6060000061988831,-2.280915578678171
539.5344829999999,,0.016214335664079517,539.4,0.49900001287460327,-2.513749814019631
540.0,,0.017085378751992727,539.871,0.6499999761581421,-2.1844702899818667
540.465517,,0.01584727217935894,540.333,0.6029999852180481,-2.2865477847386684
540.931034,,0.01345549268034601,540.801,0.6370000243186951,-2.212147566636457
541.396552,,0.011419309283423093,541.264,0.6340000033378601,-2.2183603498019124
541.862069,,0.009308910052358508,541.729,0.6460000276565552,-2.191905516855547
542.327586,,0.005377410301983218,542.194,0.6919999718666077,-2.0913974791446344
542.7931030000001,,0.00026472444517480786,542.66,0.6359999775886536,-2.213140429823367
543.258621,,0.004596647497450145,543.126,0.6499999761581421,-2.18241606687692
543.7241379999999,,0.004876471665267964,543.592,0.6499999761581421,-2.1822385057349964
544.189655,,0.002146732566112311,544.056,0.6330000162124634,-2.2191493145792704
544.655172,,0.0003057770466450288,544.522,0.6629999876022339,-2.153719292075676
545.12069,,0.0018784954795910002,544.982,0.6460000276565552,-2.1907429773309524
545.5862070000001,,0.005833621392037239,545.452,0.6240000128746033,-2.2387183624938487
546.051724,,0.009720791863958808,545.915,0.6449999809265137,-2.193069617508918
546.517241,,0.012941010428455486,546.378,0.6340000033378601,-2.2171919380583724
546.982759,,0.01717040643241853,546.841,0.6449999809265137,-2.1934333863335675
547.448276,,0.023850764380807504,547.311,0.652999997138977,-2.176253177992325
547.9137929999999,,0.03214663755496641,547.77,0.6579999923706055,-2.1656430211412663
548.3793099999999,,0.03995709866309919,548.24,0.6520000100135803,-2.1790229024422114
548.844828,,0.046457919764005644,548.706,0.6579999923706055,-2.166274373423689
549.310345,,0.052437853676897114,549.17,0.6700000166893005,-2.1404586953323754
549.775862,,0.05769767531388256,549.636,0.6679999828338623,-2.1451382863422386
550.241379,,0.05919216370185812,550.101,0.6650000214576721,-2.151980285860917
550.706897,,0.053052698261896535,550.56,0.6570000052452087,-2.169690362272862
551.172414,,0.038434230999853346,551.027,0.7200000286102295,-2.0326814582286854
551.637931,,0.018398883155929854,551.492,0.675000011920929,-2.130923044259033
552.103448,,0.0031510462756651285,551.96,0.656000018119812,-2.172470736388277
552.568966,,0.02436702955702425,552.422,0.6460000276565552,-2.194358821831264
553.034483,,0.044922001200943945,552.89,0.6340000033378601,-2.220550555033983
553.5,,0.06387619414781188,553.353,0.6759999990463257,-2.1290400253745556
553.965517,,0.07921048488221975,553.815,0.6990000009536743,-2.0788672746614427
554.4310340000001,,0.08899805147040361,554.285,0.6629999876022339,-2.1571795049612654
554.896552,,0.09221083399063225,554.751,0.7329999804496765,-2.0045030633475043
555.3620689999999,,0.08865889741539258,555.215,0.6359999775886536,-2.2156146255271163
555.827586,,0.07894822725027231,555.681,0.6700000166893005,-2.1412853533246787
556.293103,,0.06478910426430769,556.145,0.6359999775886536,-2.215076068736812
556.758621,,0.04902871927783948,556.61,0.6919999718666077,-2.0927685410281796
557.224138,,0.034714495727397876,557.074,0.6449999809265137,-2.194851092021504
557.689655,,0.02342858462317817,557.54,0.6909999847412109,-2.0943182111970384
558.155172,,0.014287474432855711,558.004,0.6579999923706055,-2.165907159505046
558.6206900000001,,0.004945924150508935,558.47,0.6579999923706055,-2.165619152729069
559.0862070000001,,0.00580320361981335,558.93,0.6169999837875366,-2.2546845266425186
559.5517239999999,,0.016230787608978805,559.4,0.6399999856948853,-2.204354098188486
560.017241,,0.022901027566253635,559.864,0.7149999737739563,-2.0407768566361333
560.482759,,0.024084275690721975,560.326,0.640999972820282,-2.20186463721846
560.948276,,0.021697328357899528,560.792,0.6570000052452087,-2.1669250854698086
561.413793,,0.0195222367318159,561.258,0.722000002861023,-2.0252847272136103
561.87931,,0.01972573747033251,561.724,0.6349999904632568,-2.2148514488901383
562.344828,,0.02138569847157678,562.19,0.675000011920929,-2.1277822645781774
562.8103450000001,,0.022033136502558857,562.656,0.6919999718666077,-2.0908719209163147
563.275862,,0.020018589014602146,563.115,0.6399999856948853,-2.2043334423024468
563.7413789999999,,0.015439447856454238,563.581,0.6259999871253967,-2.2350478521886883
564.206897,,0.009576412909549414,564.046,0.6620000004768372,-2.156865297437167
564.672414,,0.004101188219419154,564.512,0.6890000104904175,-2.0983165757161104
565.137931,,0.0005093902123501393,564.975,0.7710000276565552,-1.9199561750801057
565.603448,,0.0006888916581366572,565.444,0.6499999761581421,-2.1838654257799974
566.068966,,0.0005963399361198302,565.912,0.593999981880188,-2.3061611117045424
566.534483,,0.000998172465430151,566.374,0.6489999890327454,-2.1866199229320036
567.0,,0.002251077956865168,566.838,0.6190000176429749,-2.25224788910821
567.465517,,0.002754520066589203,567.3,0.6259999871253967,-2.2372416615974493
567.931034,,0.0011156825889862643,567.766,0.628000020980835,-2.233096927554465
568.396552,,0.0020548651204031127,568.236,0.6660000085830688,-2.1504817487696997
568.862069,,0.005475074425446145,568.695,0.6700000166893005,-2.141894440050266
569.327586,,0.009227111866245826,569.16,0.6309999823570251,-2.22693884801877
569.793103,,0.013740775052245396,569.626,0.6209999918937683,-2.248751190588019
570.2586210000001,,0.017457287416854584,570.09,0.6060000061988831,-2.2814061593826396
570.724138,,0.01771740542633822,570.556,0.6190000176429749,-2.2530095130130503
571.189655,,0.014149195309871075,571.023,0.6190000176429749,-2.25288780967057
571.655172,,0.00957644357479503,571.488,0.6399999856948853,-2.2069699263269165
572.12069,,0.007311272263764402,571.956,0.6079999804496765,-2.2764804833190655
572.586207,,0.008486738587193985,572.419,0.6110000014305115,-2.2697052042570145
573.051724,,0.011753012445622183,572.882,0.5929999947547913,-2.3086564863590353
573.517241,,0.014495503522111498,573.345,0.6060000061988831,-2.28005267649113
573.982759,,0.014597214022081018,573.816,0.6209999918937683,-2.247082580865787
574.4482760000001,,0.012186643352701287,574.278,0.6060000061988831,-2.279470905059141
574.913793,,0.009862892272257754,574.744,0.6439999938011169,-2.196398063180258
575.37931,,0.010370669887965851,575.208,0.6000000238418579,-2.2919896551799424
575.844828,,0.013594132323985248,575.673,0.6179999709129333,-2.2525290630196313
576.310345,,0.016313386761250014,576.137,0.6449999809265137,-2.1934913343204303
576.775862,,0.015463964112269985,576.603,0.6110000014305115,-2.267387743527079
577.241379,,0.01142190177917882,577.068,0.5960000157356262,-2.299932816961151
577.706897,,0.007655837248316695,577.534,0.6050000190734863,-2.280238465077412
578.172414,,0.0073373143804948415,578.0,0.6010000109672546,-2.288917397278316
578.6379310000001,,0.010560756686272819,578.466,0.6050000190734863,-2.28021895768391
579.1034480000001,,0.014571974126918467,578.926,0.6309999823570251,-2.2236411958099827
579.5689659999999,,0.016415284862816185,579.396,0.6269999742507935,-2.2324707871027534
580.034483,,0.015439789697265142,579.856,0.6010000109672546,-2.2892752916035692
580.5,,0.013234243037428995,580.326,0.6039999723434448,-2.2829401724625153
580.965517,,0.011263831193409075,580.785,0.640999972820282,-2.2025657017609017
581.431034,,0.009232134563785577,581.255,0.5920000076293945,-2.3095823142242975
581.896552,,0.00611328210464282,581.721,0.628000020980835,-2.2314338062221606
582.362069,,0.0021427739920517413,582.186,0.5979999899864197,-2.2970880124625364
582.827586,,0.0010425792372923757,582.651,0.6209999918937683,-2.2472767742543613
583.2931030000001,,0.002234649733880387,583.116,0.6119999885559082,-2.267176368413832
583.758621,,0.002051334763201268,583.582,0.6140000224113464,-2.263095953770381
584.2241379999999,,0.0022147933931270293,584.042,0.6060000061988831,-2.2807793227155644
584.689655,,0.0035489343784441455,584.507,0.6299999952316284,-2.228715285085607
585.155172,,0.0047930392787196,584.975,0.6240000128746033,-2.2419726916339067
585.6206900000001,,0.0035178904552318805,585.437,0.5839999914169312,-2.3292612300254834
586.0862070000001,,0.0013290257838410775,585.901,0.5960000157356262,-2.3032139555201034
586.551724,,0.007361988809958508,586.37,0.5870000123977661,-2.322869902605933
587.017241,,0.009503368707179894,586.831,0.6100000143051147,-2.272758669839083
587.482759,,0.0036016413216352883,587.301,0.5759999752044678,-2.3467799360618407
587.948276,,0.010058728254852099,587.767,0.6060000061988831,-2.281318502802827
588.4137929999999,,0.026751193606027117,588.23,0.5989999771118164,-2.296420615571307
588.87931,,0.04110756661465723,588.695,0.5709999799728394,-2.3572320237569255
589.344828,,0.05116341870036669,589.16,0.5730000138282776,-2.3526481141177915
589.810345,,0.05839232154944418,589.625,0.6069999933242798,-2.2783179721704276
590.2758620000001,,0.06372190118231948,590.09,0.5730000138282776,-2.3521128862426095
590.741379,,0.06466646131873725,590.555,0.5789999961853027,-2.338747373684363
591.2068969999999,,0.05758442113848144,591.019,0.5709999799728394,-2.355877347806452
591.672414,,0.04224741840721853,591.485,0.5929999947547913,-2.307650504511222
592.137931,,0.02298812973759774,591.945,0.5950000286102295,-2.3030071138236563
592.603448,,0.005517094833910735,592.415,0.6060000061988831,-2.2787740548995425
593.068966,,0.006684411235410584,592.878,0.5830000042915344,-2.328640840530151
593.534483,,0.013503414373669687,593.341,0.6309999823570251,-2.223856253257521
594.0,,0.017111013108078284,593.812,0.6060000061988831,-2.2781509836914196
594.4655170000001,,0.019901194809652793,594.274,0.5759999752044678,-2.3433829396057257
594.9310340000001,,0.022607723123143846,594.74,0.5879999995231628,-2.3171607728905523
595.3965519999999,,0.02390080630216266,595.205,0.5879999995231628,-2.317134466325317
595.862069,,0.02189065418994568,595.671,0.5929999947547913,-2.30626776043415
596.327586,,0.015992493536569678,596.13,0.5950000286102295,-2.3019891408533137
596.793103,,0.007163866136214912,596.596,0.5849999785423279,-2.3239048318802196
597.2586210000001,,0.003374599097144294,597.061,0.574999988079071,-2.3458678745018013
597.724138,,0.014963459393643661,597.526,0.5519999861717224,-2.3961970547143423
598.189655,,0.026659409729934976,598.001,0.5649999976158142,-2.368133158347569
598.655172,,0.0358408126938957,598.459,0.574999988079071,-2.3466359573096054
599.12069,,0.0387308126419306,598.92,0.6010000109672546,-2.29030151145208
599.586207,,0.033577727746207216,599.389,0.6179999709129333,-2.253585700404075
600.0517239999999,,0.0232561362245386,599.853,0.5730000138282776,-2.3519469072741717
600.517241,,0.013278929557763275,600.315,0.5680000185966492,-2.363155149325482
600.982759,,0.006696351169266591,600.78,0.5929999947547913,-2.3089881182705647
601.448276,,0.002054889523307817,601.25,0.5690000057220459,-2.3615496162456457
601.913793,,0.0033462344049608427,601.717,0.5820000171661377,-2.3334677850172914
602.37931,,0.00983261101777363,602.175,0.6200000047683716,-2.2508783494593247
602.844828,,0.015829005581866073,602.64,0.5860000252723694,-2.3251029466027267
603.310345,,0.020379734104132418,603.105,0.5929999947547913,-2.3099500724065516
603.775862,,0.023696574632019126,603.57,0.5950000286102295,-2.305634485784349
604.2413789999999,,0.0259968803682387,604.038,0.5839999914169312,-2.3295841303430267
604.706897,,0.027318002830418787,604.503,0.6079999804496765,-2.277223711148662
605.172414,,0.028377559916445083,604.971,0.5929999947547913,-2.3097747287498205
605.637931,,0.03038611664962872,605.433,0.5709999799728394,-2.3575246024409595
606.1034480000001,,0.033605816381679296,605.901,0.5920000076293945,-2.31154653800889
606.5689659999999,,0.03681004638715664,606.363,0.5789999961853027,-2.339603062294698
607.0344829999999,,0.038651557352615065,606.831,0.5920000076293945,-2.3109826217838747
607.5,,0.03913716409438554,607.294,0.5979999899864197,-2.2975890700292174
607.965517,,0.03925372224012664,607.759,0.5709999799728394,-2.3560766695123276
608.431034,,0.03945906372404733,608.225,0.593999981880188,-2.305627893125389
608.896552,,0.03927206505907456,608.691,0.597000002861023,-2.2987578229230063
609.362069,,0.03835570987079477,609.156,0.5770000219345093,-2.342012231993193
609.827586,,0.03702618199900949,609.621,0.5799999833106995,-2.335183559275513
610.293103,,0.034888522690057176,610.086,0.5830000042915344,-2.328389511637409
610.758621,,0.029484771166269755,610.545,0.5669999718666077,-2.3630326244401414
611.2241379999999,,0.01764393945159925,611.012,0.6119999885559082,-2.2648270135812396
611.689655,,0.0011058464442029456,611.477,0.5669999718666077,-2.3627535006261446
612.155172,,0.02282000804280002,611.945,0.5699999928474426,-2.3561627117342527
612.62069,,0.04144977804226592,612.407,0.5669999718666077,-2.3627045378338503
613.0862070000001,,0.053144571426494126,612.875,0.5630000233650208,-2.37148566090957
613.551724,,0.05824544734924624,613.337,0.5699999928474426,-2.356360903211402
614.017241,,0.05920321332948312,613.801,0.5920000076293945,-2.3086111937009988
614.4827590000001,,0.05732828666271767,614.271,0.5640000104904175,-2.3698431654791565
614.948276,,0.05229125435218043,614.737,0.5809999704360962,-2.3330787782030957
615.4137929999999,,0.044153641837857235,615.201,0.5929999947547913,-2.307241871247332
615.8793099999999,,0.03449060062331667,615.667,0.5789999961853027,-2.3380746640879235
616.344828,,0.025328478463983745,616.126,0.5669999718666077,-2.3645656570085123
616.810345,,0.01786160742811291,616.592,0.5540000200271606,-2.3932411969123
617.275862,,0.01236984485322387,617.057,0.5860000252723694,-2.323873205122503
617.741379,,0.008667605079194946,617.523,0.5540000200271606,-2.3939235165001773
618.206897,,0.0062345505829820335,617.986,0.5789999961853027,-2.339765621884344
618.672414,,0.004152735930966305,618.456,0.5709999799728394,-2.357468314530704
619.137931,,0.0014069784594858098,618.919,0.5540000200271606,-2.3947356637583006
619.603448,,0.0023285934000854447,619.382,0.5759999752044678,-2.346986044862774
620.068966,,0.006202160752727732,619.845,0.515999972820282,-2.477830660457824
620.534483,,0.008879423768040509,620.315,0.625,-2.2404242721256233
621.0,,0.009982414360989648,620.78,0.5789999961853027,-2.340644910137291
621.465517,,0.010689671912109787,621.242,0.5460000038146973,-2.412479288593654
621.9310340000001,,0.012573172809801931,621.708,0.5669999718666077,-2.3666061282785997
622.396552,,0.015756695179413884,622.175,0.5540000200271606,-2.3947497189969247
622.862069,,0.018653385341747965,622.641,0.5669999718666077,-2.3661964008537817
623.327586,,0.019774537127790818,623.1,0.5440000295639038,-2.416028814821847
623.793103,,0.01914731381919539,623.566,0.5649999976158142,-2.369963695706941
624.258621,,0.01745258276526665,624.031,0.5460000038146973,-2.4110164614447833
624.724138,,0.014618759893129071,624.497,0.5669999718666077,-2.3649052947310185
625.189655,,0.010264129996008812,624.96,0.5860000252723694,-2.3231430222159344
625.655172,,0.005194495273101501,625.429,0.5230000019073486,-2.4600329379077337
626.1206900000001,,0.0016078613052695084,625.89,0.5400000214576721,-2.422646197648599
626.5862070000001,,0.0014537503814558894,626.36,0.5419999957084656,-2.4179656491063515
627.0517239999999,,0.004407481931471179,626.823,0.5329999923706055,-2.437286013851731
627.5172409999999,,0.007581228029759429,627.285,0.550000011920929,-2.400005879142811
627.982759,,0.008016165218100222,627.751,0.5210000276565552,-2.4629954331273125
628.448276,,0.005865928708783893,628.215,0.5699999928474426,-2.3561078908244837
628.913793,,0.004350687192603605,628.681,0.5440000295639038,-2.4126795787614883
629.37931,,0.005940524191782555,629.145,0.5379999876022339,-2.425741594221333
629.844828,,0.00925009105060049,629.611,0.527999997138977,-2.447582547712993
630.3103450000001,,0.010487813872940562,630.078,0.5210000276565552,-2.4629510604567892
630.7758620000001,,0.0075389004191512175,630.544,0.5270000100135803,-2.4500576809657306
631.2413789999999,,0.0018426989807194306,631.009,0.5270000100135803,-2.4502912129293986
631.706897,,0.003429430166228413,631.475,0.5379999876022339,-2.4266074069115264
632.172414,,0.006145153148762474,631.938,0.5180000066757202,-2.470500911991178
632.637931,,0.006247811021152074,632.4,0.5429999828338623,-2.4163849977595873
633.103448,,0.005037288600329599,632.868,0.5339999794960022,-2.436361858397579
633.568966,,0.003971420983873288,633.33,0.5170000195503235,-2.4737756075162394
634.034483,,0.0038661843142409496,633.801,0.527999997138977,-2.450184304672112
634.5,,0.004755438601683476,634.263,0.5120000243186951,-2.4854022790053376
634.9655170000001,,0.006184791505381999,634.729,0.5360000133514404,-2.4334492131790575
635.431034,,0.007513623980957842,635.193,0.5260000228881836,-2.455534382063325
635.8965519999999,,0.008094303428424189,635.658,0.5419999957084656,-2.4209294130327987
636.362069,,0.007450458733027975,636.123,0.5299999713897705,-2.4472732867788665
636.827586,,0.005491681487736884,636.589,0.5130000114440918,-2.4844512137465653
637.293103,,0.002698848021624702,637.053,0.5249999761581421,-2.45838564796719
637.7586210000001,,0.00011177161223106678,637.519,0.5360000133514404,-2.4344328767351024
638.224138,,0.0010760476304373116,637.982,0.5379999876022339,-2.4300211658710094
638.689655,,0.00019802867841464317,638.445,0.5669999718666077,-2.36671965521264
639.155172,,0.002338183879490959,638.915,0.5120000243186951,-2.486361735503356
639.62069,,0.005059892220501793,639.378,0.5270000100135803,-2.4534424495633536
640.086207,,0.006359247458084602,639.841,0.5419999957084656,-2.4204745015760136
640.551724,,0.005964750764197677,640.311,0.5299999713897705,-2.446289531224681
641.017241,,0.005302701601996534,640.77,0.515999972820282,-2.4764316244358
641.482759,,0.005804194087613984,641.24,0.5669999718666077,-2.3649420389446365
641.9482760000001,,0.007054444924059995,641.706,0.5270000100135803,-2.4517005874509725
642.413793,,0.007270112916105902,642.17,0.5210000276565552,-2.464388735771433
642.87931,,0.005480157956782811,642.636,0.5299999713897705,-2.444413495431354
643.344828,,0.0026500587249001723,643.101,0.5270000100135803,-2.4506091291320353
643.810345,,0.0006147574947620339,643.567,0.515999972820282,-2.4742720057057146
644.275862,,0.00019395502503833078,644.027,0.5320000052452087,-2.439158543968125
644.7413789999999,,0.0004297429560230039,644.493,0.5410000085830688,-2.419350315950013
645.206897,,0.0003208501125800051,644.956,0.4860000014305115,-2.5390368657083906
645.672414,,0.0025249913238838905,645.426,0.527999997138977,-2.4474610529074505
646.1379310000001,,0.004805500357685142,645.886,0.5540000200271606,-2.3908114075567735
646.6034480000001,,0.005241560280679306,646.356,0.5389999747276306,-2.4235530620600874
647.0689659999999,,0.0033409138648645828,646.819,0.5289999842643738,-2.4454663174526092
647.534483,,0.0005949557901471605,647.281,0.5270000100135803,-2.450012217348374
648.0,,0.0011740887001915152,647.747,0.5320000052452087,-2.4393640127036798
648.465517,,0.001961818764320981,648.212,0.5540000200271606,-2.391727149345462
648.931034,,0.0033865385335093015,648.678,0.5199999809265137,-2.46613404000578
649.396552,,0.005937306323142412,649.142,0.515999972820282,-2.4752115513836896
649.862069,,0.0073855071221862875,649.608,0.5170000195503235,-2.473415642291687
650.327586,,0.005263203508222062,650.075,0.5379999876022339,-2.428054873023028
650.7931030000001,,0.0005244261752764211,650.541,0.5379999876022339,-2.4284409036203316
651.258621,,0.0029457859467395798,651.0,0.5460000038146973,-2.4113806176784824
651.7241379999999,,0.002766369323716784,651.466,0.5379999876022339,-2.429150297822192
652.189655,,0.0005138904688865285,651.934,0.5260000228881836,-2.455595965738618
652.655172,,0.0007353601363934048,652.397,0.5339999794960022,-2.4384215647795235
653.12069,,0.00022485804181719964,652.86,0.531000018119812,-2.4451570709747625
653.5862070000001,,0.0026153434396767716,653.33,0.5379999876022339,-2.4300448932682195
654.051724,,0.0054436806029266515,653.801,0.5529999732971191,-2.3974374014813224
654.517241,,0.008031990420792199,654.256,0.5379999876022339,-2.4301205928129783
654.982759,,0.009484903989340177,654.722,0.49399998784065247,-2.5259168898615334
655.448276,,0.00904834401086275,655.186,0.5419999957084656,-2.4212126442095587
655.9137929999999,,0.007320401666995469,655.651,0.5199999809265137,-2.4689524017244757
656.37931,,0.006337013276845527,656.115,0.546999990940094,-2.409881934909597
656.844828,,0.00756260317076398,656.581,0.5370000004768372,-2.4313721510035218
657.310345,,0.009742717401715164,657.047,0.5400000214576721,-2.4244993205602556
657.7758620000001,,0.00962419559619986,657.513,0.5450000166893005,-2.413238851106958
658.241379,,0.005440269491080065,657.975,0.527999997138977,-2.449889529719244
658.7068969999999,,0.0006761921337198304,658.444,0.5230000019073486,-2.460389593854574
659.172414,,0.004362874443159783,658.908,0.5440000295639038,-2.414250043668932
659.637931,,0.003240158918192927,659.37,0.5339999794960022,-2.435665416568264
660.103448,,0.0008013593412501735,659.838,0.5320000052452087,-2.439679403324058
660.568966,,0.00380441070997396,660.301,0.550000011920929,-2.400158837715575
661.034483,,0.003927115718541811,660.767,0.5419999957084656,-2.4173304505310176
661.5,,0.0025169176948213142,661.237,0.5460000038146973,-2.4084132918651706
661.965517,,0.0010746035384107194,661.695,0.5540000200271606,-2.390842733878835
662.4310340000001,,0.0010241148194665222,662.161,0.5540000200271606,-2.390766709832268
662.8965519999999,,0.004517270914658493,662.626,0.5509999990463257,-2.397294405431628
663.362069,,0.007508132302013715,663.093,0.5460000038146973,-2.4082477649032024
663.827586,,0.007112651698648328,663.559,0.5210000276565552,-2.4628416282948917
664.293103,,0.003662553359258496,664.023,0.5630000233650208,-2.371530224722469
664.7586210000001,,0.0010280916888552275,664.489,0.5540000200271606,-2.3913875607515664
665.224138,,0.0020317927017765554,664.952,0.550000011920929,-2.4004015556738096
665.689655,,0.0051557095890683215,665.415,0.5490000247955322,-2.4029209089172734
666.155172,,0.006739803074478606,665.883,0.5339999794960022,-2.4359730695441306
666.62069,,0.005175142115468903,666.345,0.5410000085830688,-2.421115676086895
667.086207,,0.0018982481496413045,666.816,0.6019999980926514,-2.288619245280586
667.5517239999999,,0.0007358087027769622,667.278,0.5540000200271606,-2.3935898330957657
668.017241,,0.0014357100828664468,667.744,0.546999990940094,-2.409219107678182
668.482759,,0.00042861886851384057,668.208,0.5460000038146973,-2.411749355218763
668.948276,,0.0010425129663080284,668.674,0.5669999718666077,-2.3663115174354394
669.413793,,0.0017010495506989186,669.141,0.5860000252723694,-2.3251822461813703
669.87931,,0.001293083077749694,669.6,0.5490000247955322,-2.4060004315729793
670.3448279999999,,0.0009367159834245775,670.072,0.5400000214576721,-2.425754293416519
670.810345,,0.002199384204596095,670.53,0.5479999780654907,-2.4084054588890944
671.275862,,0.005351763707291011,670.997,0.5659999847412109,-2.3692012761531136
671.7413789999999,,0.008424768915072019,671.463,0.5389999747276306,-2.427966793682445
672.206897,,0.008492921749114328,671.93,0.546999990940094,-2.410412097390763
672.672414,,0.004358463069230532,672.393,0.5400000214576721,-2.4254736163587123
673.137931,,0.0020095119989560787,672.856,0.5799999833106995,-2.338080136127257
673.6034480000001,,0.006803188053502548,673.326,0.574999988079071,-2.348673132823354
674.068966,,0.0072961240641689525,673.792,0.5410000085830688,-2.422403241008972
674.5344829999999,,0.0038527788874551114,674.25,0.5370000004768372,-2.430741940800769
675.0,,0.0005897105290943413,674.715,0.546999990940094,-2.4085593817590563
675.465517,,0.0030099696726217377,675.183,0.5419999957084656,-2.4190479770853086
675.931034,,0.0024325642588529433,675.648,0.5460000038146973,-2.4099321795610558
676.396552,,9.549168504197288e-05,676.116,0.5389999747276306,-2.4247971268060757
676.862069,,0.003031904991404014,676.581,0.574999988079071,-2.346006634439883
677.327586,,0.005448730078520992,677.041,0.5379999876022339,-2.4262943754109614
677.793103,,0.007024767536477028,677.507,0.5419999957084656,-2.4173046207490403
678.2586210000001,,0.007632096763757271,677.975,0.49000000953674316,-2.530376169773095
678.7241379999999,,0.007112196037679568,678.437,0.5680000185966492,-2.3602872691424825
679.1896549999999,,0.0053130732112362695,678.905,0.492000013589859,-2.525778414394507
679.655172,,0.0024583285034132573,679.367,0.5350000262260437,-2.4320814225577823
