Trial: ,48
Threshold: ,0.0
Maximum EMG: ,0.1163197381610871
Success: ,True

EMG Time,Raw EMG,Filtered EMG,Force Time,Raw Force (V),Filtered Force (N)
0.0,samples,4.5749988737780334e-10,0.467,0.44699999690055847,-2.626405217191953
0.46551699999999996,time,4.745827270923152e-10,0.93,0.43799999356269836,-2.645999629285921
0.9310339999999999,value,4.907118318972364e-10,1.399,0.4659999907016754,-2.5849764777667836
1.396552,,5.057885251445336e-10,1.863,0.45500001311302185,-2.6089131502979668
1.862069,,5.197136195715428e-10,2.326,0.4560000002384186,-2.6066995506573485
2.327586,,5.323877487706872e-10,2.796,0.4429999887943268,-2.6349821179010395
2.793103,,5.437117136130754e-10,3.259,0.45100000500679016,-2.6175097649256958
3.258621,,5.535868430370871e-10,3.724,0.42800000309944153,-2.6675741824267587
3.724138,,5.619153685364141e-10,4.191,0.4410000145435333,-2.6392077363811173
4.189654999999999,,5.686008116044605e-10,4.656,0.46399998664855957,-2.5890563373963147
4.655172,,5.735483833137287e-10,5.115,0.45100000500679016,-2.6173381249213925
5.12069,,5.766653951301001e-10,5.581,0.45100000500679016,-2.6173007315548706
5.586207,,5.778616799829963e-10,6.048,0.45100000500679016,-2.617267936524615
6.051723999999999,,5.770500225335767e-10,6.514,0.4429999887943268,-2.6346700938317813
6.517241,,5.741465975046561e-10,6.978,0.45100000500679016,-2.6172204413242244
6.982759,,5.690714148582188e-10,7.444,0.4429999887943268,-2.6346364417099832
7.448276,,5.617487705295664e-10,7.912,0.45100000500679016,-2.617201479132739
7.913793000000001,,5.521077013515744e-10,8.374,0.48899999260902405,-2.534413789957633
8.379309999999998,,5.400824427285847e-10,8.837,0.4169999957084656,-2.6912838020639227
8.844828000000001,,5.256128875474457e-10,9.3,0.4300000071525574,-2.662976343802291
9.310345,,5.086450447434888e-10,9.77,0.4620000123977661,-2.5932819701759904
9.775862,,4.891314958721204e-10,10.233,0.43799999356269836,-2.645597575745265
10.241379,,4.670318479725944e-10,10.699,0.45100000500679016,-2.617307699533217
10.706897,,4.4231318094973884e-10,11.166,0.46399998664855957,-2.5890210577783015
11.172414,,4.149504876423296e-10,11.632,0.44699999690055847,-2.6260953534308094
11.637931,,3.8492710469377956e-10,12.097,0.4339999854564667,-2.654456006448114
12.103447999999998,,3.5223513229221316e-10,12.555,0.44699999690055847,-2.626171936361528
12.568966000000001,,3.16875840803191e-10,13.022,0.4429999887943268,-2.6349237226779496
13.034483,,2.7886006227969396e-10,13.488,0.4410000145435333,-2.639315643781064
13.5,,2.3820856480083746e-10,13.956,0.45899999141693115,-2.600130884848546
13.965517,,1.9495240756351737e-10,14.418,0.4569999873638153,-2.60451368753173
14.431034,,1.4913327463014024e-10,14.881,0.46000000834465027,-2.597996714694912
14.896552,,1.0080378522110645e-10,15.351,0.4519999921321869,-2.6154380380143416
15.362069,,5.0027778433130384e-11,15.812,0.44699999690055847,-2.626336510543231
15.827586000000002,,3.1194297358777704e-12,16.282,0.453000009059906,-2.613263169426241
16.293103,,5.855081916746614e-11,16.74,0.4519999921321869,-2.6154338731513374
16.758621,,1.1616747030591233e-10,17.21,0.45500001311302185,-2.608883630743397
17.224138,,1.7585840281805412e-10,17.676,0.4490000009536743,-2.6219356946276537
17.689655,,2.375004502720913e-10,18.14,0.45100000500679016,-2.6175538745284883
18.155172,,3.0095817283759923e-10,18.606,0.42399999499320984,-2.676349767624711
18.62069,,3.6608380995995216e-10,19.065,0.45500001311302185,-2.608782234071313
19.086207,,4.327172749042311e-10,19.53,0.44699999690055847,-2.6261809403440703
19.551724,,5.006861929963052e-10,19.996,0.44699999690055847,-2.6261500472862713
20.017241000000002,,5.698059853119633e-10,20.462,0.43799999356269836,-2.6457280038535864
20.482758999999998,,6.398799994786042e-10,20.929,0.4390000104904175,-2.64352172516939
20.948276,,7.106996891579597e-10,21.392,0.45899999141693115,-2.5999241144790854
21.413793000000002,,7.820448436725583e-10,21.86,0.4519999921321869,-2.615153016207048
21.87931,,8.536838691230849e-10,22.323,0.46799999475479126,-2.580276217988553
22.344828,,9.25374122218448e-10,22.785,0.4410000145435333,-2.639085087506509
22.810344999999998,,9.968622979052568e-10,23.255,0.43299999833106995,-2.656504736178224
23.275862,,1.0678848717385918e-09,23.721,0.4390000104904175,-2.643429164432915
23.741379,,1.1381685977815194e-09,24.185,0.45100000500679016,-2.6172873409645123
24.206897,,1.2074310626568969e-09,24.65,0.4410000145435333,-2.639080764734858
24.672414,,1.2753812962018052e-09,25.115,0.44699999690055847,-2.6260204852743203
25.137931,,1.3417204389926531e-09,25.581,0.4390000104904175,-2.643465398897944
25.603448,,1.4061424668178758e-09,26.041,0.46000000834465027,-2.597732780459751
26.068966,,1.4683349719754997e-09,26.506,0.4339999854564667,-2.65439902980979
26.534483,,1.527980001065016e-09,26.971,0.4429999887943268,-2.6348143551118692
27.0,,1.5847549487273676e-09,27.437,0.43799999356269836,-2.645731952668068
27.465517,,1.6383335065638526e-09,27.9,0.4390000104904175,-2.643577870405811
27.931034,,1.6883866662348679e-09,28.37,0.43799999356269836,-2.6457805368166794
28.396552,,1.7345837755031558e-09,28.83,0.44600000977516174,-2.62837362727446
28.862069,,1.7765936457441662e-09,29.299,0.4650000035762787,-2.5869984986676853
29.327586,,1.8140857091988975e-09,29.77,0.43799999356269836,-2.6458370746371886
29.793103000000002,,1.8467312239928146e-09,30.225,0.4490000009536743,-2.621882721776271
30.258620999999998,,1.8742045246888297e-09,30.691,0.4429999887943268,-2.6349611136074182
30.724138,,1.8961843158836417e-09,31.156,0.4490000009536743,-2.6218910887393134
31.189655000000002,,1.9123550060957585e-09,31.622,0.4390000104904175,-2.643674998254287
31.655172000000004,,1.9224080789310803e-09,32.089,0.4519999921321869,-2.6153458098796336
32.12069,,1.9260434982488797e-09,32.554,0.4399999976158142,-2.6414788772488818
32.586207,,1.9229711437882963e-09,33.018,0.45899999141693115,-2.6000702998753495
33.051724,,1.9129122734540198e-09,33.484,0.45100000500679016,-2.6174819958092677
33.517241000000006,,1.8956010082006523e-09,33.952,0.44699999690055847,-2.626176745083293
33.982759,,1.870785835199327e-09,34.415,0.44200000166893005,-2.6370490047692754
34.448276,,1.8382311247185821e-09,34.878,0.45899999141693115,-2.599990779096909
34.913793,,1.797718655905329e-09,35.34,0.45100000500679016,-2.6173990410513555
35.37931,,1.7490491464121202e-09,35.811,0.4429999887943268,-2.634808731792754
35.844828,,1.6920437805849492e-09,36.274,0.4410000145435333,-2.6391491536570295
36.310345,,1.6265457307026715e-09,36.739,0.44600000977516174,-2.6282426952055546
36.775862,,1.5524216655459778e-09,37.202,0.4490000009536743,-2.6216975280760906
37.241378999999995,,1.4695632403718981e-09,37.667,0.4569999873638153,-2.6042631767704676
37.706897000000005,,1.3778885621802366e-09,38.133,0.44699999690055847,-2.6260486021496607
38.172414,,1.277343623982372e-09,38.599,0.42399999499320984,-2.6761613773189583
38.637931,,1.1679037016217054e-09,39.063,0.4490000009536743,-2.621704315993966
39.103448,,1.0495747065499263e-09,39.529,0.460999995470047,-2.5955739761305687
39.568965999999996,,9.223944878353871e-10,39.996,0.47699999809265137,-2.560731521975125
40.034483,,7.864340765704428e-10,40.461,0.45399999618530273,-2.610857873707537
40.5,,6.417988657548045e-10,40.922,0.503000020980835,-2.504121869849836
40.965517,,4.886297186629494e-10,41.385,0.45100000500679016,-2.617428878748072
41.431034,,3.271039986565567e-10,41.855,0.46700000762939453,-2.582587165377165
41.896552,,1.5743651337892578e-10,42.318,0.4519999921321869,-2.6152831581772222
42.362069000000005,,2.0119633731544067e-11,42.782,0.46299999952316284,-2.5913332514466574
42.827586000000004,,2.0527229164642985e-10,43.252,0.4309999942779541,-2.6610642490295064
43.293103,,3.976896166570586e-10,43.71,0.4390000104904175,-2.6436485105637
43.758621,,5.969995408965186e-10,44.175,0.4560000002384186,-2.6066237155514806
44.224138,,8.02789361274834e-10,44.641,0.43799999356269836,-2.645849391716363
44.689655,,1.0146054554927676e-09,45.107,0.4429999887943268,-2.6349636770112768
45.155172,,1.23195313163465e-09,45.573,0.44999998807907104,-2.619717806955554
45.620689999999996,,1.4542966176452685e-09,46.038,0.4429999887943268,-2.6349696144715367
46.086206999999995,,1.6810591967695782e-09,46.504,0.4410000145435333,-2.63932464906777
46.551724,,1.9116234947762865e-09,46.971,0.4429999887943268,-2.63496177143346
47.017241,,2.1453319244967684e-09,47.436,0.46299999952316284,-2.5913792750062603
47.482759,,2.3814872928889613e-09,47.896,0.39399999380111694,-2.741693370446837
47.948276,,2.6193535754816143e-09,48.366,0.4569999873638153,-2.604423800413037
48.413793,,2.858156862667378e-09,48.829,0.453000009059906,-2.6131209896671472
48.879310000000004,,3.0970864818937073e-09,49.292,0.4519999921321869,-2.615279009478747
49.344828,,3.3352962993484814e-09,49.758,0.4429999887943268,-2.634863703098588
49.810345,,3.571906204252833e-09,50.223,0.4560000002384186,-2.6065163645218177
50.275862,,3.806003778357251e-09,50.689,0.43700000643730164,-2.6478848957930534
50.741379,,4.0366461526890464e-09,51.156,0.43799999356269836,-2.645680851210063
51.206897,,4.2628620530203166e-09,51.615,0.4440000057220459,-2.6325849356897733
51.672414,,4.483654034916365e-09,52.081,0.44699999690055847,-2.6260269815271196
52.137931,,4.698000908585971e-09,52.547,0.43799999356269836,-2.645615523309761
52.603448,,4.904860353087963e-09,53.011,0.4429999887943268,-2.634706630781899
53.068966,,5.103171718754418e-09,53.477,0.4359999895095825,-2.649945933561819
53.534483,,5.291859015970762e-09,53.941,0.453000009059906,-2.6129024055831067
54.0,,5.4698340877084795e-09,54.41,0.43799999356269836,-2.6455806821316266
54.465517,,5.635999962438797e-09,54.874,0.4429999887943268,-2.6346912923746793
54.931034,,5.789254383267119e-09,55.336,0.4490000009536743,-2.621628613113544
55.396552,,5.928493508320301e-09,55.804,0.41100001335144043,-2.704432187632163
55.862069,,6.052615776593866e-09,56.267,0.4390000104904175,-2.6434511160001977
56.327586,,6.160525932626366e-09,56.733,0.4390000104904175,-2.6434775069868124
56.793102999999995,,6.251139202515559e-09,57.196,0.43799999356269836,-2.6456866165667967
57.258621000000005,,6.323385612928418e-09,57.661,0.47200000286102295,-2.571645469694755
57.724138,,6.376214443886741e-09,58.126,0.460999995470047,-2.59564404936454
58.189655,,6.408598805235278e-09,58.592,0.4429999887943268,-2.6348927540612896
58.655172,,6.419540325822513e-09,59.055,0.5239999890327454,-2.458453137281742
59.120689999999996,,6.408073943548756e-09,59.521,0.44999998807907104,-2.619699930448749
59.586207,,6.3732727835651665e-09,59.989,0.44699999690055847,-2.626258997064588
60.051724,,6.3142531110439125e-09,60.455,0.4560000002384186,-2.606671443855195
60.517241,,6.23017934408742e-09,60.915,0.4560000002384186,-2.6066881311491255
60.982758999999994,,6.120269111507009e-09,61.385,0.4410000145435333,-2.6393806322194755
61.448276,,5.983798339381864e-09,61.848,0.4690000116825104,-2.578387097043357
61.913793,,5.820106349511859e-09,62.311,0.48399999737739563,-2.5457106259527444
62.379310000000004,,5.628600952106038e-09,62.779,0.4790000021457672,-2.5566006763550475
62.84482800000001,,5.408763514306517e-09,63.241,0.4339999854564667,-2.6546312616516645
63.310345000000005,,5.160153985439051e-09,63.707,0.4690000116825104,-2.578365818979157
63.775862000000004,,4.882415859210448e-09,64.174,0.44699999690055847,-2.62627987778962
64.241379,,4.57528105244352e-09,64.639,0.47600001096725464,-2.563079329358972
64.706897,,4.238574679356303e-09,65.104,0.4339999854564667,-2.654560257931652
65.172414,,3.872219699857937e-09,65.57,0.43799999356269836,-2.645822166591084
65.637931,,3.4762414198528984e-09,66.03,0.43799999356269836,-2.6457988922411917
66.103448,,3.050771821122256e-09,66.495,0.45100000500679016,-2.6174536096592615
66.56896599999999,,2.5960536979892843e-09,66.967,0.4350000023841858,-2.6522899546466987
67.03448300000001,,2.1124445776810735e-09,67.425,0.43799999356269836,-2.6457334733077027
67.5,,1.600420401071583e-09,67.893,0.4410000145435333,-2.6391788874880615
67.965517,,1.0605789403387403e-09,68.356,0.4399999976158142,-2.6413410235551598
68.431034,,4.936429299923723e-10,68.826,0.4519999921321869,-2.6151826349191016
68.896552,,9.95371122654239e-11,69.289,0.44699999690055847,-2.6260629372289204
69.362069,,7.179803982969315e-10,69.754,0.45399999618530273,-2.6108010017582735
69.827586,,1.360573739175598e-09,70.218,0.4429999887943268,-2.634756359848014
70.293103,,2.0260697947291515e-09,70.684,0.44699999690055847,-2.6260337470161215
70.75862099999999,,2.7130857256248085e-09,71.149,0.4429999887943268,-2.634742284606354
71.22413800000001,,3.4201022701856096e-09,71.614,0.43799999356269836,-2.6456315075625776
71.689655,,4.1454632675714e-09,72.081,0.4399999976158142,-2.641272433345455
72.15517200000001,,4.8873756483013424e-09,72.547,0.44699999690055847,-2.626022190940232
72.62069,,5.6439099123350846e-09,73.011,0.4399999976158142,-2.641274856205359
73.086207,,6.413001114065092e-09,73.477,0.43799999356269836,-2.6456361994655015
73.551724,,7.192450372601706e-09,73.937,0.4390000104904175,-2.643463569325957
74.017241,,7.97992692465413e-09,74.407,0.46399998664855957,-2.5890049050250616
74.482759,,8.7729707361239e-09,74.867,0.4569999873638153,-2.6042635197169575
74.94827599999999,,9.568995687232053e-09,75.336,0.43799999356269836,-2.645666599721418
75.41379300000001,,1.0365293344597186e-08,75.8,0.46399998664855957,-2.589031559986175
75.87931,,1.1159037332168948e-08,76.262,0.4830000102519989,-2.5476471379449137
76.344828,,1.19472883113013e-08,76.728,0.4410000145435333,-2.6391601948125665
76.810345,,1.2726999578522893e-08,77.192,0.3869999945163727,-2.7568193230035205
77.275862,,1.3495023287729899e-08,77.658,0.4359999895095825,-2.650081748648504
77.741379,,1.4248117301591574e-08,78.122,0.44699999690055847,-2.626135868950559
78.206897,,1.4982952674922977e-08,78.589,0.4300000071525574,-2.6631939182876323
78.67241399999999,,1.569612177064591e-08,79.055,0.4569999873638153,-2.6043927609047217
79.137931,,1.638414700673121e-08,79.521,0.45100000500679016,-2.617487183566248
79.603448,,1.7043490230197178e-08,79.986,0.43799999356269836,-2.6458318861147605
80.068966,,1.7670562711834563e-08,80.445,0.44999998807907104,-2.619709827209238
80.53448300000001,,1.826173575284267e-08,80.915,0.46000000834465027,-2.597943495495748
81.0,,1.8813351891999535e-08,81.377,0.4569999873638153,-2.6044970285680398
81.465517,,1.9321736699357366e-08,81.845,0.44600000977516174,-2.6284765653232838
81.931034,,1.9783211139758875e-08,82.307,0.4410000145435333,-2.639381205894733
82.396552,,2.0194104486717842e-08,82.771,0.44699999690055847,-2.6263175324824966
82.86206899999999,,2.055076776440532e-08,83.24,0.43799999356269836,-2.645929962478254
83.327586,,2.084958769263933e-08,83.706,0.44699999690055847,-2.6263227808535836
83.79310299999999,,2.108700110689904e-08,84.171,0.45100000500679016,-2.6176043910000315
84.258621,,2.1259509822482897e-08,84.637,0.4519999921321869,-2.615417028078632
84.72413800000001,,2.136369590901364e-08,85.096,0.45100000500679016,-2.6175818005448535
85.189655,,2.1396237338570876e-08,85.562,0.45100000500679016,-2.617562972687579
85.65517200000001,,2.1353923967814382e-08,86.027,0.46299999952316284,-2.5913954526693623
86.12069,,2.1233673811559196e-08,86.492,0.4480000138282776,-2.62404678430316
86.586207,,2.103254956238746e-08,86.955,0.46399998664855957,-2.589156109729719
87.051724,,2.074777530804382e-08,87.425,0.45100000500679016,-2.617442912908149
87.517241,,2.0376753395572217e-08,87.889,0.44699999690055847,-2.6261198876251206
87.98275899999999,,1.9917081388424572e-08,88.352,0.44999998807907104,-2.619545671274319
88.448276,,1.9366569060118258e-08,88.815,0.4359999895095825,-2.6500091671936175
88.913793,,1.872325536545229e-08,89.284,0.4399999976158142,-2.6412591890422332
89.37931,,1.798542532782443e-08,89.75,0.45899999141693115,-2.5998325830481557
89.844828,,1.715162677883629e-08,90.213,0.4519999921321869,-2.615054302858733
90.310345,,1.6220686884143965e-08,90.679,0.4429999887943268,-2.6346378443524174
90.775862,,1.519172838742149e-08,91.144,0.45399999618530273,-2.6106540402164122
91.241379,,1.4064185502366568e-08,91.61,0.4650000035762787,-2.586676198759217
91.706897,,1.2837819380906308e-08,92.07,0.3970000147819519,-2.734818861090973
92.17241399999999,,1.1512733084168457e-08,92.535,0.44600000977516174,-2.6280686384981538
92.63793100000001,,1.0089385981384455e-08,93.0,0.44999998807907104,-2.619366163828605
93.103448,,8.56860750069768e-09,93.466,0.4429999887943268,-2.634636152687071
93.568966,,6.9516101548768085e-09,93.934,0.4390000104904175,-2.643377362290659
94.03448300000001,,5.2400017641931056e-09,94.396,0.4569999873638153,-2.6041948937604102
94.5,,3.4357967982244774e-09,94.867,0.4429999887943268,-2.634734453402479
94.965517,,1.541426758110551e-09,95.329,0.46000000834465027,-2.5977399844381246
95.431034,,4.4025047918611215e-10,95.797,0.45500001311302185,-2.6086785130864913
95.896552,,2.5059424327458054e-09,96.26,0.4650000035762787,-2.5869384362569994
96.36206899999999,,4.6519149832139124e-09,96.725,0.45100000500679016,-2.617485703515121
96.827586,,6.87398660860291e-09,97.191,0.46700000762939453,-2.582672020987618
97.293103,,9.167523965779133e-09,97.65,0.45100000500679016,-2.617572361438388
97.758621,,1.1527438891499578e-08,98.122,0.47600001096725464,-2.5631439501215927
98.224138,,1.3948186894994545e-08,98.58,0.414000004529953,-2.6982533921241507
98.689655,,1.642376721188511e-08,99.052,0.4569999873638153,-2.6046001243213537
99.155172,,1.8947724486673533e-08,99.51,0.4390000104904175,-2.643838825360645
99.62069,,2.1513152148144002e-08,99.975,0.43700000643730164,-2.6482127974428105
100.086207,,2.41126975387559e-08,100.441,0.4480000138282776,-2.624257490993047
100.551724,,2.6738568855498122e-08,100.911,0.4560000002384186,-2.6068303760375544
101.017241,,2.93825439556986e-08,101.374,0.4359999895095825,-2.6503972377813327
101.482759,,3.2035981076946386e-08,101.837,0.4410000145435333,-2.639490060385814
101.948276,,3.46898315155844e-08,102.307,0.4359999895095825,-2.6503621985054053
102.413793,,3.733465430317026e-08,102.767,0.43799999356269836,-2.6459768517300497
102.87931,,3.996063291488292e-08,103.237,0.4429999887943268,-2.63504916146835
103.344828,,4.255759403807802e-08,103.695,0.44600000977516174,-2.6284727367866925
103.810345,,4.51150284230704e-08,104.16,0.4569999873638153,-2.6044617306487567
104.275862,,4.7622113831753804e-08,104.626,0.44999998807907104,-2.6196616423616548
104.741379,,5.006774009286525e-08,105.092,0.43700000643730164,-2.647930282092895
105.206897,,5.244053626557316e-08,105.558,0.45100000500679016,-2.617374092954148
105.672414,,5.472889990562674e-08,106.026,0.4749999940395355,-2.565030877269714
106.13793100000001,,5.6921028420561e-08,106.491,0.4650000035762787,-2.5867617674071206
106.603448,,5.9004952492423017e-08,106.952,0.42100000381469727,-2.68256927454502
107.068966,,6.096857153818569e-08,107.415,0.44699999690055847,-2.625876918177278
107.534483,,6.279969116946438e-08,107.885,0.43799999356269836,-2.645444431342505
108.0,,6.448606260436797e-08,108.347,0.43700000643730164,-2.6475911192124864
108.46551699999999,,6.601542397532122e-08,108.815,0.4429999887943268,-2.6344969803287803
108.931034,,6.737554346751198e-08,109.277,0.4490000009536743,-2.621412992730141
109.396552,,6.855426421326992e-08,109.743,0.43799999356269836,-2.645376765944685
109.862069,,6.953955085819944e-08,110.205,0.4819999933242798,-2.5495252667862887
110.32758600000001,,7.031953770529539e-08,110.671,0.45100000500679016,-2.6170820322967496
110.793103,,7.088257833359619e-08,111.138,0.43799999356269836,-2.645433097590036
111.258621,,7.121729657820581e-08,111.603,0.453000009059906,-2.61279212162047
111.724138,,7.13126387487767e-08,112.07,0.43700000643730164,-2.647698640906402
112.189655,,7.115792695382328e-08,112.536,0.46399998664855957,-2.5889312664781103
112.655172,,7.07429133885663e-08,113.0,0.45100000500679016,-2.6173158697842056
113.12069,,7.005783543442867e-08,113.466,0.4410000145435333,-2.6391691665899577
113.586207,,6.909347140885126e-08,113.926,0.45500001311302185,-2.608738067756495
114.051724,,6.784119679481144e-08,114.396,0.4390000104904175,-2.6436676091904645
114.51724100000001,,6.629304077034915e-08,114.859,0.4399999976158142,-2.641559555583729
114.982759,,6.444174284957535e-08,115.321,0.44999998807907104,-2.6198410342983873
115.448276,,6.228080943809834e-08,115.789,0.45899999141693115,-2.600295850964242
115.913793,,5.98045700975977e-08,116.251,0.4410000145435333,-2.6395666819213854
116.37931,,5.700823330644736e-08,116.717,0.43799999356269836,-2.646149134929517
116.84482799999999,,5.388794149588195e-08,117.181,0.4410000145435333,-2.6396496394863807
117.310345,,5.044082513425969e-08,117.647,0.44600000977516174,-2.628781409894669
117.77586199999999,,4.666505562554504e-08,118.115,0.4230000078678131,-2.6789029624207696
118.241379,,4.2559896782260184e-08,118.58,0.44699999690055847,-2.6266151898582213
118.70689700000001,,3.81257546278808e-08,119.04,0.4399999976158142,-2.6418519375159484
119.172414,,3.336422527902375e-08,119.506,0.45100000500679016,-2.6178589867841437
119.63793100000001,,2.8278140653836553e-08,119.971,0.43700000643730164,-2.648318666047526
120.103448,,2.287161174979425e-08,120.436,0.45899999141693115,-2.6003341341195285
120.568966,,1.7150069231682202e-08,120.9,0.44999998807907104,-2.619875693837864
121.034483,,1.1120301068935012e-08,121.37,0.4569999873638153,-2.6045483245609824
121.5,,4.7904869607538905e-09,121.833,0.45899999141693115,-2.6001055981589087
121.96551699999999,,1.8297707124231462e-09,122.296,0.4359999895095825,-2.6501231669363463
122.431034,,8.729419671433506e-09,122.763,0.4399999976158142,-2.641314667564436
122.896552,,1.5895934513154544e-08,123.225,0.4300000071525574,-2.6630080308352078
123.362069,,2.3315297732715196e-08,123.691,0.44699999690055847,-2.625881520439834
123.827586,,3.097198524423207e-08,124.156,0.4429999887943268,-2.634512675230487
124.293103,,3.884895664595724e-08,124.622,0.460999995470047,-2.595221720109098
124.758621,,4.692765046943424e-08,125.089,0.4490000009536743,-2.621300572790574
125.22413800000001,,5.518798464484241e-08,125.555,0.4480000138282776,-2.6234269848405996
125.68965500000002,,6.360836240614553e-08,126.015,0.46299999952316284,-2.590709702939882
126.15517200000001,,7.216568384992976e-08,126.48,0.4490000009536743,-2.621189115046211
126.62069000000001,,8.083536335090217e-08,126.948,0.44699999690055847,-2.625542040605497
127.086207,,8.959135302491295e-08,127.411,0.45399999618530273,-2.610305227405275
127.55172400000001,,9.840617241705245e-08,127.881,0.4390000104904175,-2.6430169022431977
128.017241,,1.0725094457785488e-07,128.344,0.44699999690055847,-2.6256377275540617
128.48275900000002,,1.160954386749137e-07,128.808,0.4440000057220459,-2.6322406281807504
128.948276,,1.2490811927028141e-07,129.27,0.45500001311302185,-2.608357540618587
129.413793,,1.3365620237589886e-07,129.736,0.4339999854564667,-2.654204285407154
129.87931,,1.4230571837998873e-07,130.206,0.4399999976158142,-2.6412382454115817
130.344828,,1.5082158191687244e-07,130.672,0.4440000057220459,-2.6326374043346594
130.81034499999998,,1.591676687310509e-07,131.137,0.4129999876022339,-2.700294181952117
131.275862,,1.6730689956365634e-07,131.595,0.4440000057220459,-2.6328763420001278
131.741379,,1.752013310655675e-07,132.062,0.43799999356269836,-2.646066033117701
132.206897,,1.8281225371662172e-07,132.528,0.45899999141693115,-2.6004250373228617
132.67241399999997,,1.9010029670449822e-07,132.993,0.44999998807907104,-2.6201321903686234
133.13793099999998,,1.9702553969003542e-07,133.459,0.49399998784065247,-2.524355322837451
133.60344800000001,,2.035476313580385e-07,133.922,0.43799999356269836,-2.646424399250298
134.06896600000002,,2.0962591462408883e-07,134.392,0.4129999876022339,-2.7009357986700673
134.53448300000002,,2.152195583385515e-07,134.852,0.453000009059906,-2.6138148164377664
135.0,,2.2028769529896163e-07,135.321,0.4790000021457672,-2.557172136199617
135.465517,,2.2478956635133135e-07,135.782,0.45500001311302185,-2.609437246364777
135.931034,,2.2868467032973905e-07,136.251,0.45100000500679016,-2.6181055591790425
136.396552,,2.3193291955192925e-07,136.71,0.43799999356269836,-2.6463597835944603
136.862069,,2.3449480055665875e-07,137.175,0.45100000500679016,-2.617949241419647
137.327586,,2.3633153973626978e-07,137.641,0.45100000500679016,-2.6178435149059047
137.793103,,2.374052734855571e-07,138.107,0.4399999976158142,-2.6416882820007803
138.258621,,2.3767922245553454e-07,138.573,0.44999998807907104,-2.619770511382513
138.724138,,2.3711786946830916e-07,139.037,0.43799999356269836,-2.6457760632528453
139.189655,,2.3568714061705537e-07,139.502,0.4440000057220459,-2.632563331839438
139.655172,,2.33354589043172e-07,139.967,0.44999998807907104,-2.619352303006086
140.12069,,2.3008958085122698e-07,140.434,0.44200000166893005,-2.6366480879513596
140.586207,,2.2586348259137947e-07,140.896,0.4390000104904175,-2.6430608987084474
141.05172399999998,,2.2064984970875325e-07,141.366,0.45100000500679016,-2.616808264676853
141.51724099999998,,2.1442461532985278e-07,141.829,0.43799999356269836,-2.645039559202078
141.982759,,2.071662787277081e-07,142.292,0.43799999356269836,-2.644969405525689
142.44827600000002,,1.9885609278014824e-07,142.758,0.4339999854564667,-2.653637652845813
142.913793,,1.8947824970958309e-07,143.224,0.43799999356269836,-2.644902262147802
143.37931,,1.790200643680644e-07,143.69,0.453000009059906,-2.6122278915150376
143.844828,,1.6747215430835055e-07,144.155,0.44200000166893005,-2.6362243348184062
144.310345,,1.548286158603631e-07,144.621,0.453000009059906,-2.6123156139542667
144.77586200000002,,1.410871954129487e-07,145.085,0.4320000112056732,-2.658147582244421
145.241379,,1.2624945508339507e-07,145.551,0.43799999356269836,-2.6451782428121864
145.706897,,1.1032093194184453e-07,146.011,0.43799999356269836,-2.6453001930968103
146.172414,,9.331128994475081e-08,146.477,0.43799999356269836,-2.6454378984701665
146.637931,,7.523446372098113e-08,146.94,0.4429999887943268,-2.634693922706728
147.103448,,5.6108793346218715e-08,147.41,0.45100000500679016,-2.6174206519634864
147.568966,,3.595714923611121e-08,147.87,0.44699999690055847,-2.6262928298094605
148.034483,,1.4807046286274881e-08,148.34,0.45500001311302185,-2.609017752169502
148.5,,7.309253612064033e-09,148.8,0.43799999356269836,-2.6462008664983983
148.965517,,3.03546515482038e-08,149.27,0.4429999887943268,-2.635441353850162
149.43103399999998,,5.4287134920228874e-08,149.735,0.4830000102519989,-2.548411879944347
149.89655199999999,,7.905971496531732e-08,150.198,0.4729999899864197,-2.570292630659307
150.362069,,1.0462037932809966e-07,150.664,0.4429999887943268,-2.6357211445883073
150.82758600000003,,1.3091206048558144e-07,151.129,0.453000009059906,-2.613977339725736
151.293103,,1.5787262082597542e-07,151.595,0.4399999976158142,-2.642315222517139
151.758621,,1.8543485515386734e-07,152.06,0.4390000104904175,-2.6444816471174906
152.224138,,2.13526511365388e-07,152.526,0.4390000104904175,-2.644442325049006
152.68965500000002,,2.4207033000441974e-07,152.985,0.43799999356269836,-2.646555618273178
153.155172,,2.7098410337427794e-07,153.451,0.4440000057220459,-2.6333939559133674
153.62069,,3.0018075483873564e-07,153.919,0.45899999141693115,-2.600602210040388
154.086207,,3.2956843890167674e-07,154.381,0.45899999141693115,-2.60047043183795
154.551724,,3.590506626060544e-07,154.845,0.4690000116825104,-2.578535784597998
155.017241,,3.885264287401953e-07,155.314,0.45500001311302185,-2.608876747979694
155.482759,,4.1789040128284195e-07,155.778,0.4429999887943268,-2.6348538818426483
155.948276,,4.47033093457692e-07,156.24,0.4350000023841858,-2.6521157237135196
156.413793,,4.758410787036243e-07,156.706,0.46000000834465027,-2.5974867599039726
156.87931,,5.041972247983466e-07,157.171,0.44699999690055847,-2.625655605587933
157.34482799999998,,5.319809513009463e-07,157.636,0.4650000035762787,-2.5862998646252757
157.81034499999998,,5.590685104028553e-07,158.104,0.4429999887943268,-2.6341081228926693
158.275862,,5.853332911971777e-07,158.569,0.46000000834465027,-2.596971047911768
158.741379,,6.106461472932913e-07,159.033,0.4359999895095825,-2.649184225201977
159.20689700000003,,6.34875747617268e-07,159.499,0.4339999854564667,-2.6534957500558853
159.672414,,6.578889501491331e-07,159.963,0.43799999356269836,-2.644766073900022
160.137931,,6.795511982554815e-07,160.429,0.4320000112056732,-2.6578542301939567
160.60344800000001,,6.99726939180686e-07,160.892,0.4440000057220459,-2.6317576811795913
161.06896600000002,,7.182800641620934e-07,161.355,0.47699999809265137,-2.559938142394664
161.534483,,7.350743695344419e-07,161.823,0.4519999921321869,-2.6145056784732215
162.0,,7.499740380865145e-07,162.285,0.45100000500679016,-2.616808358733235
162.465517,,7.628441398290238e-07,162.751,0.44699999690055847,-2.6256666907974027
162.931034,,7.735511512272255e-07,163.221,0.45100000500679016,-2.61711123754032
163.396552,,7.819634918450631e-07,163.68,0.44200000166893005,-2.6368889806199944
163.862069,,7.879520772401057e-07,164.152,0.45899999141693115,-2.600027369265148
164.327586,,7.913908868404925e-07,164.61,0.4429999887943268,-2.635061145634375
164.793103,,7.921575454268987e-07,165.081,0.45100000500679016,-2.6178020213177318
165.258621,,7.901339167345822e-07,165.54,0.44699999690055847,-2.626676282261861
165.72413799999998,,7.852067075832384e-07,166.005,0.44699999690055847,-2.6268205051957625
166.189655,,7.772680808361012e-07,166.471,0.4650000035762787,-2.5877288226656625
166.655172,,7.66216275384902e-07,166.941,0.45100000500679016,-2.618329394198254
167.12069,,7.519562312543761e-07,167.403,0.45899999141693115,-2.6009720521602655
167.58620699999997,,7.344002178194288e-07,167.866,0.44699999690055847,-2.6271578584079163
168.051724,,7.134684630303033e-07,168.336,0.4440000057220459,-2.633704967533181
168.517241,,6.890897814466088e-07,168.8,0.4339999854564667,-2.655471891133468
168.98275900000002,,6.612021987903355e-07,169.263,0.43799999356269836,-2.6467076787851553
169.44827600000002,,6.297535706414944e-07,169.728,0.4490000009536743,-2.6226641175106993
169.913793,,5.947021928182703e-07,170.192,0.5049999952316284,-2.500553248067175
170.37931,,5.560174009070521e-07,170.658,0.45500001311302185,-2.6093527764454616
170.844828,,5.13680156336914e-07,171.124,0.45100000500679016,-2.6179130249487232
171.310345,,4.6768361632855434e-07,171.59,0.4429999887943268,-2.6351723666123488
171.775862,,4.18033684989865e-07,172.051,0.45899999141693115,-2.6001338549334103
172.241379,,3.6474954277969066e-07,172.517,0.43799999356269836,-2.6457006277628383
172.706897,,3.0786415151844486e-07,172.982,0.4429999887943268,-2.6346239015182418
173.172414,,2.4742473208955795e-07,173.447,0.44999998807907104,-2.619196985718363
173.637931,,1.8349321194972257e-07,173.915,0.44999998807907104,-2.619032837967325
174.103448,,1.1614663954904088e-07,174.377,0.45100000500679016,-2.616707178372953
174.568966,,4.5477562754920667e-08,174.841,0.45100000500679016,-2.6165819284153633
175.034483,,2.8405631623644182e-08,175.311,0.4519999921321869,-2.614303677453523
175.5,,1.0537842010151814e-07,175.771,0.4269999861717224,-2.6686995008321857
175.96551699999998,,1.8529988943857285e-07,176.24,0.44699999690055847,-2.6250880822576654
176.43103399999998,,2.6801253104713283e-07,176.706,0.4490000009536743,-2.620725312371305
176.896552,,3.533420856693068e-07,177.166,0.4490000009536743,-2.6207525780401344
177.36206900000002,,4.4109744104883953e-07,177.632,0.4429999887943268,-2.6338837879620733
177.827586,,5.310705852509065e-07,178.096,0.44200000166893005,-2.6361521907112406
178.293103,,6.230366181995294e-07,178.562,0.43299999833106995,-2.6558779092978466
178.758621,,7.167538239057701e-07,179.028,0.45100000500679016,-2.616804568414871
179.224138,,8.119638057503566e-07,179.494,0.45399999618530273,-2.6104305387240863
179.68965500000002,,9.083916870617375e-07,179.955,0.4650000035762787,-2.5866411622329393
180.155172,,1.0057463790946193e-06,180.425,0.43700000643730164,-2.647827634441442
180.62069,,1.1037209183647258e-06,180.889,0.45500001311302185,-2.6087995832287705
181.086207,,1.201992875132782e-06,181.351,0.44200000166893005,-2.637307359953909
181.551724,,1.3002248346545751e-06,181.819,0.453000009059906,-2.6135194025258843
182.01724099999998,,1.3980649526244208e-06,182.282,0.45100000500679016,-2.618040193590115
182.482759,,1.4951475860365598e-06,182.748,0.453000009059906,-2.613827431062132
182.948276,,1.5910940004731007e-06,183.211,0.4390000104904175,-2.644449878433808
183.413793,,1.6855131545982772e-06,183.676,0.453000009059906,-2.614043435725902
183.87931,,1.7780025623972918e-06,184.141,0.45100000500679016,-2.6184655004798527
184.34482799999998,,1.8681492334441662e-06,184.607,0.453000009059906,-2.6141408144891085
184.81034499999998,,1.9555306912171913e-06,185.074,0.4399999976158142,-2.6424629387281167
185.27586200000002,,2.039716069203202e-06,185.54,0.45899999141693115,-2.6010353913298436
185.74137900000002,,2.1202672842434654e-06,186.005,0.45100000500679016,-2.6183991238461246
186.206897,,2.19674028627504e-06,186.47,0.45399999618530273,-2.6117674410458362
186.672414,,2.2686863833126227e-06,186.933,0.46299999952316284,-2.592036325650959
187.137931,,2.335653640197866e-06,187.395,0.45399999618530273,-2.611496983380947
187.60344800000001,,2.397188349316591e-06,187.863,0.45500001311302185,-2.6091518933624966
188.06896600000002,,2.4528365711501085e-06,188.325,0.37599998712539673,-2.7810864050793307
188.534483,,2.502145742185799e-06,188.793,0.4169999957084656,-2.691578192538268
189.0,,2.5446663473651474e-06,189.255,0.4690000116825104,-2.5781046315528693
189.465517,,2.5799536538955275e-06,189.721,0.45100000500679016,-2.617139524315674
189.931034,,2.6075695028962574e-06,190.192,0.44699999690055847,-2.6256815020529034
190.39655199999999,,2.627084154990887e-06,190.65,0.44200000166893005,-2.6364160587582735
190.862069,,2.638078185597486e-06,191.115,0.4519999921321869,-2.614489728306532
191.327586,,2.640144425308105e-06,191.58,0.45899999141693115,-2.5991219547145796
191.793103,,2.6328899403888145e-06,192.045,0.47699999809265137,-2.5598144155685647
192.25862099999998,,2.6159380480741757e-06,192.511,0.4390000104904175,-2.6425393363768768
192.72413799999998,,2.5889303609759246e-06,192.978,0.44699999690055847,-2.6250775011454643
193.189655,,2.5515288545765972e-06,193.444,0.4350000023841858,-2.651221368913683
193.655172,,2.503417951436137e-06,193.907,0.4429999887943268,-2.6338252707806658
194.12069000000002,,2.4443066154047725e-06,194.37,0.4390000104904175,-2.6426049134638996
194.586207,,2.373930448810145e-06,194.838,0.43799999356269836,-2.6448787959653832
195.051724,,2.2920537852723618e-06,195.307,0.4440000057220459,-2.6319292967488352
195.517241,,2.198471770498976e-06,195.771,0.43700000643730164,-2.647325689094944
195.98275900000002,,2.0930124231244215e-06,196.233,0.43799999356269836,-2.6453120186378762
196.448276,,1.9755386673868486e-06,196.698,0.4779999852180481,-2.5583444091384098
196.913793,,1.8459503291812427e-06,197.163,0.4309999942779541,-2.66092653730308
197.37931,,1.7041860867928195e-06,197.629,0.4429999887943268,-2.6349708004847847
197.844828,,1.5502253674006642e-06,198.093,0.43799999356269836,-2.64604926565606
198.310345,,1.3840901802500632e-06,198.559,0.46000000834465027,-2.5982952431152984
198.775862,,1.2058468772246226e-06,199.025,0.45100000500679016,-2.6180644821913583
199.241379,,1.0156078314077265e-06,199.491,0.48899999260902405,-2.535416599160312
199.706897,,8.135330241087751e-07,199.952,0.44999998807907104,-2.620499267240454
200.172414,,5.998315307445521e-07,200.415,0.4560000002384186,-2.607514449433863
200.63793099999998,,3.74762895911545e-07,200.885,0.4569999873638153,-2.6053926310800994
201.103448,,1.386383879626148e-07,201.348,0.4569999873638153,-2.605417368641839
201.568966,,1.0817787658746152e-07,201.811,0.45100000500679016,-2.6184813682281773
202.034483,,3.6526794845695994e-07,202.281,0.4440000057220459,-2.6336921914081834
202.5,,6.321592103396698e-07,202.74,0.4410000145435333,-2.6401583080409585
202.965517,,9.083237004218352e-07,203.21,0.4350000023841858,-2.653132914515673
203.431034,,1.193177603941797e-06,203.676,0.45100000500679016,-2.6181527167785985
203.896552,,1.4860809218618918e-06,204.141,0.3610000014305115,-2.8140897954275803
204.36206900000002,,1.7863373254825989e-06,204.6,0.4519999921321869,-2.615677436575362
204.827586,,2.093194205547536e-06,205.067,0.453000009059906,-2.6133323441988847
205.293103,,2.405842924063904e-06,205.533,0.46399998664855957,-2.589192641778389
205.758621,,2.72341927669567e-06,206.0,0.43799999356269836,-2.645659850851337
206.224138,,3.0450041731755877e-06,206.465,0.45100000500679016,-2.617162412448316
206.689655,,3.3696245427266854e-06,206.926,0.43799999356269836,-2.6453179580726784
207.155172,,3.696254470983771e-06,207.396,0.45100000500679016,-2.616841513831007
207.62069,,4.023816574360731e-06,207.859,0.43799999356269836,-2.6450274406679624
208.086207,,4.351183617219875e-06,208.321,0.4410000145435333,-2.6383765209979804
208.551724,,4.677180376565509e-06,208.789,0.46700000762939453,-2.581641328212127
209.01724099999998,,5.000585758305637e-06,209.252,0.4490000009536743,-2.620793232431079
209.482759,,5.320135168403717e-06,209.717,0.4390000104904175,-2.642544681580768
209.948276,,5.634523141477374e-06,210.181,0.44699999690055847,-2.6251108689490072
210.413793,,5.942406228593835e-06,210.647,0.4390000104904175,-2.642565942263645
210.87930999999998,,6.242406145163584e-06,211.112,0.4440000057220459,-2.6317284731413575
211.344828,,6.53311317894565e-06,211.577,0.42800000309944153,-2.666671113247622
211.810345,,6.813089857251387e-06,212.045,0.4429999887943268,-2.6341018662227524
212.27586200000002,,7.080874871470416e-06,212.51,0.5529999732971191,-2.3945815651386644
212.741379,,7.33498725604417e-06,212.974,0.4569999873638153,-2.603877138708373
213.206897,,7.573930817981467e-06,213.44,0.4399999976158142,-2.6410713575035216
213.672414,,7.796198811948891e-06,213.9,0.43700000643730164,-2.6477745019283008
214.137931,,8.000278854878956e-06,214.37,0.45899999141693115,-2.6000167936777503
214.60344800000001,,8.184658072923775e-06,214.833,0.453000009059906,-2.613260982541866
215.068966,,8.347828472444075e-06,215.296,0.4300000071525574,-2.663537395856903
215.534483,,8.488292525566006e-06,215.767,0.4440000057220459,-2.6331948720677945
216.0,,8.604568959664573e-06,216.229,0.4410000145435333,-2.639875854794574
216.465517,,8.695198738946092e-06,216.695,0.4429999887943268,-2.635645758737841
216.93103399999998,,8.758751225106652e-06,217.159,0.44699999690055847,-2.6270365526053463
217.39655199999999,,8.793830502842821e-06,217.625,0.43799999356269836,-2.646724910069857
217.862069,,8.799081854789043e-06,218.09,0.45500001311302185,-2.609740921774068
218.327586,,8.773198369257346e-06,218.555,0.45100000500679016,-2.618479127135098
218.793103,,8.714927662963744e-06,219.015,0.45500001311302185,-2.609757509869636
219.25862099999998,,8.62307869974644e-06,219.48,0.44699999690055847,-2.6271492548718163
219.724138,,8.496528685118487e-06,219.948,0.4390000104904175,-2.6445117509853255
220.18965500000002,,8.334230015356727e-06,220.411,0.44699999690055847,-2.626988800780231
220.65517200000002,,8.135217258714673e-06,220.881,0.45500001311302185,-2.609440916830197
221.12069,,7.89861414526455e-06,221.344,0.43799999356269836,-2.6463376192496826
221.586207,,7.623640540828286e-06,221.807,0.43799999356269836,-2.6461799294847363
222.051724,,7.309619379454112e-06,222.27,0.4490000009536743,-2.62204431664314
222.517241,,6.955983527940099e-06,222.736,0.43799999356269836,-2.645830863841754
222.98275900000002,,6.5622825550037144e-06,223.206,0.4390000104904175,-2.643470670744662
223.448276,,6.128189376852955e-06,223.672,0.43799999356269836,-2.6454703154490913
223.913793,,5.653506750135378e-06,224.13,0.4480000138282776,-2.6235121560566763
224.37931,,5.138173582531855e-06,224.596,0.4429999887943268,-2.6342459222009076
224.844828,,4.582271030627741e-06,225.062,0.44699999690055847,-2.625388402627258
225.31034499999998,,3.986028354140866e-06,225.528,0.43799999356269836,-2.6448742623248878
225.775862,,3.349828495118743e-06,225.993,0.4560000002384186,-2.605561011898449
226.241379,,2.674213350342132e-06,226.459,0.4580000042915344,-2.6011329840944315
226.706897,,1.9598887048938067e-06,226.922,0.44200000166893005,-2.6359495756030586
227.172414,,1.2077287946752887e-06,227.385,0.45100000500679016,-2.616330645454653
227.63793099999998,,4.187804655854378e-07,227.856,0.43799999356269836,-2.644673510099766
228.103448,,4.0573310288199074e-07,228.318,0.45100000500679016,-2.6164026543830405
228.56896600000002,,1.2644091417046987e-06,228.782,0.4350000023841858,-2.6513426795605626
229.03448300000002,,2.1556625358637048e-06,229.252,0.4390000104904175,-2.6427378805710573
229.5,,3.077723598735544e-06,229.71,0.45399999618530273,-2.6101930852905557
229.965517,,4.0286364082034054e-06,230.175,0.4490000009536743,-2.621242079131434
230.431034,,5.0062577346764295e-06,230.64,0.4440000057220459,-2.6323075896406887
230.896552,,6.008256590400502e-06,231.107,0.45500001311302185,-2.608526468162726
231.362069,,7.032114428498472e-06,231.573,0.4490000009536743,-2.6217887820347454
231.827586,,8.075126019090123e-06,232.037,0.4620000123977661,-2.593657427472203
232.293103,,9.134401028610133e-06,232.503,0.4429999887943268,-2.6352381649162684
232.758621,,1.0206866327063952e-05,232.967,0.45500001311302185,-2.609270803940282
233.224138,,1.1289269046435436e-05,233.433,0.4519999921321869,-2.6159682727747238
233.689655,,1.2378180411785394e-05,233.896,0.43799999356269836,-2.646611270178349
234.155172,,1.3470000364756387e-05,234.366,0.4429999887943268,-2.635836684158735
234.62069,,1.4560962997226295e-05,234.829,0.4490000009536743,-2.62285654856238
235.086207,,1.5647142810731873e-05,235.292,0.46399998664855957,-2.590238329071243
235.55172399999998,,1.6724461815015002e-05,235.758,0.44200000166893005,-2.6381975203081054
236.01724099999998,,1.7788697476630237e-05,236.224,0.4519999921321869,-2.616406739412292
236.482759,,1.883549152599481e-05,236.69,0.45100000500679016,-2.618547746694192
236.94827600000002,,1.9860359628564615e-05,237.156,0.44699999690055847,-2.627192211704921
237.413793,,2.085870192298525e-05,237.621,0.4440000057220459,-2.633627464349894
237.87931,,2.1825814426100228e-05,238.081,0.44600000977516174,-2.6291417748994927
238.344828,,2.2756901301603677e-05,238.546,0.44699999690055847,-2.6268105057291637
238.810345,,2.3647087985907997e-05,239.011,0.4390000104904175,-2.6440670253320584
239.27586200000002,,2.4491435161463927e-05,239.477,0.43799999356269836,-2.6460581616118186
239.741379,,2.5284953564328502e-05,239.944,0.45899999141693115,-2.60010911455633
240.206897,,2.6022619609232658e-05,240.407,0.44999998807907104,-2.61951464177313
240.672414,,2.66993918117633e-05,240.875,0.46399998664855957,-2.588811767286821
241.137931,,2.7310227983553197e-05,241.337,0.44699999690055847,-2.6256533037651573
241.603448,,2.7850103172575842e-05,241.8,0.43799999356269836,-2.645078229997855
242.068966,,2.8314028316781767e-05,242.27,0.43799999356269836,-2.6449139077245105
242.534483,,2.869706957539858e-05,242.736,0.45500001311302185,-2.6077358472541965
243.0,,2.8994368298260996e-05,243.198,0.4560000002384186,-2.6054431801704365
243.465517,,2.9201161589551348e-05,243.664,0.44600000977516174,-2.627145888706859
243.93103399999998,,2.9312803418328773e-05,244.125,0.4429999887943268,-2.633631499427527
244.39655199999999,,2.9324786224219873e-05,244.591,0.4399999976158142,-2.6401525277597084
244.862069,,2.9232762962649294e-05,245.056,0.44200000166893005,-2.635816660350417
245.327586,,2.9032569530019986e-05,245.521,0.4440000057220459,-2.6315167445363556
245.793103,,2.8720247505325343e-05,245.989,0.44999998807907104,-2.6185366184557037
246.258621,,2.8292067140804522e-05,246.455,0.36000001430511475,-2.814740080190096
246.724138,,2.7744550530454365e-05,246.915,0.46399998664855957,-2.5883169318254864
247.18965500000002,,2.707449488150338e-05,247.385,0.4440000057220459,-2.6320711233816225
247.655172,,2.6278995810351955e-05,247.848,0.4429999887943268,-2.634449572456617
248.12069,,2.5355470581005905e-05,248.311,0.44200000166893005,-2.6368410901401664
248.586207,,2.4301681200695376e-05,248.782,0.4950000047683716,-2.5215915412792604
249.051724,,2.3115757284196327e-05,249.244,0.45399999618530273,-2.6111334118984026
249.517241,,2.1796218595375124e-05,249.71,0.43700000643730164,-2.6483805495245085
249.982759,,2.034199717167671e-05,250.174,0.4429999887943268,-2.6355068679671483
250.44827600000002,,1.875245893469195e-05,250.639,0.45100000500679016,-2.618257995939371
250.913793,,1.7027424687588524e-05,251.103,0.45100000500679016,-2.618414792132859
251.37931000000003,,1.5167190398090659e-05,251.569,0.43799999356269836,-2.6468659175137077
251.844828,,1.3172546663864204e-05,252.035,0.36399999260902405,-2.8081844813735306
252.31034499999998,,1.1044797255623727e-05,252.501,0.4429999887943268,-2.6361380334308664
252.77586200000002,,8.785776632044937e-06,252.963,0.44699999690055847,-2.6274546570463184
253.241379,,6.397866319656719e-06,253.429,0.4569999873638153,-2.6056607281723023
253.706897,,3.884010050319543e-06,253.897,0.49000000953674316,-2.533717886736494
254.172414,,1.247727548687853e-06,254.359,0.43799999356269836,-2.6469210229722626
254.63793099999998,,1.5068731377806838e-06,254.822,0.45100000500679016,-2.6184759847703476
255.10344800000001,,4.3750848731506485e-06,255.292,0.4449999928474426,-2.631393412700521
255.56896600000002,,7.351592337590262e-06,255.75,0.46000000834465027,-2.5985312964921485
256.03448299999997,,1.0430464706750335e-05,256.219,0.4569999873638153,-2.6048619418992662
256.5,,1.3605150208670676e-05,256.685,0.4339999854564667,-2.6547487671906422
256.965517,,1.6868472658687656e-05,257.151,0.4399999976158142,-2.641445305230985
257.431034,,2.0212630070104755e-05,257.61,0.43799999356269836,-2.645568731498498
257.896552,,2.362919543521044e-05,258.075,0.43799999356269836,-2.6453394132277004
258.362069,,2.71091197675758e-05,258.54,0.4399999976158142,-2.6407641839119345
258.827586,,3.0642737492430625e-05,259.008,0.4560000002384186,-2.6057054145532796
259.29310300000003,,3.421977426729486e-05,259.474,0.45100000500679016,-2.616421320066934
259.758621,,3.7829357309927875e-05,259.937,0.4259999990463257,-2.670739042132946
260.224138,,4.146002830504781e-05,260.407,0.4230000078678131,-2.67716092923711
260.689655,,4.509975895516663e-05,260.867,0.4440000057220459,-2.6313334902431538
261.155172,,4.873596923428234e-05,261.336,0.4569999873638153,-2.6029749589087015
261.62068999999997,,5.235554839607151e-05,261.8,0.44699999690055847,-2.6247655380434782
262.086207,,5.5944878780635566e-05,262.262,0.42500001192092896,-2.672740759232946
262.551724,,5.9489862455780464e-05,262.728,0.460999995470047,-2.5943944671355834
263.017241,,6.297595072025803e-05,263.192,0.36399999260902405,-2.8058471167912393
263.482759,,6.63881764873788e-05,263.658,0.45899999141693115,-2.5990353854315082
263.94827599999996,,6.971118955793249e-05,264.122,0.43700000643730164,-2.6471558448960546
264.413793,,7.29292947814369e-05,264.587,0.4339999854564667,-2.6539057824090104
264.87931,,7.602649309439711e-05,265.053,0.43799999356269836,-2.64542293233994
265.34482799999995,,7.898652541350984e-05,265.518,0.4440000057220459,-2.632593462929252
265.810345,,8.179291935061676e-05,265.986,0.45899999141693115,-2.6001590445856904
266.27586199999996,,8.442903870471578e-05,266.451,0.46000000834465027,-2.5982204280286862
266.741379,,8.687813567450771e-05,266.914,0.45100000500679016,-2.6180557835085345
267.206897,,8.912340572281423e-05,267.377,0.4359999895095825,-2.650944291989232
267.672414,,9.114804501178198e-05,267.845,0.4440000057220459,-2.6336993681281733
268.137931,,9.293531031511845e-05,268.307,0.46299999952316284,-2.5924590199450352
268.603448,,9.446858130072341e-05,268.775,0.4390000104904175,-2.644865182289935
269.06896600000005,,9.57314250640208e-05,269.237,0.44699999690055847,-2.6275160814155414
269.53448299999997,,9.670766277909969e-05,269.703,0.4169999957084656,-2.6929153756603386
270.0,,9.738143832148037e-05,270.166,0.45500001311302185,-2.610125253633419
270.465517,,9.773728870297552e-05,270.632,0.4490000009536743,-2.6231537484755902
270.931034,,9.77602161457621e-05,271.099,0.4440000057220459,-2.6339623596344324
271.396552,,9.743576160946457e-05,271.565,0.4519999921321869,-2.6164099696331133
271.86206899999996,,9.675007957182379e-05,272.03,0.44699999690055847,-2.6271448740545527
272.327586,,9.56900138504381e-05,272.496,0.43799999356269836,-2.646564161268449
272.793103,,9.424317424016822e-05,272.963,0.4440000057220459,-2.633279341716515
273.258621,,9.239801372814738e-05,273.422,0.45100000500679016,-2.617797688080364
273.724138,,9.01439060359917e-05,273.89,0.43799999356269836,-2.6458775596539263
274.18965499999996,,8.747122322681673e-05,274.352,0.45100000500679016,-2.617308347954058
274.655172,,8.43714131030949e-05,274.815,0.44999998807907104,-2.6192432644983104
275.12069,,8.083707611029345e-05,275.286,0.4269999861717224,-2.6691189176195693
275.586207,,7.686204145067426e-05,275.751,0.46399998664855957,-2.588293269242588
276.051724,,7.244144210167542e-05,276.215,0.453000009059906,-2.6120661141443993
276.517241,,6.757178842399221e-05,276.68,0.44999998807907104,-2.618438811251725
276.98275900000004,,6.225104003589197e-05,277.145,0.44600000977516174,-2.6270243766349117
277.448276,,5.647867562249786e-05,277.61,0.4749999940395355,-2.5637525404809103
277.913793,,5.025576034181874e-05,278.07,0.4399999976158142,-2.639954661441173
278.37931,,4.358501048325028e-05,278.536,0.4620000123977661,-2.5920162412389107
278.844828,,3.647085502918493e-05,279.001,0.4440000057220459,-2.631266931987706
279.31034500000004,,2.891949376630704e-05,279.466,0.45899999141693115,-2.598664447763013
279.77586199999996,,2.093895159017098e-05,279.93,0.42899999022483826,-2.6641416165408995
280.241379,,1.253912864482349e-05,280.399,0.45100000500679016,-2.616366557462645
280.706897,,3.7318459385920692e-06,280.863,0.45100000500679016,-2.6165546352525277
281.172414,,5.469113922227225e-06,281.325,0.45100000500679016,-2.616769626876459
281.637931,,1.504797123813435e-05,281.796,0.44699999690055847,-2.625719896678197
282.10344799999996,,2.4986919312726785e-05,282.259,0.44600000977516174,-2.6281480331304947
282.568966,,3.526610048895597e-05,282.725,0.44999998807907104,-2.619689473743583
283.034483,,4.586358846764691e-05,283.191,0.45899999141693115,-2.600336135023811
283.5,,5.6755377242995835e-05,283.657,0.4440000057220459,-2.6332611034176097
283.965517,,6.791537698064625e-05,284.116,0.43799999356269836,-2.646562148208658
284.431034,,7.931541715327562e-05,284.581,0.4410000145435333,-2.6402326384914243
284.89655200000004,,9.092525723637353e-05,285.048,0.4480000138282776,-2.625159486261232
285.362069,,0.00010271260525303273,285.514,0.4490000009536743,-2.6231233311076694
285.827586,,0.00011464314444108743,285.978,0.47600001096725464,-2.5644021709455553
286.293103,,0.00012668056829880239,286.444,0.453000009059906,-2.614569547331549
286.758621,,0.00013878662424653205,286.907,0.44200000166893005,-2.6385478136160616
287.22413800000004,,0.00015092116612132862,287.37,0.45100000500679016,-2.618907842749866
287.689655,,0.00016304221569937905,287.841,0.45500001311302185,-2.6101164562430115
288.155172,,0.00017510603341740408,288.303,0.43799999356269836,-2.647034241606527
288.62069,,0.00018706719843876853,288.771,0.4390000104904175,-2.6446976966679347
289.086207,,0.00019887869818305254,289.234,0.4519999921321869,-2.616183485373519
289.55172400000004,,0.00021049202740924277,289.699,0.45100000500679016,-2.618141456626062
290.01724099999996,,0.00022185729691255506,290.166,0.46399998664855957,-2.5895756092566993
290.482759,,0.000232923351863237,290.625,0.49799999594688416,-2.5152413869515953
290.948276,,0.0002436378997825643,291.09,0.45500001311302185,-2.6086535480923603
291.413793,,0.00025394764811669456,291.555,0.4429999887943268,-2.634527466001266
291.87931,,0.00026379845133313995,292.022,0.4410000145435333,-2.638624122189848
292.344828,,0.0002731354674274316,292.488,0.44600000977516174,-2.6274878445177166
292.81034500000004,,0.000281903323689155,292.955,0.43799999356269836,-2.6446990566201545
293.275862,,0.0002900462915370163,293.418,0.44699999690055847,-2.6249049825084856
293.74137900000005,,0.00029750847019205086,293.881,0.4410000145435333,-2.6378281070667438
294.206897,,0.00030423397891660484,294.351,0.45899999141693115,-2.5985055897277385
294.672414,,0.00031016715750441617,294.812,0.44699999690055847,-2.624587381500136
295.13793100000004,,0.00031525277466410724,295.281,0.46399998664855957,-2.5875351013645957
295.603448,,0.0003194362438948008,295.747,0.4359999895095825,-2.6485694741620973
296.068966,,0.0003226638464085131,296.209,0.4490000009536743,-2.620326360835223
296.534483,,0.0003248829606095994,296.675,0.4129999876022339,-2.6988827321354543
297.0,,0.0003260422975969727,297.141,0.4429999887943268,-2.6336907156574973
297.46551700000003,,0.00032609214211023416,297.6,0.43799999356269836,-2.644788539730106
297.931034,,0.00032498459829640467,298.067,0.43799999356269836,-2.6450236881079117
298.396552,,0.0003226738396297917,298.532,0.43799999356269836,-2.6452823300248696
298.862069,,0.0003191163622738358,298.997,0.4399999976158142,-2.6411992054538387
299.327586,,0.0003142712411307279,299.462,0.4569999873638153,-2.6044430959850415
299.79310300000003,,0.00030810038778235685,299.925,0.4399999976158142,-2.641758728727069
300.258621,,0.0003005688094849214,300.395,0.48100000619888306,-2.5527013787417228
300.724138,,0.00029164486833950504,300.856,0.45100000500679016,-2.618307918755524
301.189655,,0.00028130053972226916,301.325,0.4399999976158142,-2.6424928706978066
301.65517200000005,,0.000269511669020857,301.785,0.4410000145435333,-2.640500910336161
302.12069,,0.00025625822568832473,302.255,0.4490000009536743,-2.62321966273104
302.586207,,0.00024152455359262488,302.72,0.45899999141693115,-2.6015372063763795
303.05172400000004,,0.00022529961660856318,303.184,0.45899999141693115,-2.6015935524589446
303.517241,,0.00020757723837044043,303.65,0.44699999690055847,-2.627744276323029
303.982759,,0.00018835633507747806,304.114,0.45100000500679016,-2.6189873388247897
304.448276,,0.00016764114022081508,304.58,0.43799999356269836,-2.647219805398209
304.913793,,0.0001454414200805558,305.045,0.4519999921321869,-2.6165839268061233
305.37931000000003,,0.00012177267882424432,305.511,0.38100001215934753,-2.771093534221767
305.844828,,9.665635202444057e-05,305.971,0.46299999952316284,-2.592236358695674
306.310345,,7.01199874029667e-05,306.436,0.43799999356269836,-2.646466087439891
306.775862,,4.219741160307318e-05,306.904,0.46299999952316284,-2.591740810655881
307.241379,,1.2928881788423436e-05,307.367,0.46299999952316284,-2.5914665970531567
307.70689699999997,,1.7638779130407096e-05,307.837,0.44699999690055847,-2.626043733854467
308.172414,,4.94520648351075e-05,308.3,0.4659999907016754,-2.584369921282017
308.637931,,8.245068668707822e-05,308.77,0.4490000009536743,-2.621137671260639
309.103448,,0.00011656749473051438,309.226,0.4560000002384186,-2.605636521590132
309.568966,,0.00015172841975848603,309.692,0.4440000057220459,-2.6315563814778433
310.034483,,0.0001878524375644624,310.159,0.44699999690055847,-2.6248304423099484
310.5,,0.0002248515564717835,310.624,0.45100000500679016,-2.6159657004042627
310.96551700000003,,0.0002626308291985018,311.089,0.46399998664855957,-2.587537337113983
311.431034,,0.0003010883900747043,311.554,0.45500001311302185,-2.6070863293125575
311.896552,,0.00034011551858380404,312.019,0.4490000009536743,-2.620148814824093
312.362069,,0.0003795967301482992,312.484,0.421999990940094,-2.679013669022256
312.827586,,0.00041940989502408196,312.948,0.4659999907016754,-2.5832443611988944
313.29310300000003,,0.00045942638610551933,313.41,0.45100000500679016,-2.6160617807856625
313.758621,,0.0004995112563762051,313.881,0.4390000104904175,-2.642385612986053
314.224138,,0.0005395234466675111,314.344,0.4390000104904175,-2.6426033491620773
314.689655,,0.0005793160243088706,314.812,0.43799999356269836,-2.6450311179789336
315.155172,,0.0006187364531701567,315.274,0.4519999921321869,-2.6148026487612577
315.62068999999997,,0.0006576268955076459,315.74,0.43799999356269836,-2.645591290193174
316.086207,,0.0006958245459309766,316.202,0.4519999921321869,-2.6153838491230124
316.551724,,0.0007331619977093315,316.668,0.45100000500679016,-2.617852892067118
317.017241,,0.0007694676415309393,317.133,0.4440000057220459,-2.6333815415242037
317.482759,,0.0008045660967210634,317.599,0.45100000500679016,-2.6183882960636273
317.94827599999996,,0.0008382786748101104,318.066,0.44200000166893005,-2.638224645708199
318.413793,,0.0008704238752255629,318.525,0.4440000057220459,-2.634060043281049
318.87931000000003,,0.0009008179127593521,318.996,0.4390000104904175,-2.6451042895053694
319.344828,,0.0009292752763363037,319.455,0.41600000858306885,-2.695318291129648
319.810345,,0.0009556093184796979,319.926,0.5019999742507935,-2.5080095459530494
320.275862,,0.0009796328747370944,320.388,0.4569999873638153,-2.606049834655913
320.741379,,0.0010011589121937314,320.852,0.44200000166893005,-2.638676875773878
321.20689699999997,,0.0010200012060623679,321.322,0.44600000977516174,-2.629858645821174
321.672414,,0.0010359750431977962,321.785,0.492000013589859,-2.5294885574327943
322.137931,,0.0010488979512418182,322.248,0.46299999952316284,-2.5924719628547677
322.603448,,0.0010585904519606936,322.713,0.45500001311302185,-2.609664891546708
323.068966,,0.0010648768371923944,323.178,0.5419999957084656,-2.4198539891215525
323.53448299999997,,0.0010675859656759162,323.643,0.43799999356269836,-2.6461401070570107
324.0,,0.0010665520788899238,324.107,0.45500001311302185,-2.6087959227533655
324.465517,,0.0010616156338836662,324.573,0.4429999887943268,-2.6346302825862686
324.931034,,0.0010526241509399355,325.041,0.4560000002384186,-2.6060057010161723
325.396552,,0.0010394330737684406,325.506,0.453000009059906,-2.6122562968540417
325.86206899999996,,0.0010219066397889034,325.967,0.44600000977516174,-2.6272473824677567
326.327586,,0.0009999187579270796,326.432,0.4449999928474426,-2.629201093859637
326.793103,,0.0009733538912143578,326.9,0.45100000500679016,-2.6159459050283815
327.258621,,0.0009421079413532608,327.363,0.34299999475479126,-2.851106128984075
327.724138,,0.0009060891322876899,327.826,0.4519999921321869,-2.613554889643236
328.189655,,0.0008652188896987837,328.296,0.46299999952316284,-2.589566762042539
328.655172,,0.0008194327132354805,328.762,0.4569999873638153,-2.602669409880995
329.12068999999997,,0.000768681038183937,329.226,0.46399998664855957,-2.5875020190516156
329.586207,,0.0007129300831825587,329.691,0.4429999887943268,-2.633386685343172
330.051724,,0.0006521626805002103,330.155,0.45899999141693115,-2.5987072349350546
330.517241,,0.0005863790853148832,330.621,0.46399998664855957,-2.588032787306468
330.982759,,0.000515597760359373,331.086,0.4339999854564667,-2.6536439853309823
331.44827599999996,,0.0004398561322400517,331.552,0.4429999887943268,-2.634313642816742
331.913793,,0.0003592113156852513,332.011,0.45500001311302185,-2.6084642907708777
332.37931,,0.0002737408019417572,332.476,0.44999998807907104,-2.6196592107004983
332.844828,,0.00018354310751209213,332.944,0.4490000009536743,-2.62213702388839
333.310345,,8.873837941229203e-05,333.407,0.45899999141693115,-2.6006378257860017
333.77586199999996,,1.0531046869645295e-05,333.875,0.43700000643730164,-2.648834452897139
334.241379,,0.00011410014052001061,334.337,0.4399999976158142,-2.6425362290125403
334.706897,,0.00022178072342676484,334.8,0.45100000500679016,-2.6187727514507873
335.17241399999995,,0.0003333610768204644,335.27,0.45100000500679016,-2.6189316299493544
335.637931,,0.00044860561020140105,335.735,0.4490000009536743,-2.6233998955099755
336.103448,,0.0005672545961497443,336.198,0.4180000126361847,-2.6909982607960883
336.56896600000005,,0.0006890239745233576,336.664,0.44600000977516174,-2.6300044942030296
337.034483,,0.0008136052294394364,337.129,0.43799999356269836,-2.64738972297025
337.5,,0.0009406653423103437,337.595,0.4880000054836273,-2.5383610724587977
337.965517,,0.0010698468240599164,338.06,0.4519999921321869,-2.6166461623398782
338.431034,,0.001200767829484249,338.526,0.492000013589859,-2.5293080311012925
338.89655200000004,,0.0013330223565423795,338.985,0.43799999356269836,-2.6467235787183374
339.36206899999996,,0.0014661805331680604,339.45,0.38499999046325684,-2.7619307190971334
339.827586,,0.0015997889939803544,339.92,0.4230000078678131,-2.6788616582678024
340.293103,,0.0017333713490337952,340.382,0.45500001311302185,-2.608853289741825
340.758621,,0.0018664287464921106,340.845,0.43799999356269836,-2.6455951287901733
341.224138,,0.001998440530845145,341.315,0.4390000104904175,-2.643126810492811
341.68965499999996,,0.0021288649980187838,341.778,0.4429999887943268,-2.6341374942468065
342.155172,,0.0022571402484296353,342.24,0.4560000002384186,-2.605563278511355
342.62069,,0.0023826851386880357,342.706,0.49399998784065247,-2.522552459370954
343.086207,,0.0025049003322847427,343.171,0.4410000145435333,-2.6378344693240057
343.551724,,0.002623169449278565,343.637,0.4300000071525574,-2.661656448323793
344.01724099999996,,0.0027368603147293925,344.104,0.4519999921321869,-2.613631679231113
344.48275900000004,,0.002845326305247016,344.569,0.45100000500679016,-2.6157668053182763
344.948276,,0.002947907792445278,345.034,0.4440000057220459,-2.6310259889805825
345.413793,,0.0030439336815226005,345.5,0.4560000002384186,-2.604942764093417
345.87931,,0.0031327230430275394,345.967,0.4519999921321869,-2.613767698561903
346.344828,,0.003213586835977434,346.425,0.4440000057220459,-2.6313535654337894
346.81034500000004,,0.0032858297199652837,346.893,0.4560000002384186,-2.6054081144972057
347.275862,,0.0033487519522640732,347.356,0.46399998664855957,-2.588212245154554
347.741379,,0.003401651364742371,347.826,0.4429999887943268,-2.6342247120750653
348.206897,,0.0034438254167849245,348.288,0.46399998664855957,-2.5887535644444233
348.672414,,0.0034745733229488364,348.754,0.4620000123977661,-2.5934018292237604
349.13793100000004,,0.0034931982522417174,349.218,0.45100000500679016,-2.617659375129898
349.60344799999996,,0.003499009588185629,349.684,0.4650000035762787,-2.5874431410691057
350.068966,,0.0034913252354268416,350.149,0.46399998664855957,-2.589890002299327
350.534483,,0.0034694739707837813,350.614,0.44600000977516174,-2.629348943415799
351.0,,0.0034327978522785663,351.081,0.46399998664855957,-2.590344580384554
351.465517,,0.003380654686225589,351.547,0.43299999833106995,-2.658055645687782
351.93103399999995,,0.003312420508524407,352.006,0.4580000042915344,-2.6037190776881327
352.396552,,0.003227492027996152,352.471,0.47699999809265137,-2.5624064273636002
352.862069,,0.0031252890623567962,352.941,0.4560000002384186,-2.6081884277974083
353.32758600000005,,0.003005257079608093,353.403,0.44999998807907104,-2.621239066874814
353.793103,,0.0028668698521550936,353.871,0.45399999618530273,-2.612452774462186
354.258621,,0.002709631977004127,354.333,0.44600000977516174,-2.629762251392164
354.72413800000004,,0.0025330810289232934,354.796,0.4560000002384186,-2.607811870038913
355.189655,,0.0023367896457208354,355.266,0.4480000138282776,-2.6250379342242764
355.655172,,0.002120368240919127,355.725,0.4339999854564667,-2.6553034767579384
356.12069,,0.00188346826001808,356.191,0.46399998664855957,-2.5896832845808215
356.586207,,0.001625784460046256,356.657,0.4390000104904175,-2.6438713000127656
357.05172400000004,,0.0013470551477973833,357.122,0.453000009059906,-2.6130832827532604
357.517241,,0.0010470626291290794,357.588,0.45500001311302185,-2.6084390122916847
357.982759,,0.0007256378303608164,358.055,0.45899999141693115,-2.5994458770297615
358.448276,,0.00038266759512141276,358.521,0.44699999690055847,-2.6253280506240344
358.913793,,1.809529301141255e-05,358.985,0.45500001311302185,-2.6076624657405647
359.37931000000003,,0.0003680896764729519,359.451,0.3370000123977661,-2.8645413614810487
359.844828,,0.0007758577783263071,359.911,0.47200000286102295,-2.5702645236600143
360.310345,,0.0012051190484846858,360.381,0.44999998807907104,-2.6180804124342663
360.775862,,0.0016556917132365392,360.841,0.46000000834465027,-2.5962256387587557
361.241379,,0.0021273161771694885,361.311,0.4429999887943268,-2.633242917546544
361.706897,,0.002619728384577507,361.771,0.46700000762939453,-2.5809843544946984
362.172414,,0.0031326876601672307,362.241,0.44200000166893005,-2.635527355240333
362.63793100000004,,0.003665846578434486,362.7,0.44600000977516174,-2.6269351214397028
363.103448,,0.004218588868565583,363.166,0.4650000035762787,-2.585704906805387
363.568966,,0.004790167113258644,363.632,0.43799999356269836,-2.644728899165413
364.034483,,0.0053801457952369165,364.097,0.45100000500679016,-2.6166374292213663
364.5,,0.005988471956177441,364.563,0.45100000500679016,-2.6168918959466936
364.96551700000003,,0.006614621437140864,365.03,0.4519999921321869,-2.6149831571134143
365.431034,,0.007256773955083467,365.496,0.44600000977516174,-2.628332152059207
365.896552,,0.007912912538176378,365.963,0.5249999761581421,-2.4564936337005583
366.362069,,0.0085833992304497,366.421,0.4390000104904175,-2.6441201342239036
366.827586,,0.009270771957045374,366.889,0.44999998807907104,-2.6203995324247806
367.29310300000003,,0.009974289676744137,367.351,0.46299999952316284,-2.5922970422296614
367.758621,,0.010686002808098748,367.819,0.44699999690055847,-2.6273440442907936
368.224138,,0.011398839702856592,368.282,0.43799999356269836,-2.6471041716772223
368.689655,,0.012121142339668045,368.747,0.43799999356269836,-2.6472163619184035
369.155172,,0.012871638941573197,369.21,0.4390000104904175,-2.6451067246114253
369.62068999999997,,0.013645550557725395,369.676,0.46700000762939453,-2.584127963346818
370.086207,,0.014397898553340133,370.141,0.4410000145435333,-2.6407494420568263
370.55172400000004,,0.01509988932369706,370.606,0.4620000123977661,-2.594928506824652
371.017241,,0.015818222886128986,371.071,0.4830000102519989,-2.5490631567018402
371.482759,,0.016662422797742247,371.537,0.44600000977516174,-2.62951809879232
371.948276,,0.017579751611278928,372.004,0.453000009059906,-2.6140767772057303
372.413793,,0.018299929946107615,372.469,0.4429999887943268,-2.635643321000202
372.87931000000003,,0.01871275358401459,372.93,0.44999998807907104,-2.6201503966622286
373.344828,,0.01928296882798285,373.399,0.44600000977516174,-2.6286075245461293
373.810345,,0.02060462051876029,373.867,0.4429999887943268,-2.634878889685793
374.275862,,0.02219224717474211,374.329,0.4399999976158142,-2.641151158715591
374.741379,,0.022433669960023057,374.793,0.45399999618530273,-2.6103951427867793
375.20689699999997,,0.021044239918391158,375.255,0.44699999690055847,-2.625406697920917
375.672414,,0.021141832788538466,375.721,0.45899999141693115,-2.5990466878094423
376.137931,,0.02586239496543862,376.192,0.4429999887943268,-2.6337179251550324
376.603448,,0.03114604708791511,376.65,0.4410000145435333,-2.6379229477370068
377.068966,,0.02569362860443654,377.122,0.4620000123977661,-2.592058398572309
377.53448299999997,,0.00337698752188066,377.58,0.46700000762939453,-2.581093892899721
378.0,,0.026318485943841764,378.045,0.4480000138282776,-2.622460329192316
378.465517,,0.04668744679332749,378.511,0.4690000116825104,-2.576725109648123
378.931034,,0.05178613684205915,378.978,0.45100000500679016,-2.6160008102278702
379.396552,,0.049844984409379865,379.444,0.46399998664855957,-2.587780152828543
379.862069,,0.049988883291663434,379.912,0.4339999854564667,-2.6532804286743708
380.327586,,0.052612313318372225,380.374,0.45100000500679016,-2.616419512099137
380.79310300000003,,0.0533108080081475,380.837,0.44999998807907104,-2.618804373883521
381.258621,,0.05009396582705881,381.307,0.46299999952316284,-2.590711386681643
381.724138,,0.04416343495481749,381.77,0.4490000009536743,-2.621458186696733
382.189655,,0.03699659695324172,382.233,0.4350000023841858,-2.65221444694069
382.655172,,0.02942002933067892,382.698,0.45899999141693115,-2.600184271498017
383.12068999999997,,0.022406313563827204,383.163,0.43799999356269836,-2.6461875951160243
383.586207,,0.017195831390072358,383.629,0.4429999887943268,-2.6355331292640893
384.051724,,0.01509460062086053,384.092,0.4429999887943268,-2.635752083484596
384.517241,,0.017484563310311615,384.558,0.4429999887943268,-2.6359446123995993
384.982759,,0.024772984727816527,385.023,0.43799999356269836,-2.646998307935754
385.44827599999996,,0.03466943379728992,385.488,0.46000000834465027,-2.5991913664487916
385.913793,,0.04268826384576134,385.952,0.460999995470047,-2.597094595608812
386.37931,,0.0453486108966612,386.422,0.44699999690055847,-2.627633386891546
386.84482799999995,,0.04230977071239444,386.885,0.45100000500679016,-2.6189116661898755
387.310345,,0.034720811785675,387.348,0.4390000104904175,-2.6450041146498786
387.775862,,0.022349246378511697,387.811,0.44200000166893005,-2.6383745161192054
388.241379,,0.003964062260126903,388.281,0.45899999141693115,-2.601204103865151
388.70689699999997,,0.01912961035931156,388.747,0.46299999952316284,-2.5923195943066566
389.172414,,0.04150986474988584,389.209,0.4399999976158142,-2.642227200563852
389.637931,,0.05710040163605202,389.675,0.4490000009536743,-2.622393253160689
390.103448,,0.06390843217593078,390.141,0.46799999475479126,-2.580754594975358
390.56896600000005,,0.06436376808159255,390.606,0.4320000112056732,-2.6589304870738038
391.03448299999997,,0.06153262343253124,391.066,0.44699999690055847,-2.625992610926929
391.5,,0.05650189191642639,391.532,0.4569999873638153,-2.603952914092404
391.965517,,0.04948715956898525,392.0,0.46299999952316284,-2.5906395274794916
392.431034,,0.04183013462208057,392.466,0.44699999690055847,-2.6252753458078804
392.896552,,0.035772530421640844,392.926,0.42899999022483826,-2.6642948716130657
393.36206899999996,,0.03262334801041123,393.396,0.4729999899864197,-2.568270568847937
393.827586,,0.03179689729115209,393.859,0.44699999690055847,-2.624788216750072
394.293103,,0.031671982227995284,394.321,0.4440000057220459,-2.6312374711165885
394.75862099999995,,0.03104770190348713,394.785,0.453000009059906,-2.6115865265223945
395.224138,,0.029467573546740587,395.255,0.43799999356269836,-2.644268077724358
395.68965499999996,,0.02621010553091988,395.72,0.4429999887943268,-2.633421731532106
396.155172,,0.019783947574769156,396.184,0.43799999356269836,-2.644405723489937
396.62069,,0.009536501361979309,396.649,0.44600000977516174,-2.627108292614217
397.086207,,0.002214085754228008,397.116,0.4560000002384186,-2.6054902515702048
397.551724,,0.01111132216912069,397.581,0.44200000166893005,-2.6361910174140952
398.017241,,0.014907250683732434,398.04,0.4429999887943268,-2.6342375876774633
398.48275900000004,,0.01583827618374243,398.506,0.46700000762939453,-2.5821936221606734
398.94827599999996,,0.01766861906834273,398.971,0.44600000977516174,-2.628199482118365
399.413793,,0.021144980530829274,399.437,0.4440000057220459,-2.6328143026354214
399.87931,,0.024063551056491408,399.9,0.44699999690055847,-2.6265318307942844
400.344828,,0.025447551427049474,400.37,0.45899999141693115,-2.600629526570037
400.810345,,0.02732752840599498,400.833,0.45500001311302185,-2.60956588262184
401.27586199999996,,0.031385726718823885,401.296,0.43799999356269836,-2.6467986987562866
401.741379,,0.03557723106194571,401.763,0.44699999690055847,-2.6273552091403873
402.206897,,0.036090758207407946,402.225,0.43700000643730164,-2.649269925672652
402.672414,,0.03227761577313117,402.691,0.4440000057220459,-2.634107752779232
403.137931,,0.027578892969151544,403.155,0.4390000104904175,-2.6450468535536324
403.60344799999996,,0.024764247767111967,403.621,0.4620000123977661,-2.5949395171028087
404.068966,,0.022080613668458166,404.086,0.4410000145435333,-2.6406480493773046
404.534483,,0.016556599530531516,404.551,0.44699999690055847,-2.6274899331532247
405.0,,0.010552568936172475,405.018,0.4410000145435333,-2.6404352396267132
405.465517,,0.010473010449924604,405.484,0.5040000081062317,-2.5030162423692337
405.931034,,0.015243074183972227,405.952,0.4429999887943268,-2.635716070378982
406.39655200000004,,0.010400718891197317,406.414,0.44699999690055847,-2.6267769795468423
406.862069,,0.015872986631542983,406.878,0.453000009059906,-2.6134616507787687
407.327586,,0.04966606834376385,407.34,0.45500001311302185,-2.6088490872279984
407.793103,,0.05857303263462352,407.811,0.47600001096725464,-2.5628375509586667
408.258621,,0.03010606252090892,408.274,0.45100000500679016,-2.61704681823229
408.72413800000004,,0.010233775589055787,408.74,0.45399999618530273,-2.6102652016936427
409.18965499999996,,0.029969034602718866,409.202,0.3970000147819519,-2.734222726311121
409.655172,,0.028182189160015473,409.668,0.45500001311302185,-2.607663758123617
410.12069,,0.03180422716248321,410.133,0.4180000126361847,-2.6881101492133608
410.586207,,0.05912456428941213,410.599,0.45100000500679016,-2.6160893689848668
411.05172400000004,,0.09835221923865589,411.063,0.44999998807907104,-2.61818410986514
411.51724099999996,,0.12386621478880575,411.529,0.42800000309944153,-2.6660740837027666
411.982759,,0.12255239604950337,411.996,0.4519999921321869,-2.613791380969609
412.448276,,0.09608720626536242,412.455,0.4569999873638153,-2.602947236048276
412.913793,,0.04987076445417846,412.922,0.4620000123977661,-2.5921448776548437
413.37931,,0.004054924862511739,413.385,0.4429999887943268,-2.6336692364322736
413.844828,,0.042734712749102205,413.852,0.4449999928474426,-2.629477460122278
414.31034500000004,,0.05171935718215899,414.322,0.4650000035762787,-2.586100339401266
414.775862,,0.04748186623539763,414.782,0.44999998807907104,-2.6189998446487994
415.241379,,0.0640916539831847,415.245,0.45899999141693115,-2.5996289006851474
415.706897,,0.11158659201165455,415.71,0.453000009059906,-2.6129477221857944
416.172414,,0.15591819146855454,416.177,0.46399998664855957,-2.589232064084236
416.63793100000004,,0.15274409853234347,416.643,0.4480000138282776,-2.6243348242533533
417.103448,,0.10153116671214522,417.107,0.492000013589859,-2.5287059737801343
417.568966,,0.04876330626030655,417.574,0.4650000035762787,-2.5877408331440908
418.034483,,0.03040757910472374,418.041,0.4560000002384186,-2.607533771815107
418.5,,0.03127978281877368,418.506,0.460999995470047,-2.596794826399086
418.96551700000003,,0.01573871484117356,418.971,0.49000000953674316,-2.5337325269595747
419.43103399999995,,0.016175563444942344,419.436,0.45100000500679016,-2.6187789701817126
419.896552,,0.02425900556194044,419.9,0.45100000500679016,-2.6188175064675474
420.362069,,0.016798202775323394,420.363,0.46299999952316284,-2.592671363959312
420.827586,,0.07353736112169401,420.826,0.4480000138282776,-2.6253080149721644
421.293103,,0.08542439571215966,421.296,0.4449999928474426,-2.631762216406983
421.758621,,0.03862475260818298,421.755,0.46299999952316284,-2.5924287208772894
422.22413800000004,,0.016099633201912385,422.225,0.46299999952316284,-2.5922780058502166
422.689655,,0.025031231875517878,422.691,0.46399998664855957,-2.5899200352285243
423.15517200000005,,0.010811590842345174,423.156,0.4300000071525574,-2.6637921389994244
423.62069,,0.04789631772005875,423.622,0.44699999690055847,-2.6265376350377974
424.086207,,0.05278678970581256,424.081,0.45100000500679016,-2.617596352213755
424.55172400000004,,0.02990335790775459,424.547,0.4620000123977661,-2.593401327420477
425.017241,,0.0033912357470592762,425.012,0.4699999988079071,-2.575745153208613
425.482759,,0.012420336365942619,425.478,0.45399999618530273,-2.6103857624591202
425.948276,,0.01649777744942968,425.94,0.4560000002384186,-2.605826587109203
426.413793,,0.009204102756135904,426.41,0.4620000123977661,-2.5925746072359455
426.87931000000003,,0.004561972540177223,426.87,0.45399999618530273,-2.609850588920895
427.344828,,0.007281969252877069,427.34,0.44600000977516174,-2.6271579568756436
427.810345,,0.015725339927601188,427.801,0.49000000953674316,-2.531210030895151
428.275862,,0.05172693407524886,428.27,0.4410000145435333,-2.6379126732273366
428.741379,,0.06654173525720915,428.735,0.4440000057220459,-2.6313640374262963
429.20689699999997,,0.042964427851309994,429.198,0.45100000500679016,-2.6161400793819864
429.672414,,0.007196960952702178,429.664,0.4560000002384186,-2.6053113089330617
430.137931,,0.003778691373194729,430.125,0.453000009059906,-2.6119472106091868
430.603448,,0.04159510822135544,430.591,0.4560000002384186,-2.605543589709793
431.068966,,0.08183790465769766,431.056,0.45100000500679016,-2.616597444517234
431.534483,,0.08809678652318197,431.522,0.45899999141693115,-2.599352329759048
432.0,,0.06953488800027327,431.989,0.4440000057220459,-2.6322340757027507
432.46551700000003,,0.060525753487406374,432.454,0.45500001311302185,-2.608483141146069
432.931034,,0.07104783716763331,432.915,0.45500001311302185,-2.6087030813337844
433.396552,,0.07431217764902094,433.384,0.4480000138282776,-2.624172737353853
433.862069,,0.04450696610990832,433.845,0.45100000500679016,-2.617848891478391
434.327586,,0.00408809536278405,434.315,0.45100000500679016,-2.6180477901234247
434.79310300000003,,0.029165108661974276,434.778,0.45399999618530273,-2.6116917056266935
435.258621,,0.012316425546198582,435.24,0.46399998664855957,-2.5900605525658413
435.724138,,0.017684613606399675,435.706,0.45399999618530273,-2.611973154851153
436.189655,,0.021674483943201116,436.17,0.4440000057220459,-2.6338534142922736
436.655172,,0.0038403665381389653,436.636,0.45100000500679016,-2.6186621840342257
437.12068999999997,,0.028244803558555735,437.1,0.4480000138282776,-2.6252213801514084
437.586207,,0.026153136756000464,437.566,0.45899999141693115,-2.6012427842576438
438.051724,,0.0031041289614019063,438.031,0.43299999833106995,-2.657838076577092
438.517241,,0.01808722498871417,438.496,0.4429999887943268,-2.6359681530109076
438.982759,,0.02325788284248371,438.963,0.4399999976158142,-2.6423894850722824
439.448276,,0.009878980277390068,439.429,0.46299999952316284,-2.5921377363236444
439.913793,,0.021139275454072938,439.896,0.4690000116825104,-2.5788980986831262
440.37931000000003,,0.0574905267489673,440.358,0.45100000500679016,-2.617925813681332
440.844828,,0.07082386767153909,440.822,0.4480000138282776,-2.624259650454716
441.310345,,0.04419256675528188,441.285,0.4620000123977661,-2.5935484995626075
441.775862,,0.0004228960121260886,441.75,0.45500001311302185,-2.6085868276050683
442.241379,,0.016979766623626692,442.22,0.4560000002384186,-2.606200032795439
442.70689699999997,,0.005682471744125728,442.686,0.4690000116825104,-2.577679369301903
443.172414,,0.032703111675453,443.148,0.46399998664855957,-2.588389823904852
443.637931,,0.018827551840607054,443.613,0.4560000002384186,-2.6056569362822626
444.103448,,0.03531821464902888,444.078,0.45100000500679016,-2.6164141474386944
444.568966,,0.08277277662443036,444.544,0.45899999141693115,-2.598879151888005
445.03448299999997,,0.08754095026752483,445.008,0.45500001311302185,-2.6075210167584104
445.5,,0.06319729860714016,445.474,0.43799999356269836,-2.644520980889041
445.965517,,0.045732471861703664,445.937,0.4429999887943268,-2.6336278622492957
446.431034,,0.04416852540616176,446.406,0.44699999690055847,-2.6249505766516577
446.896552,,0.03242042647517831,446.867,0.4620000123977661,-2.592343622761171
447.36206899999996,,0.011963800593591364,447.336,0.46000000834465027,-2.5968063877333503
447.827586,,0.07104307542645791,447.797,0.45899999141693115,-2.599119783791224
448.29310300000003,,0.0996095575457089,448.266,0.4429999887943268,-2.634138473383482
448.758621,,0.07699606978063896,448.731,0.4429999887943268,-2.6343201913688055
449.224138,,0.0332603379724308,449.194,0.4659999907016754,-2.584408848735419
449.689655,,0.016057853167860556,449.66,0.4429999887943268,-2.6347249442131218
450.155172,,0.03972550106302298,450.126,0.45399999618530273,-2.6109705856936793
450.62068999999997,,0.073996085668617,450.592,0.5640000104904175,-2.371525300173642
451.086207,,0.0797241404356957,451.055,0.4560000002384186,-2.607012637557512
451.551724,,0.049676121959673684,451.522,0.4620000123977661,-2.5941173074174273
452.017241,,0.010029761928737667,451.982,0.4650000035762787,-2.587738163163929
452.482759,,0.012053894995348298,452.447,0.44999998807907104,-2.6205506323195236
452.94827599999996,,0.00961987216143281,452.911,0.4390000104904175,-2.6446214217418587
453.413793,,0.00938624234431147,453.381,0.453000009059906,-2.6141966078216767
453.87931,,0.029169848789048918,453.844,0.46299999952316284,-2.5924544452839986
454.344828,,0.029617443545373538,454.307,0.46000000834465027,-2.599001007446793
454.810345,,0.0023537493995568364,454.77,0.44600000977516174,-2.629479068686761
455.27586199999996,,0.032994147810882425,455.24,0.45100000500679016,-2.618530417843403
455.741379,,0.0417453405776948,455.706,0.45899999141693115,-2.60101505510953
456.206897,,0.011635922671672167,456.171,0.4429999887943268,-2.6357589058275326
456.672414,,0.026750953318379657,456.636,0.4650000035762787,-2.5876890553659977
457.137931,,0.028835979221989345,457.096,0.4690000116825104,-2.5788133166245095
457.603448,,0.011168855750511868,457.562,0.43799999356269836,-2.6461733951027457
458.06896600000005,,0.05148839576365953,458.026,0.46299999952316284,-2.591517798551712
458.53448299999997,,0.05506925018970328,458.491,0.5540000200271606,-2.393063381306841
459.0,,0.033083064619112576,458.964,0.45500001311302185,-2.608548071011604
459.465517,,0.022765172395657732,459.422,0.4560000002384186,-2.6061713942294844
459.931034,,0.03432759879476729,459.885,0.46399998664855957,-2.5885551933896913
460.39655200000004,,0.037272228666010085,460.355,0.45100000500679016,-2.6167069844768256
460.86206899999996,,0.003093781185497816,460.816,0.4659999907016754,-2.583878146407957
461.327586,,0.04913008455564583,461.286,0.45399999618530273,-2.6098985372826804
461.793103,,0.06784864108535969,461.751,0.45100000500679016,-2.6163406431582836
462.258621,,0.03260148204079492,462.214,0.45100000500679016,-2.6162794438124344
462.724138,,0.01833510961850717,462.681,0.44699999690055847,-2.6249673591692266
463.18965499999996,,0.034258080338665946,463.14,0.46399998664855957,-2.587938690383015
463.655172,,0.008414610204891633,463.606,0.45500001311302185,-2.607589146575214
464.12069,,0.02360716422003017,464.071,0.45399999618530273,-2.609843531199288
464.58620699999994,,0.029336210453883394,464.536,0.45100000500679016,-2.6164861466826865
465.051724,,0.009955563575607985,465.003,0.4429999887943268,-2.6340501184798963
465.517241,,0.011657798908960054,465.469,0.46399998664855957,-2.588457204711558
465.98275900000004,,0.019184825934966038,465.937,0.4569999873638153,-2.60388517839038
466.448276,,0.010658228842829432,466.399,0.36500000953674316,-2.8045132992793387
466.913793,,0.009842719436093755,466.86,0.45399999618530273,-2.6108171289461293
467.37931,,0.03164976838505388,467.329,0.46000000834465027,-2.597952030893017
467.844828,,0.03569585617960964,467.797,0.43799999356269836,-2.646084624266612
468.31034500000004,,0.01180271731513744,468.259,0.46399998664855957,-2.58963155631578
468.77586199999996,,0.02226040125235193,468.724,0.46399998664855957,-2.5898064842247632
469.241379,,0.03233393026864718,469.191,0.45100000500679016,-2.6182814120566205
469.706897,,0.004490104727829137,469.657,0.46700000762939453,-2.583548759148795
470.172414,,0.03412306418912603,470.122,0.45899999141693115,-2.6010730040309658
470.63793100000004,,0.040759127959122565,470.58,0.44999998807907104,-2.620742543956869
471.10344799999996,,0.00636244898940996,471.052,0.45500001311302185,-2.609876262934099
471.568966,,0.033638258554288786,471.51,0.4620000123977661,-2.5946172435672348
472.034483,,0.044592652123673096,471.982,0.45100000500679016,-2.6185386862485887
472.5,,0.03227342990826898,472.44,0.44600000977516174,-2.6293548229665262
472.965517,,0.02577770486609041,472.908,0.43799999356269836,-2.6466765944744304
473.43103399999995,,0.034016718562448936,473.37,0.4560000002384186,-2.607326507935615
473.89655200000004,,0.03514502325684251,473.841,0.46399998664855957,-2.5897395141569595
474.362069,,0.00983720011691896,474.303,0.45399999618530273,-2.6113491139577008
474.827586,,0.02599072059085497,474.771,0.4519999921321869,-2.6155161891840155
475.293103,,0.035008365032076126,475.234,0.43799999356269836,-2.645820016235995
475.758621,,0.005317814199492442,475.699,0.46700000762939453,-2.5824408821676723
476.22413800000004,,0.03230640795866376,476.166,0.45500001311302185,-2.6083907625610525
476.689655,,0.04076440802433955,476.625,0.45100000500679016,-2.616921680801807
477.155172,,0.0175127582104833,477.09,0.4749999940395355,-2.5644660770620527
477.62069,,0.00832057782876151,477.555,0.46399998664855957,-2.5882832648733527
478.086207,,0.011027575887125366,478.022,0.45500001311302185,-2.607767732486205
478.55172400000004,,0.008062910767903093,478.488,0.45899999141693115,-2.59895869191742
479.01724099999996,,0.029985059668414714,478.956,0.45100000500679016,-2.616325192379983
479.482759,,0.03959037451927095,479.418,0.45399999618530273,-2.6097604555381855
479.948276,,0.03033492070905106,479.885,0.45100000500679016,-2.6163023479477667
480.413793,,0.0014039730419422621,480.348,0.45100000500679016,-2.6163428974443907
480.87931000000003,,0.03288728441536613,480.811,0.4560000002384186,-2.6055234564825094
481.344828,,0.042333180541722866,481.281,0.4440000057220459,-2.6317719935730715
481.810345,,0.011801950737929463,481.74,0.4860000014305115,-2.540400762627251
482.275862,,0.031579190432626206,482.21,0.4790000021457672,-2.555805308227529
482.74137900000005,,0.041090598373692215,482.676,0.4729999899864197,-2.5690480970528555
483.206897,,0.0026745673412456802,483.141,0.46399998664855957,-2.5888390516176076
483.672414,,0.045677744726041886,483.607,0.46700000762939453,-2.5824933159716252
484.13793100000004,,0.054143469121938785,484.067,0.4790000021457672,-2.556541118986825
484.603448,,0.017619902921835136,484.533,0.44600000977516174,-2.628623875219084
485.068966,,0.020824019915817938,484.996,0.4410000145435333,-2.6396958074077657
485.534483,,0.024789036802131046,485.462,0.46399998664855957,-2.589752082497329
486.0,,0.0045861623679272516,485.929,0.47999998927116394,-2.5550393316472735
486.46551700000003,,0.005867642848599736,486.392,0.46399998664855957,-2.59001883344214
486.931034,,0.0033207947970713934,486.86,0.46000000834465027,-2.598826786748641
487.396552,,0.00747434353963926,487.322,0.46299999952316284,-2.592354246101112
487.862069,,0.017065696130529554,487.789,0.46399998664855957,-2.5902071327359004
488.327586,,0.056443160194326124,488.251,0.4880000054836273,-2.5379177378063074
488.79310300000003,,0.07010412758013032,488.718,0.45399999618530273,-2.611956646081321
489.258621,,0.040081242739096024,489.181,0.4749999940395355,-2.5661380064531016
489.724138,,0.004072076247846923,489.647,0.46299999952316284,-2.592185136843519
490.189655,,0.01783516273527365,490.111,0.46799999475479126,-2.5811685682018095
490.655172,,0.009449973440881063,490.577,0.375,-2.7836384702694716
491.12069,,0.045318844220470084,491.041,0.4749999940395355,-2.565613816724235
491.586207,,0.050460634307075154,491.506,0.4129999876022339,-2.7005189119072566
492.05172400000004,,0.01890042944623172,491.971,0.453000009059906,-2.6131949404886967
492.517241,,0.02125742994003206,492.437,0.45100000500679016,-2.6173722866473086
492.982759,,0.041106324129343126,492.9,0.46399998664855957,-2.5888720889155583
493.448276,,0.03333265979834594,493.37,0.45500001311302185,-2.6083089643979216
493.913793,,0.007611888713559456,493.833,0.45899999141693115,-2.599435213308493
494.37931000000003,,0.01750021171719883,494.296,0.46399998664855957,-2.5883988762366315
494.844828,,0.020422637971293824,494.767,0.4129999876022339,-2.699387684366401
495.310345,,0.0061107078160771745,495.229,0.4560000002384186,-2.605608647037799
495.775862,,0.040094716814089146,495.695,0.47600001096725464,-2.5619653661892583
496.241379,,0.045861025174518254,496.159,0.4690000116825104,-2.5771729047256997
496.70689699999997,,0.012491618771988754,496.624,0.4690000116825104,-2.577158188553347
497.172414,,0.027979538319028923,497.089,0.46399998664855957,-2.5880656622572027
497.637931,,0.03203606585097629,497.555,0.45899999141693115,-2.599001838821192
498.103448,,0.0037271483329310373,498.015,0.46399998664855957,-2.588179313043888
498.568966,,0.0379163239121509,498.48,0.46000000834465027,-2.596990375236574
499.03448299999997,,0.03734383984379735,498.948,0.4749999940395355,-2.5644301018799527
499.5,,0.015523462529706912,499.411,0.4650000035762787,-2.586355350210043
499.96551700000003,,0.0067875201967607015,499.881,0.45100000500679016,-2.6170111132066727
500.431034,,0.017732618156062075,500.344,0.4490000009536743,-2.621535510360805
500.89655200000004,,0.020598043220073387,500.807,0.45500001311302185,-2.608638714698791
501.362069,,0.006740926032689471,501.27,0.46700000762939453,-2.5826728313504397
501.827586,,0.04593220989725766,501.736,0.45500001311302185,-2.608991984099887
502.293103,,0.0550333683859542,502.206,0.46399998664855957,-2.589552209769568
502.758621,,0.019924312361194598,502.671,0.4490000009536743,-2.6223880267828803
503.224138,,0.02570690613256168,503.133,0.45500001311302185,-2.6094561964170504
503.68965499999996,,0.038092020514055115,503.599,0.45500001311302185,-2.6095763455698395
504.15517200000005,,0.01038491011753402,504.063,0.453000009059906,-2.6140303294812863
504.62068999999997,,0.0242504855948573,504.529,0.46000000834465027,-2.5988501069852896
505.08620699999994,,0.030629731061974096,504.994,0.46299999952316284,-2.592355749831243
505.55172400000004,,0.006454604447025414,505.459,0.47600001096725464,-2.564044303034803
506.017241,,0.022094659273614762,505.922,0.5139999985694885,-2.481234421993872
506.48275899999993,,0.03212774784202855,506.392,0.46399998664855957,-2.5901131975493756
506.948276,,0.020734603151365733,506.852,0.4659999907016754,-2.5856723219205504
507.413793,,0.002875327781041326,507.321,0.44999998807907104,-2.620420831147419
507.87931,,0.024118838347726962,507.782,0.46299999952316284,-2.5919656121089902
508.344828,,0.02541127520478258,508.251,0.46399998664855957,-2.589634928548802
508.810345,,0.0006138374955199112,508.71,0.45399999618530273,-2.6112542463613906
509.27586199999996,,0.030516993428639463,509.181,0.46299999952316284,-2.5914690755928924
509.74137900000005,,0.03522180973406672,509.647,0.453000009059906,-2.6130731195685653
510.20689699999997,,0.00247520687609555,510.112,0.38499999046325684,-2.761040408346182
510.67241399999995,,0.03875755300315601,510.57,0.45399999618530273,-2.610540729060157
511.13793100000004,,0.04626161550745987,511.037,0.45899999141693115,-2.5994859998678534
511.603448,,0.012972381555346836,511.503,0.43799999356269836,-2.645090808446086
512.0689659999999,,0.024244332252662003,511.968,0.4699999988079071,-2.5752459284978744
512.534483,,0.03086393039428408,512.433,0.46299999952316284,-2.59038987099549
513.0,,0.013916377770757792,512.896,0.4560000002384186,-2.60555796114826
513.465517,,0.004325607870757545,513.366,0.45100000500679016,-2.6163955990799286
513.931034,,0.012768659864363135,513.829,0.453000009059906,-2.6120113252681834
514.396552,,0.017505459925563037,514.292,0.4519999921321869,-2.614192427474429
514.862069,,0.003413087134884271,514.758,0.4790000021457672,-2.555400082177609
515.327586,,0.03729464807007301,515.224,0.453000009059906,-2.6121035810487365
515.793103,,0.046966687173285594,515.69,0.460999995470047,-2.594759221498299
516.258621,,0.017706199333420488,516.156,0.47600001096725464,-2.5621880647035793
516.724138,,0.02123168296253447,516.621,0.46399998664855957,-2.588460954853628
517.189655,,0.030893543524001588,517.085,0.4690000116825104,-2.5777137871999467
517.655172,,0.0068699065303970035,517.55,0.47200000286102295,-2.5713372015672187
518.1206900000001,,0.020402236893710037,518.015,0.47600001096725464,-2.5627906620811673
518.5862070000001,,0.0227168339866583,518.481,0.43799999356269836,-2.645752268836256
519.051724,,0.0012975682041307735,518.944,0.4650000035762787,-2.5871027305266705
519.517241,,0.022850158374642937,519.407,0.453000009059906,-2.613416947358962
519.982759,,0.0334229063611458,519.87,0.4560000002384186,-2.6070432091343543
520.448276,,0.024958049412079342,520.34,0.453000009059906,-2.6137288679753956
520.9137929999999,,0.0016107713964607182,520.804,0.45899999141693115,-2.6007901318298297
521.37931,,0.031708962049567926,521.266,0.45899999141693115,-2.6009027816089274
521.844828,,0.03663332849827491,521.732,0.45500001311302185,-2.6097062903129524
522.310345,,0.002646369196915933,522.195,0.47200000286102295,-2.572731796457891
522.7758620000001,,0.04364349304477136,522.661,0.4650000035762787,-2.5880161013543526
523.241379,,0.05731170278946509,523.126,0.45399999618530273,-2.611985289861875
523.7068969999999,,0.02493422458779301,523.591,0.4560000002384186,-2.6076024634581403
524.172414,,0.017239889539303162,524.056,0.46299999952316284,-2.5922973130814135
524.637931,,0.022189717788432452,524.522,0.4659999907016754,-2.585678576334329
525.103448,,0.013485518849312466,524.989,0.5260000228881836,-2.454849200000598
525.568966,,0.047156516759441505,525.454,0.5130000114440918,-2.4830345514117025
526.034483,,0.04447014563760104,525.915,0.4749999940395355,-2.565663162983728
526.5,,0.017862351973184053,526.384,0.49399998784065247,-2.52409153616758
526.9655170000001,,0.002137047072260267,526.845,0.47999998927116394,-2.5544034069820096
527.4310340000001,,0.006903280299455474,527.315,0.4790000021457672,-2.5563865310137213
527.8965519999999,,0.007103887388561695,527.778,0.47600001096725464,-2.5627267166415564
528.362069,,0.02097947779637453,528.24,0.45100000500679016,-2.6170033036867792
528.827586,,0.0637261187902878,528.706,0.47200000286102295,-2.5710742844045074
529.293103,,0.08084295310806364,529.173,0.5019999742507935,-2.505554103431697
529.7586210000001,,0.05368920894941297,529.639,0.4880000054836273,-2.5359145149011515
530.224138,,0.010273954926457558,530.104,0.47600001096725464,-2.561942291691434
530.689655,,0.005869360990344773,530.569,0.4790000021457672,-2.555319228847151
531.155172,,0.016466712976764608,531.033,0.49000000953674316,-2.5312985095117884
531.62069,,0.0466543930435224,531.499,0.5130000114440918,-2.4811665940784926
532.086207,,0.0478532754393144,531.964,0.49000000953674316,-2.5312855028568952
532.5517239999999,,0.016319125176077223,532.43,0.5009999871253967,-2.507363655093171
533.017241,,0.01933695391799238,532.893,0.503000020980835,-2.5030819472967067
533.482759,,0.03263476944289174,533.355,0.515999972820282,-2.4748654178214893
533.9482760000001,,0.02072688991206841,533.823,0.515999972820282,-2.4749982336838143
534.413793,,0.0034507751325617863,534.285,0.49000000953674316,-2.531799732642929
534.87931,,0.02220407939816467,534.75,0.531000018119812,-2.4426518185433954
535.344828,,0.018329147295221365,535.221,0.5529999732971191,-2.394912258634024
535.810345,,0.01127915981309739,535.686,0.5199999809265137,-2.4670061616877628
536.275862,,0.04365938773940655,536.145,0.5299999713897705,-2.4454214191155508
536.7413789999999,,0.04512542291822452,536.611,0.515999972820282,-2.476122595309563
537.206897,,0.007458951321906593,537.077,0.5149999856948853,-2.478494646201009
537.672414,,0.035549966704793545,537.543,0.5379999876022339,-2.428567093689521
538.137931,,0.03971487152457137,538.007,0.5419999957084656,-2.420015918078467
538.6034480000001,,0.0015462462551926834,538.473,0.5690000057220459,-2.3613322533079137
539.0689659999999,,0.03691833393037776,538.941,0.5540000200271606,-2.394123616751286
539.5344829999999,,0.040688554641978306,539.404,0.5360000133514404,-2.433420063587722
540.0,,0.02117125872812371,539.867,0.5450000166893005,-2.413860625372346
540.465517,,0.01209488082978142,540.337,0.5730000138282776,-2.3528726781831626
540.931034,,0.02142743058023287,540.8,0.5849999785423279,-2.3267071795629377
541.396552,,0.023298080135388064,541.262,0.546999990940094,-2.409438422778572
541.862069,,0.003603147974406815,541.728,0.5699999928474426,-2.3592389268099456
542.327586,,0.04158756859407605,542.192,0.550000011920929,-2.4026910109288147
542.7931030000001,,0.050229674573382024,542.658,0.5789999961853027,-2.339362321704142
543.258621,,0.01652037603480906,543.122,0.5669999718666077,-2.3653350010031344
543.7241379999999,,0.02680491312161515,543.588,0.5730000138282776,-2.352073301626979
544.189655,,0.03956648754561827,544.055,0.593999981880188,-2.3061185565084457
544.655172,,0.017876499043005305,544.521,0.5809999704360962,-2.3342296038132924
545.12069,,0.008319965010726712,544.986,0.5920000076293945,-2.3100507812434414
545.5862070000001,,0.012371204931283427,545.452,0.5879999995231628,-2.318555797783651
546.051724,,0.004370503281354992,545.915,0.5830000042915344,-2.3292496844297186
546.517241,,0.023188909047443845,546.377,0.5929999947547913,-2.3072801436399746
546.982759,,0.030833491722683806,546.845,0.5820000171661377,-2.3310838935883527
547.448276,,0.023532840344946966,547.307,0.5899999737739563,-2.3135201760814534
547.9137929999999,,0.000882509738433761,547.775,0.6060000061988831,-2.2785576046322884
548.3793099999999,,0.027385681556358336,548.237,0.5979999899864197,-2.2959159444134336
548.844828,,0.03726203281741492,548.702,0.593999981880188,-2.3045953570587083
549.310345,,0.013408218472116965,549.167,0.6439999938011169,-2.195664100222486
549.775862,,0.024910506941594236,549.632,0.5680000185966492,-2.3612790361349254
550.241379,,0.036507010692205154,550.097,0.5830000042915344,-2.3286743493074495
550.706897,,0.003123778185867029,550.563,0.574999988079071,-2.3462151954223027
551.172414,,0.04416788154852712,551.03,0.5929999947547913,-2.3071444677762316
551.637931,,0.05458287870731259,551.495,0.5920000076293945,-2.309496945443644
552.103448,,0.016561941007205268,551.956,0.574999988079071,-2.346731905200106
552.568966,,0.02820581183142069,552.425,0.5979999899864197,-2.2968394434376567
553.034483,,0.0381718804268002,552.885,0.5929999947547913,-2.3079610211039707
553.5,,0.020489071083779314,553.355,0.5669999718666077,-2.364839703183434
553.965517,,0.01087572002700497,553.818,0.6000000238418579,-2.2931768376685495
554.4310340000001,,0.01904780686563123,554.281,0.5809999704360962,-2.334795494108413
554.896552,,0.015804234871478733,554.747,0.5960000157356262,-2.3023243841602223
555.3620689999999,,0.021968652536477618,555.217,0.5860000252723694,-2.3242976572606464
555.827586,,0.06945852567368929,555.675,0.5839999914169312,-2.3288141977755714
556.293103,,0.07679218138379494,556.141,0.6060000061988831,-2.2810101965242096
556.758621,,0.031950521504116924,556.607,0.597000002861023,-2.3007067566329105
557.224138,,0.02140811045732153,557.074,0.5709999799728394,-2.357400175862302
557.689655,,0.03514350482789982,557.539,0.6000000238418579,-2.294226277440034
558.155172,,0.007692938764696931,558.005,0.5649999976158142,-2.3704440511080804
558.6206900000001,,0.02314595817081486,558.47,0.5789999961853027,-2.339867050840078
559.0862070000001,,0.02518458665634405,558.933,0.5929999947547913,-2.3092508428115166
559.5517239999999,,0.00031381941355560123,559.396,0.597000002861023,-2.300384047192395
560.017241,,0.03093866967513251,559.867,0.5839999914169312,-2.328521263128013
560.482759,,0.04834564890392898,560.329,0.5709999799728394,-2.3566312736760455
560.948276,,0.04300855446767134,560.797,0.5440000295639038,-2.4152223419245904
561.413793,,0.011045920219923313,561.259,0.5419999957084656,-2.4193354430207084
561.87931,,0.032527048299651286,561.725,0.5170000195503235,-2.4735535183346267
562.344828,,0.05030277935231896,562.191,0.527999997138977,-2.4493443763796234
562.8103450000001,,0.019159363799860593,562.657,0.5289999842643738,-2.44693275158874
563.275862,,0.03334818836062032,563.118,0.4399999976158142,-2.6406185491917626
563.7413789999999,,0.05088350756681731,563.584,0.5099999904632568,-2.487926151877392
564.206897,,0.010629430056920202,564.048,0.5090000033378601,-2.4899488850351212
564.672414,,0.04714359771143096,564.514,0.49000000953674316,-2.531221505138352
565.137931,,0.0613942974581552,564.981,0.4950000047683716,-2.520244365158058
565.603448,,0.020288547530649674,565.447,0.492000013589859,-2.526736238204017
566.068966,,0.027357309512795122,565.907,0.49900001287460327,-2.5114820066234316
566.534483,,0.03574636729059537,566.37,0.49900001287460327,-2.5115179226816724
567.0,,0.015211959294757894,566.841,0.4860000014305115,-2.5399143256085637
567.465517,,0.006962984197813367,567.303,0.49300000071525574,-2.5247733280537314
567.931034,,0.021598045703557178,567.767,0.49000000953674316,-2.5314506832319807
568.396552,,0.025091002460262607,568.237,0.47999998927116394,-2.5534060616254806
568.862069,,0.011597766079013267,568.695,0.4779999852180481,-2.5579547291267226
569.327586,,0.06494588298015261,569.16,0.46399998664855957,-2.5886642651177754
569.793103,,0.07955411705121378,569.626,0.49000000953674316,-2.532238563256245
570.2586210000001,,0.03539464934247807,570.092,0.46799999475479126,-2.580391957010286
570.724138,,0.025513459181025974,570.558,0.5230000019073486,-2.4607858164411005
571.189655,,0.046057155535506274,571.023,0.47600001096725464,-2.56339119358278
571.655172,,0.01383927973943848,571.488,0.47999998927116394,-2.554869487999323
572.12069,,0.03162491141404953,571.952,0.4779999852180481,-2.5593989551090375
572.586207,,0.043879220555646026,572.415,0.46700000762939453,-2.5835110024933954
573.051724,,0.015082476303753077,572.886,0.47200000286102295,-2.5727359434541506
573.517241,,0.025914655612006537,573.348,0.5009999871253967,-2.509640979815279
573.982759,,0.051994575398818056,573.811,0.4690000116825104,-2.579408547669723
574.4482760000001,,0.057919590041531216,574.281,0.4519999921321869,-2.6164614671099047
574.913793,,0.04903176529934456,574.74,0.46000000834465027,-2.5990141836209117
575.37931,,0.035135667763784864,575.21,0.4699999988079071,-2.57717656507478
575.844828,,0.03449147192163719,575.676,0.47999998927116394,-2.555307020982193
576.310345,,0.05871595563526718,576.141,0.4620000123977661,-2.5944101935955133
576.775862,,0.08895133376518931,576.6,0.4729999899864197,-2.5703070905366876
577.241379,,0.08553009110092175,577.067,0.46299999952316284,-2.591934356668523
577.706897,,0.032209120229548006,577.532,0.45899999141693115,-2.600473591725199
578.172414,,0.03615988676752998,577.996,0.453000009059906,-2.613359501959081
578.6379310000001,,0.0649674880358998,578.462,0.4519999921321869,-2.6153473524579214
579.1034480000001,,0.042087555948798525,578.925,0.4519999921321869,-2.6151571672688396
579.5689659999999,,0.011024522278801312,579.395,0.45399999618530273,-2.6106155654089966
580.034483,,0.01285840571712504,579.855,0.4779999852180481,-2.558154066955928
580.5,,0.036258531309820666,580.325,0.4790000021457672,-2.555815454865287
580.965517,,0.042174062826684865,580.789,0.44699999690055847,-2.625390619558136
581.431034,,0.023110087348414337,581.252,0.503000020980835,-2.503266651897107
581.896552,,0.01490276252505219,581.717,0.4620000123977661,-2.592496055051318
582.362069,,0.04592661912385616,582.181,0.45500001311302185,-2.6076786188979826
582.827586,,0.09099192832794721,582.647,0.453000009059906,-2.6119978206655197
583.2931030000001,,0.09562073097842218,583.112,0.4519999921321869,-2.6141691980193307
583.758621,,0.044147837301917986,583.577,0.4620000123977661,-2.5924058595251434
584.2241379999999,,0.018688949543118373,584.042,0.453000009059906,-2.61206619743965
584.689655,,0.039694095913817964,584.507,0.45899999141693115,-2.599074323896176
585.155172,,0.01290937682835399,584.974,0.45100000500679016,-2.616608490649759
585.6206900000001,,0.02287722241138106,585.44,0.45399999618530273,-2.610199481302982
586.0862070000001,,0.029785802664717462,585.903,0.45899999141693115,-2.599451221300711
586.551724,,0.0055153729525521614,586.366,0.46000000834465027,-2.597431048502403
587.017241,,0.02453011713745669,586.83,0.47999998927116394,-2.5540250813314422
587.482759,,0.03797011369872734,587.3,0.4569999873638153,-2.604304398323474
587.948276,,0.02854040543115158,587.77,0.46700000762939453,-2.5826872237052796
588.4137929999999,,0.00016638288842388878,588.225,0.45100000500679016,-2.617709706278122
588.87931,,0.03168435832351456,588.691,0.43799999356269836,-2.646187245311972
589.344828,,0.03914336802243775,589.156,0.382999986410141,-2.7661567303579453
589.810345,,0.0061280686582092445,589.622,0.45100000500679016,-2.61813819353155
590.2758620000001,,0.04369499656130568,590.09,0.47600001096725464,-2.5637820132500737
590.741379,,0.05995525846154985,590.555,0.4480000138282776,-2.6248700144550283
591.2068969999999,,0.01832498623493594,591.019,0.46399998664855957,-2.590071305709962
591.672414,,0.04267555234973257,591.485,0.46399998664855957,-2.5901031437125317
592.137931,,0.05366776992005502,591.948,0.46399998664855957,-2.5901061990094827
592.603448,,0.0078395867591452,592.41,0.4690000116825104,-2.579187202194358
593.068966,,0.08953589883538601,592.878,0.46700000762939453,-2.583490859748099
593.534483,,0.12801179582324462,593.34,0.46299999952316284,-2.592125671312485
594.0,,0.11898895149708447,593.808,0.4880000054836273,-2.5375556735341696
594.4655170000001,,0.10340480839253866,594.27,0.4659999907016754,-2.5853609967409423
594.9310340000001,,0.10001909011488092,594.736,0.46399998664855957,-2.5895762338666004
595.3965519999999,,0.08052737653275933,595.206,0.4790000021457672,-2.556741758968493
595.862069,,0.017658826268683845,595.671,0.4129999876022339,-2.7003705869096186
596.327586,,0.062226046803091684,596.133,0.48399999737739563,-2.545522650506449
596.793103,,0.09948422472150421,596.599,0.4699999988079071,-2.5758616876625804
597.2586210000001,,0.07297555321265976,597.063,0.4869999885559082,-2.538667869194877
597.724138,,0.02658786911257543,597.529,0.49399998784065247,-2.523269699212707
598.189655,,0.016563497437441774,597.996,0.4779999852180481,-2.5579935459352243
598.655172,,0.05106506173787421,598.455,0.4749999940395355,-2.564412360056587
599.12069,,0.0904600526387994,598.926,0.47999998927116394,-2.5534230968309006
599.586207,,0.09536463260291868,599.388,0.492000013589859,-2.527206689310187
600.0517239999999,,0.06392877677529296,599.851,0.5009999871253967,-2.5075511645239414
600.517241,,0.023544711063516716,600.321,0.47600001096725464,-2.561995727395807
600.982759,,0.0008474272480861465,600.782,0.48500001430511475,-2.5423936608692985
601.448276,,0.0005522314862786359,601.252,0.4749999940395355,-2.5642136087483394
601.913793,,0.026688467299694155,601.71,0.49399998784065247,-2.5228792978285477
602.37931,,0.060111467223661105,602.175,0.48500001430511475,-2.5425717037535582
602.844828,,0.06696845379945847,602.64,0.47600001096725464,-2.5622866049189463
603.310345,,0.029055975711642354,603.107,0.5049999952316284,-2.499232288872381
603.775862,,0.02550874137042438,603.573,0.46700000762939453,-2.5821631113183043
604.2413789999999,,0.044047807042118914,604.038,0.492000013589859,-2.527851190741183
604.706897,,0.0072204582445494735,604.504,0.4950000047683716,-2.521477123768758
605.172414,,0.044499114179019354,604.971,0.47999998927116394,-2.554321446620293
605.637931,,0.05268065992757034,605.43,0.4950000047683716,-2.52180450784719
606.1034480000001,,0.008242391729200181,605.9,0.4860000014305115,-2.5415687697861316
606.5689659999999,,0.039702831270261994,606.363,0.492000013589859,-2.5286423599842585
607.0344829999999,,0.04781182341412542,606.826,0.47600001096725464,-2.563631486126329
607.5,,0.02907031264421748,607.296,0.48899999260902405,-2.535421559099729
607.965517,,0.024708446052287933,607.767,0.4790000021457672,-2.557299012084963
608.431034,,0.04296239440905691,608.222,0.49000000953674316,-2.5334006200364447
608.896552,,0.048378843701669685,608.688,0.49000000953674316,-2.533440960848184
609.362069,,0.013750485173749043,609.152,0.4819999933242798,-2.5508828013631692
609.827586,,0.03467305720330131,609.617,0.5299999713897705,-2.4462915009951223
610.293103,,0.04264302279041902,610.082,0.47600001096725464,-2.563893221301925
610.758621,,0.004674162054950863,610.547,0.47600001096725464,-2.563821246592572
611.2241379999999,,0.06243769216720234,611.012,0.4819999933242798,-2.5506535768728247
611.689655,,0.07788906910931272,611.478,0.4749999940395355,-2.5657870193848904
612.155172,,0.04527705301828129,611.941,0.47200000286102295,-2.572187995462378
612.62069,,0.0037507814154328863,612.41,0.4659999907016754,-2.5851111854291315
613.0862070000001,,0.007949681733640888,612.874,0.48100000619888306,-2.5522729841387655
613.551724,,0.012784476525351354,613.336,0.46799999475479126,-2.5804314547265887
614.017241,,0.03952291203740582,613.804,0.4749999940395355,-2.5650159128063867
614.4827590000001,,0.0484799641519637,614.267,0.4779999852180481,-2.55831841766016
614.948276,,0.032882881635079415,614.733,0.4699999988079071,-2.575593773253921
615.4137929999999,,0.0027857634088584247,615.196,0.4740000069141388,-2.56673748940692
615.8793099999999,,0.04203047397029861,615.661,0.45500001311302185,-2.6080065204016645
616.344828,,0.05640598213962836,616.126,0.46799999475479126,-2.579579027818831
616.810345,,0.03007973224142133,616.592,0.4690000116825104,-2.5773181553178373
617.275862,,0.014175456001647376,617.056,0.47600001096725464,-2.562010139361279
617.741379,,0.030564812325278357,617.521,0.47600001096725464,-2.561978645355158
618.206897,,0.0004823347868761107,617.986,0.46299999952316284,-2.5902965559499567
618.672414,,0.045163959269274315,618.452,0.46399998664855957,-2.58814090951543
619.137931,,0.05042610275913038,618.915,0.46799999475479126,-2.5794762956451436
619.603448,,0.006978077805182668,619.384,0.45100000500679016,-2.6165891044981
620.068966,,0.03920240735265072,619.845,0.453000009059906,-2.6123318054874005
620.534483,,0.046430633739247974,620.314,0.49000000953674316,-2.531842762381724
621.0,,0.026706840661654317,620.778,0.45500001311302185,-2.6082332800810315
621.465517,,0.01937257077370483,621.241,0.4650000035762787,-2.5865980284883654
621.9310340000001,,0.0316436270393593,621.706,0.45100000500679016,-2.6172600900197667
622.396552,,0.02854753366382011,622.173,0.47600001096725464,-2.5629599555911002
622.862069,,0.01504555751801287,622.639,0.45399999618530273,-2.6110566073526327
623.327586,,0.06983420972218722,623.104,0.4620000123977661,-2.593789488897432
623.793103,,0.07970161339883805,623.57,0.45399999618530273,-2.6113723121470143
624.258621,,0.0312681165517659,624.034,0.4490000009536743,-2.6224065312454714
624.724138,,0.027116717685020303,624.5,0.4620000123977661,-2.5942085179331182
625.189655,,0.04131843863490586,624.967,0.4959999918937683,-2.520237799256337
625.655172,,0.007950211850222473,625.425,0.492000013589859,-2.529030094755812
626.1206900000001,,0.03112089152405087,625.896,0.4429999887943268,-2.6358343523090237
626.5862070000001,,0.03737451051768012,626.359,0.4569999873638153,-2.605356530061993
627.0517239999999,,0.010060411760880617,626.822,0.46700000762939453,-2.5835656678600514
627.5172409999999,,0.023718258137728074,627.285,0.4699999988079071,-2.576997217729278
627.982759,,0.04041323675556721,627.751,0.4690000116825104,-2.5791157176078077
628.448276,,0.032360876893251275,628.221,0.45899999141693115,-2.6008163634178074
628.913793,,0.0022434526850470863,628.687,0.5740000009536743,-2.3501606613075148
629.37931,,0.03370937748734652,629.151,0.4519999921321869,-2.6158210793300865
629.844828,,0.04477680585971583,629.61,0.4309999942779541,-2.6614208688116006
630.3103450000001,,0.012963671225417764,630.075,0.4659999907016754,-2.585006155240217
630.7758620000001,,0.036796360405049675,630.541,0.4339999854564667,-2.6545551663930933
631.2413789999999,,0.05182999799371307,631.008,0.45899999141693115,-2.5999202531898047
631.706897,,0.007744138683889675,631.474,0.45899999141693115,-2.5997551357457107
632.172414,,0.056239207249069674,631.937,0.45899999141693115,-2.599597742052931
632.637931,,0.07374129744282698,632.407,0.46399998664855957,-2.588559137874814
633.103448,,0.027856284445534125,632.867,0.5649999976158142,-2.3683841646876864
633.568966,,0.02920753510729726,633.337,0.4490000009536743,-2.6209920819638333
634.034483,,0.044236265962928935,633.8,0.4740000069141388,-2.566431769005098
634.5,,0.025344527032409983,634.263,0.4519999921321869,-2.6142937671356705
634.9655170000001,,0.01634929406785948,634.728,0.46799999475479126,-2.5793949144687622
635.431034,,0.028607614049093857,635.192,0.46000000834465027,-2.5968126832501266
635.8965519999999,,0.026413235519798302,635.658,0.46399998664855957,-2.5881161263715278
636.362069,,0.01773590844160891,636.124,0.46299999952316284,-2.590341693831394
636.827586,,0.07460356850462113,636.59,0.45100000500679016,-2.6165602623987843
637.293103,,0.08603949646638447,637.055,0.44600000977516174,-2.6275545748664912
637.7586210000001,,0.03687703147755096,637.521,0.4569999873638153,-2.6037141410134543
638.224138,,0.02471264601582647,637.985,0.46700000762939453,-2.5820717090951244
638.689655,,0.04320253368313945,638.451,0.47200000286102295,-2.571337132121872
639.155172,,0.013214492821702676,638.915,0.45100000500679016,-2.6172573500418244
639.62069,,0.024467640558383928,639.378,0.47699999809265137,-2.560786276821151
640.086207,,0.030819276872439526,639.841,0.46399998664855957,-2.589282312554803
640.551724,,0.004156718505356492,640.311,0.4740000069141388,-2.5676638619747956
641.017241,,0.028263525770727393,640.774,0.4620000123977661,-2.593965429237292
641.482759,,0.04211005972813545,641.236,0.48500001430511475,-2.5439992176462267
641.9482760000001,,0.030367918300718735,641.702,0.47200000286102295,-2.572444806705223
642.413793,,0.0016359004443724573,642.167,0.46399998664855957,-2.58997421359971
642.87931,,0.0357746579265518,642.632,0.46700000762939453,-2.583513070700444
643.344828,,0.04346133712871708,643.1,0.4620000123977661,-2.5944538315130963
643.810345,,0.01158837343885062,643.565,0.45100000500679016,-2.618438184121603
644.275862,,0.03352216905392088,644.031,0.46000000834465027,-2.59882099940071
644.7413789999999,,0.045005352548322546,644.496,0.4880000054836273,-2.537780576005347
645.206897,,0.005510821107481438,644.964,0.4620000123977661,-2.594358643679215
645.672414,,0.047463297280154255,645.422,0.46700000762939453,-2.583372361023123
646.1379310000001,,0.05776616553263879,645.885,0.49000000953674316,-2.5331467080768535
646.6034480000001,,0.014930066227645858,646.355,0.4699999988079071,-2.5765821599317564
647.0689659999999,,0.03389523662303743,646.816,0.47600001096725464,-2.563356087674527
647.534483,,0.04467594075741439,647.285,0.46299999952316284,-2.5915127430425975
648.0,,0.02792813423258023,647.751,0.453000009059906,-2.6131271931422853
648.465517,,0.02273039924707832,648.214,0.4749999940395355,-2.5650239694652193
648.931034,,0.035691520496705015,648.68,0.45500001311302185,-2.608427788158353
649.396552,,0.030597572476861894,649.144,0.45899999141693115,-2.5995531596700974
649.862069,,0.017309254430406953,649.61,0.4880000054836273,-2.536225602332369
650.327586,,0.07548313197320951,650.074,0.4659999907016754,-2.584026104606114
650.7931030000001,,0.08439066732972028,650.539,0.4620000123977661,-2.5926318555690333
651.258621,,0.03089453467873159,651.004,0.45100000500679016,-2.6165131601603115
651.7241379999999,,0.032848607861350805,651.47,0.45399999618530273,-2.6099211732774545
652.189655,,0.04942404883490514,651.93,0.44999998807907104,-2.618609270094221
652.655172,,0.015759627052614408,652.399,0.4620000123977661,-2.5924690000617012
653.12069,,0.02363142413723392,652.867,0.46000000834465027,-2.5968594132927856
653.5862070000001,,0.028616705415366248,653.329,0.48500001430511475,-2.542454093913463
654.051724,,0.0007281364519946144,653.797,0.45899999141693115,-2.599185458227868
654.517241,,0.0354295031041721,654.259,0.48399999737739563,-2.5448285806780087
654.982759,,0.05103704908494862,654.725,0.46399998664855957,-2.588530558352671
655.448276,,0.040757646954280954,655.191,0.4860000014305115,-2.5407448925757863
655.9137929999999,,0.009076351856315626,655.657,0.48100000619888306,-2.5517938923087167
656.37931,,0.027129460036269766,656.115,0.4650000035762787,-2.5868147517962266
656.844828,,0.03903355509558026,656.58,0.48500001430511475,-2.543406590543576
657.310345,,0.011055554002061383,657.045,0.45500001311302185,-2.608928732605064
657.7758620000001,,0.03342243721605619,657.511,0.4560000002384186,-2.606906724518493
658.241379,,0.04802168568702121,657.978,0.4880000054836273,-2.5373360044009194
658.7068969999999,,0.012533963768081564,658.443,0.46299999952316284,-2.59193289866901
659.172414,,0.03914634812943381,658.911,0.4620000123977661,-2.5942234420370704
659.637931,,0.05167253760105881,659.374,0.47999998927116394,-2.5550980411029625
660.103448,,0.012092487727717536,659.837,0.4659999907016754,-2.5856647717716874
660.568966,,0.03501836267137413,660.3,0.45399999618530273,-2.61184821112088
661.034483,,0.04526206604738519,660.767,0.45899999141693115,-2.600968195068447
661.5,,0.02678376009961731,661.237,0.4690000116825104,-2.579167938978298
661.965517,,0.018013730029655145,661.695,0.46399998664855957,-2.590020599048847
662.4310340000001,,0.028345202067218175,662.166,0.45899999141693115,-2.600847509715723
662.8965519999999,,0.025036990059249736,662.625,0.4569999873638153,-2.6051149825090922
663.362069,,0.0168355917813006,663.092,0.4819999933242798,-2.5505375984179124
663.827586,,0.0695750174415779,663.558,0.43799999356269836,-2.646268739210197
664.293103,,0.07913083157696614,664.022,0.46799999475479126,-2.5807657724779687
664.7586210000001,,0.03277247678704008,664.487,0.46299999952316284,-2.5915052377336365
665.224138,,0.02329743402816563,664.95,0.4699999988079071,-2.5760943995130674
665.689655,,0.03847227528815872,665.42,0.4699999988079071,-2.5759318675170912
666.155172,,0.010379373692531,665.882,0.46299999952316284,-2.5910221783885046
666.62069,,0.022432478290494204,666.351,0.47600001096725464,-2.5625462921684043
667.086207,,0.02589949239077398,666.811,0.46399998664855957,-2.5885477181510144
667.5517239999999,,0.0002455010720970889,667.281,0.4169999957084656,-2.690817919644162
668.017241,,0.03034878453430699,667.74,0.45100000500679016,-2.6166385772936076
668.482759,,0.04532244795265274,668.21,0.4860000014305115,-2.5403035470243136
668.948276,,0.037246104777055436,668.676,0.4519999921321869,-2.6143192251315237
669.413793,,0.0075618459352197135,669.141,0.48100000619888306,-2.5511055499384607
669.87931,,0.027654986122548915,669.607,0.45899999141693115,-2.599029544439214
670.3448279999999,,0.036768551912307226,670.066,0.460999995470047,-2.5946928706469845
670.810345,,0.001795159092537752,670.532,0.46399998664855957,-2.588204286814022
671.275862,,0.050718110033508707,670.996,0.46700000762939453,-2.581740877399355
671.7413789999999,,0.06638224154997155,671.462,0.45899999141693115,-2.599265946465952
672.206897,,0.02052277650440561,671.93,0.5049999952316284,-2.4991639440460167
672.672414,,0.04650061088184632,672.392,0.45500001311302185,-2.608228487991665
673.137931,,0.06682987254734672,672.859,0.47600001096725464,-2.562622283729709
673.6034480000001,,0.022862587619861686,673.321,0.46799999475479126,-2.5802066207097956
674.068966,,0.03251891489640047,673.785,0.46399998664855957,-2.589081814481362
