Trial: ,20
Threshold: ,0.0
Maximum EMG: ,0.027908700993888536
Success: ,True

EMG Time,Raw EMG,Filtered EMG,Force Time,Raw Force (V),Filtered Force (N)
0.0,samples,4.823635813771363e-06,0.47,0.5199999809265137,-2.466716252627634
0.46551699999999996,time,4.94884935654129e-06,0.932,0.5180000066757202,-2.471181768022958
0.9310339999999999,value,5.061831911260043e-06,1.4,0.527999997138977,-2.449512188457687
1.396552,,5.161652559700999e-06,1.862,0.5299999713897705,-2.445276828058581
1.862069,,5.247387091110063e-06,2.327,0.5440000295639038,-2.4148985512583065
2.327586,,5.3181215859573215e-06,2.792,0.5270000100135803,-2.452055946421536
2.793103,,5.37295611778351e-06,3.258,0.5389999747276306,-2.42602671673308
3.258621,,5.411008565047517e-06,3.725,0.5490000247955322,-2.4043452602017252
3.724138,,5.431418524139532e-06,4.191,0.4959999918937683,-2.519907020118881
4.189654999999999,,5.433351313982331e-06,4.651,0.550000011920929,-2.402339523356654
4.655172,,5.4160020619031074e-06,5.117,0.5529999732971191,-2.395866273339459
5.12069,,5.378599859723003e-06,5.581,0.5490000247955322,-2.4046235779454816
5.586207,,5.320411978283882e-06,6.051,0.5270000100135803,-2.4525762585502933
6.051723999999999,,5.2407481279148695e-06,6.514,0.5400000214576721,-2.424255785660673
6.517241,,5.138964751637683e-06,6.977,0.5329999923706055,-2.439488065233432
6.982759,,5.014469337222994e-06,7.444,0.5329999923706055,-2.439449993609191
7.448276,,4.866724733543086e-06,7.906,0.5370000004768372,-2.430678723012167
7.913793000000001,,4.695253456022213e-06,8.372,0.5270000100135803,-2.452391603284841
8.379309999999998,,4.499641965368486e-06,8.842,0.531000018119812,-2.4435887585241045
8.844828000000001,,4.279544903183358e-06,9.3,0.5289999842643738,-2.447845798665054
9.310345,,4.034689267489961e-06,9.766,0.5210000276565552,-2.4651653924297166
9.775862,,3.7648785107033413e-06,10.232,0.5460000038146973,-2.4105834149937397
10.241379,,3.4699965420872713e-06,10.696,0.5429999828338623,-2.4169997595676214
10.706897,,3.150011616307296e-06,11.162,0.5189999938011169,-2.469167198406863
11.172414,,2.8049800893014335e-06,11.629,0.5419999957084656,-2.4189415047153986
11.637931,,2.435050022351846e-06,12.094,0.5339999794960022,-2.436260288827916
12.103447999999998,,2.0404646149562667e-06,12.556,0.5379999876022339,-2.4274443771253735
12.568966000000001,,1.6215654468702386e-06,13.026,0.5249999761581421,-2.4556777366555065
13.034483,,1.178795509523688e-06,13.488,0.5630000233650208,-2.3728142207108394
13.5,,7.127020069110795e-07,13.95,0.5339999794960022,-2.435936221349137
13.965517,,2.2393890601660895e-07,14.418,0.5329999923706055,-2.4380738208054766
14.431034,,2.867307831325164e-07,14.881,0.5540000200271606,-2.39230041118936
14.896552,,8.184330175877189e-07,15.347,0.5170000195503235,-2.4729086501786424
15.362069,,1.370181041399621e-06,15.81,0.5260000228881836,-2.4533199304612348
15.827586000000002,,1.9408740347048804e-06,16.276,0.5270000100135803,-2.45118125711881
16.293103,,2.5292961110098324e-06,16.741,0.47699999809265137,-2.560174196306236
16.758621,,3.1341156812823193e-06,17.207,0.5419999957084656,-2.4186419228322
17.224138,,3.7538852029594923e-06,17.674,0.5210000276565552,-2.4644894928360253
17.689655,,4.387041331389471e-06,18.139,0.5239999890327454,-2.458062460063316
18.155172,,5.031905490546944e-06,18.607,0.5419999957084656,-2.418965207504173
18.62069,,5.686684879095725e-06,19.065,0.49000000953674316,-2.532379810498861
19.086207,,6.34947392701373e-06,19.533,0.5059999823570251,-2.4976504495869674
19.551724,,7.018256217047112e-06,19.995,0.5490000247955322,-2.4040972651604493
20.017241000000002,,7.690906884219631e-06,20.463,0.5389999747276306,-2.4260069902770156
20.482758999999998,,8.365195505490705e-06,20.925,0.5260000228881836,-2.4544429012377185
20.948276,,9.038789490430881e-06,21.396,0.550000011920929,-2.402256239448981
21.413793000000002,,9.709257982467106e-06,21.858,0.5260000228881836,-2.4546288421910893
21.87931,,1.0374076278843001e-05,22.324,0.5270000100135803,-2.4525173662765556
22.344828,,1.1030630775942266e-05,22.789,0.5270000100135803,-2.452565079094064
22.810344999999998,,1.1676224445038026e-05,23.255,0.5419999957084656,-2.4199119760656034
23.275862,,1.2308082841859003e-05,23.721,0.5210000276565552,-2.4656681139377534
23.741379,,1.2923360651607155e-05,24.187,0.5239999890327454,-2.459115140338476
24.206897,,1.3519148769223727e-05,24.651,0.5230000019073486,-2.4612557951514296
24.672414,,1.4092481912784048e-05,25.117,0.5490000247955322,-2.4045526622967253
25.137931,,1.4640346765909797e-05,25.577,0.5370000004768372,-2.430619055152759
25.603448,,1.5159690643024256e-05,26.047,0.5669999718666077,-2.3651646463232607
26.068966,,1.5647430669146075e-05,26.51,0.546999990940094,-2.408627386806289
26.534483,,1.6100463463724408e-05,26.972,0.44600000977516174,-2.6285509339727717
27.0,,1.6515675315768513e-05,27.44,0.5419999957084656,-2.4192768489803558
27.465517,,1.6889952835223358e-05,27.903,0.5329999923706055,-2.438759224949128
27.931034,,1.7220194063195392e-05,28.368,0.5299999713897705,-2.4451703119440604
28.396552,,1.7503320021246067e-05,28.831,0.5419999957084656,-2.418905822061447
28.862069,,1.7736286677551392e-05,29.296,0.5519999861717224,-2.397005899180925
29.327586,,1.79160973052812e-05,29.762,0.531000018119812,-2.4426543237926452
29.793103000000002,,1.8039815206089503e-05,30.228,0.531000018119812,-2.44256513906845
30.258620999999998,,1.8104576769135342e-05,30.693,0.5379999876022339,-2.4272423380001933
30.724138,,1.810760483358008e-05,31.158,0.5389999747276306,-2.4250101263937562
31.189655000000002,,1.8046222320041235e-05,31.625,0.5260000228881836,-2.453299286299985
31.655172000000004,,1.7917866094033607e-05,32.091,0.5170000195503235,-2.4728960236513555
32.12069,,1.7720101022004892e-05,32.551,0.5289999842643738,-2.446763961494756
32.586207,,1.7450634178185617e-05,33.021,0.5289999842643738,-2.4467977496504703
33.051724,,1.710732915813113e-05,33.482,0.531000018119812,-2.4424950222169937
33.517241000000006,,1.668822045254786e-05,33.952,0.527999997138977,-2.4491048566316116
33.982759,,1.619152783277701e-05,34.415,0.5189999938011169,-2.468803772048134
34.448276,,1.561567069716732e-05,34.878,0.5350000262260437,-2.434050960025705
34.913793,,1.4959282325515573e-05,35.343,0.5189999938011169,-2.4690263350356667
35.37931,,1.4221223986800022e-05,35.81,0.5299999713897705,-2.445186000073598
35.844828,,1.340059884358944e-05,36.276,0.5230000019073486,-2.4605653327564787
36.310345,,1.2496765594790116e-05,36.741,0.5410000085830688,-2.421478411379106
36.775862,,1.1509351796806619e-05,37.207,0.6290000081062317,-2.2298799163545984
37.241378999999995,,1.0438266801750346e-05,37.666,0.5419999957084656,-2.4195332968590386
37.706897000000005,,9.28371425004492e-06,38.132,0.5419999957084656,-2.4196308595230946
38.172414,,8.046204053660198e-06,38.596,0.5339999794960022,-2.437143448156158
38.637931,,6.72656380526838e-06,39.061,0.5199999809265137,-2.467712021981726
39.103448,,5.3259495478675595e-06,39.529,0.5199999809265137,-2.467762544143193
39.568965999999996,,3.845855838871062e-06,39.991,0.47600001096725464,-2.563656384794455
40.034483,,2.2881250423253366e-06,40.455,0.5299999713897705,-2.4460253370115352
40.5,,6.549557828057507e-07,40.925,0.515999972820282,-2.476523549901793
40.965517,,1.0510895053419175e-06,41.396,0.5260000228881836,-2.45471463952844
41.431034,,2.827077999386443e-06,41.851,0.5199999809265137,-2.4677454421956506
41.896552,,4.669700945583965e-06,42.316,0.5419999957084656,-2.4197557681952775
42.362069000000005,,6.575269217029895e-06,42.781,0.5299999713897705,-2.445823177266705
42.827586000000004,,8.539710035343581e-06,43.247,0.5429999828338623,-2.41740907690448
43.293103,,1.0558564918126798e-05,43.714,0.5460000038146973,-2.410768466053481
43.758621,,1.2626988912442747e-05,44.18,0.5360000133514404,-2.432440110758566
44.224138,,1.4739751172579898e-05,44.645,0.5379999876022339,-2.427961385520771
44.689655,,1.6891236938089362e-05,45.111,0.492000013589859,-2.5280555218627114
45.155172,,1.9075450965510902e-05,45.573,0.5419999957084656,-2.4190015450221485
45.620689999999996,,2.128602246432763e-05,46.035,0.5339999794960022,-2.436313958517389
46.086206999999995,,2.351621158450988e-05,46.505,0.531000018119812,-2.442740514365542
46.551724,,2.5758917499523167e-05,46.967,0.5289999842643738,-2.446999543053122
47.017241,,2.800668812488253e-05,47.437,0.49000000953674316,-2.531883145407877
47.482759,,3.0251731508236162e-05,47.899,0.5400000214576721,-2.422884659380813
47.948276,,3.248592892255661e-05,48.364,0.5289999842643738,-2.4468025025610225
48.413793,,3.4700849689310194e-05,48.827,0.5419999957084656,-2.4184518637553967
48.879310000000004,,3.688776775346874e-05,49.293,0.5170000195503235,-2.472910086129158
49.344828,,3.9037680026926696e-05,49.759,0.5180000066757202,-2.470744659939351
49.810345,,4.114132651129783e-05,50.225,0.5320000052452087,-2.4402777398803184
50.275862,,4.318921220519612e-05,50.691,0.5059999823570251,-2.496976790083461
50.741379,,4.517163079496405e-05,51.15,0.5239999890327454,-2.4578339923111208
51.206897,,4.7078690121408884e-05,51.615,0.5260000228881836,-2.4535659764218196
51.672414,,4.890033940845418e-05,52.08,0.5389999747276306,-2.425346204893967
52.137931,,5.062639823272377e-05,52.551,0.5440000295639038,-2.4145650287715084
52.603448,,5.224658720596219e-05,53.013,0.5370000004768372,-2.429933938221761
53.068966,,5.375056033487529e-05,53.481,0.5540000200271606,-2.393017767383371
53.534483,,5.5127939015464455e-05,53.943,0.5270000100135803,-2.4519614433294223
54.0,,5.636834761124608e-05,54.407,0.5299999713897705,-2.4455422208542448
54.465517,,5.746145055691482e-05,54.877,0.5419999957084656,-2.4195084793600627
54.931034,,5.839699092104538e-05,55.335,0.550000011920929,-2.4021791263609513
55.396552,,5.916483035335721e-05,55.8,0.5419999957084656,-2.4196949084681467
55.862069,,5.975499033391218e-05,56.265,0.5299999713897705,-2.4459100367493503
56.327586,,6.015769463340357e-05,56.733,0.531000018119812,-2.4437860058787195
56.793102999999995,,6.03634128854518e-05,57.199,0.5429999828338623,-2.4176789932890053
57.258621000000005,,6.03629051635766e-05,57.666,0.5339999794960022,-2.43730430496388
57.724138,,6.014726744729575e-05,58.131,0.5419999957084656,-2.419872871078262
58.189655,,5.970797785363764e-05,58.596,0.5299999713897705,-2.445995093195576
58.655172,,5.903694350228045e-05,59.062,0.527999997138977,-2.450312319027555
59.120689999999996,,5.812654787457653e-05,59.525,0.5400000214576721,-2.4241113136849197
59.586207,,5.6969698518921385e-05,59.987,0.5490000247955322,-2.4044302038464305
60.051724,,5.5559874947316416e-05,60.451,0.5379999876022339,-2.4283077791911505
60.517241,,5.3891176560587666e-05,60.921,0.531000018119812,-2.4434590627048434
60.982758999999994,,5.1958370432596414e-05,61.388,0.5329999923706055,-2.4389942864559235
61.448276,,4.9756938776948264e-05,61.845,0.5540000200271606,-2.3931293713068995
61.913793,,4.728312591321143e-05,62.311,0.5189999938011169,-2.4692662107215204
62.379310000000004,,4.453398454353087e-05,62.778,0.5419999957084656,-2.4190423039382325
62.84482800000001,,4.150742114480989e-05,63.243,0.5270000100135803,-2.4516112473056997
63.310345000000005,,3.820224027636361e-05,63.711,0.5429999828338623,-2.416649217984856
63.775862000000004,,3.461818759816633e-05,64.176,0.5440000295639038,-2.4143763121916386
64.241379,,3.0755991390556664e-05,64.641,0.6159999966621399,-2.2574299092467167
64.706897,,2.661740236256695e-05,65.106,0.5419999957084656,-2.4185776576273055
65.172414,,2.220523153294488e-05,65.569,0.46399998664855957,-2.588456445098931
65.637931,,1.7523385965472454e-05,66.031,0.5410000085830688,-2.4206654837573645
66.103448,,1.2576902138396178e-05,66.499,0.5239999890327454,-2.4576884928867337
66.56896599999999,,7.371976726698665e-06,66.962,0.5460000038146973,-2.409764114390979
67.03448300000001,,1.915994575599488e-06,67.425,0.5419999957084656,-2.418504043391943
67.5,,3.782446355894161e-06,67.895,0.5370000004768372,-2.4294410665359445
67.965517,,9.713513301326946e-06,68.361,0.5249999761581421,-2.455646414768974
68.431034,,1.5866120460888182e-05,68.824,0.49399998784065247,-2.5232631162881622
68.896552,,2.2227914458178294e-05,69.29,0.5540000200271606,-2.3926377916728567
69.362069,,2.8785263690733497e-05,69.755,0.5299999713897705,-2.445030338241126
69.827586,,3.552325178063966e-05,70.221,0.5360000133514404,-2.4320709888899517
70.293103,,4.2425675325871946e-05,70.685,0.5339999794960022,-2.43654578508663
70.75862099999999,,4.9475046146341885e-05,71.151,0.5170000195503235,-2.4737018411543077
71.22413800000001,,5.665259821099925e-05,71.615,0.5360000133514404,-2.4324251900550684
71.689655,,6.393829942370886e-05,72.081,0.5519999861717224,-2.39767900079552
72.15517200000001,,7.131086843598814e-05,72.544,0.5260000228881836,-2.454426704885739
72.62069,,7.874779664404242e-05,73.006,0.5419999957084656,-2.4196594701053717
73.086207,,8.622537551586509e-05,73.474,0.5299999713897705,-2.44588011322422
73.551724,,9.371872938147587e-05,73.936,0.5249999761581421,-2.456833917717996
74.017241,,0.00010120185380565421,74.407,0.5199999809265137,-2.467770280777741
74.482759,,0.00010864765964779017,74.869,0.5299999713897705,-2.4460083554877095
74.94827599999999,,0.00011602802289773146,75.335,0.5389999747276306,-2.4264053010159636
75.41379300000001,,0.00012331384035976423,75.8,0.527999997138977,-2.45035495980288
75.87931,,0.00013047509123914407,76.265,0.5339999794960022,-2.4372479909980367
76.344828,,0.00013748090466691199,76.725,0.5189999938011169,-2.46987415631225
76.810345,,0.00014429963317911422,77.191,0.5460000038146973,-2.4109800848565457
77.275862,,0.00015089893214602403,77.656,0.5339999794960022,-2.4370379178667116
77.741379,,0.00015724584512557047,78.121,0.550000011920929,-2.4020800527413764
78.206897,,0.00016330689509295437,78.595,0.5830000042915344,-2.330073713487191
78.67241399999999,,0.0001690481814754155,79.054,0.5460000038146973,-2.4105636910477153
79.137931,,0.00017443548289735916,79.522,0.515999972820282,-2.475798994963172
79.603448,,0.00017943436551660363,79.984,0.5239999890327454,-2.458246741271408
80.068966,,0.00018401029680743087,80.448,0.5299999713897705,-2.44505692018603
80.53448300000001,,0.00018812876462047468,80.91,0.5260000228881836,-2.45366172031871
81.0,,0.00019175540132332673,81.376,0.5379999876022339,-2.427419668212291
81.465517,,0.0001948561127991573,81.846,0.5419999957084656,-2.4186205192196817
81.931034,,0.00019739721205370625,82.311,0.5170000195503235,-2.4730185586049296
82.396552,,0.00019934555715377908,82.77,0.5410000085830688,-2.420681677720008
82.86206899999999,,0.00020066869319297796,83.235,0.5239999890327454,-2.4576895800065515
83.327586,,0.0002013349979528834,83.707,0.5410000085830688,-2.420644173676669
83.79310299999999,,0.00020131383090038414,84.165,0.5419999957084656,-2.418477954877591
84.258621,,0.00020057568513442094,84.63,0.5299999713897705,-2.444654407610747
84.72413800000001,,0.00019909234186816786,85.096,0.5370000004768372,-2.429455935480407
85.189655,,0.0001968370270057289,85.566,0.5329999923706055,-2.4382406977546354
85.65517200000001,,0.00019378456934588534,86.028,0.5419999957084656,-2.418718774212858
86.12069,,0.00018991155991939865,86.496,0.5490000247955322,-2.4035669373443294
86.586207,,0.00018519651194097645,86.958,0.5799999833106995,-2.3361366058678334
87.051724,,0.00017962002083235677,87.422,0.5339999794960022,-2.43646756995943
87.517241,,0.0001731649237491787,87.892,0.5370000004768372,-2.430047918976031
87.98275899999999,,0.00016581645802151134,88.35,0.5429999828338623,-2.4170930004311417
88.448276,,0.0001575624178962255,88.821,0.5419999957084656,-2.4193855855456645
88.913793,,0.000148393308948942,89.286,0.5230000019073486,-2.4608879558054553
89.37931,,0.00013830249951420255,89.751,0.5170000195503235,-2.4740597252678507
89.844828,,0.000127286368464908,90.217,0.5410000085830688,-2.421861211828074
90.310345,,0.00011534444865608227,90.677,0.5540000200271606,-2.3936133045944414
90.775862,,0.00010247956533377383,91.143,0.5419999957084656,-2.4198143258866853
91.241379,,8.869796879752584e-05,91.608,0.546999990940094,-2.4089593288632996
91.706897,,7.400946059445327e-05,92.073,0.5270000100135803,-2.452550868938691
92.17241399999999,,5.8427512514685525e-05,92.536,0.5410000085830688,-2.4220485798384783
92.63793100000001,,4.196937765188196e-05,93.006,0.5419999957084656,-2.419848794974205
93.103448,,2.4656192788826254e-05,93.467,0.5299999713897705,-2.44595201368345
93.568966,,6.513071366864064e-06,93.936,0.5460000038146973,-2.4110347295192236
94.03448300000001,,1.243081370072128e-05,94.399,0.5270000100135803,-2.4523536542818896
94.5,,3.214215810729461e-05,94.862,0.5180000066757202,-2.471872234383397
94.965517,,5.258346585253392e-05,95.328,0.5410000085830688,-2.421662914241603
95.431034,,7.371300128264011e-05,95.795,0.5540000200271606,-2.3932308123315926
95.896552,,9.548475417794608e-05,96.261,0.5370000004768372,-2.4301514707157907
96.36206899999999,,0.0001178484185791293,96.726,0.5180000066757202,-2.471426623801163
96.827586,,0.00014074938602446716,97.192,0.550000011920929,-2.4015917274088165
97.293103,,0.00016412875384863156,97.652,0.5419999957084656,-2.4189065616835044
97.758621,,0.0001879233491683362,98.118,0.5619999766349792,-2.375225526045913
98.224138,,0.0002120657691516844,98.581,0.5109999775886536,-2.4862383221351614
98.689655,,0.00023648443813627473,99.05,0.5540000200271606,-2.3924713809635607
99.155172,,0.0002611036821259789,99.511,0.5329999923706055,-2.438153762791827
99.62069,,0.0002858438211577953,99.98,0.5370000004768372,-2.4293874267413558
100.086207,,0.0003106212799882918,100.444,0.5329999923706055,-2.4380698036731183
100.551724,,0.0003353487175038969,100.906,0.5410000085830688,-2.4206287652148615
101.017241,,0.00035993517521068616,101.372,0.5329999923706055,-2.4380669741025702
101.482759,,0.00038428624510738546,101.842,0.5230000019073486,-2.4598833896417642
101.948276,,0.0004083042571901042,102.3,0.5339999794960022,-2.435968747347548
102.413793,,0.0004318884867788882,102.769,0.5519999861717224,-2.396822055076716
102.87931,,0.00045493538179461465,103.235,0.550000011920929,-2.4012640933688556
103.344828,,0.00047733881005011954,103.7,0.5370000004768372,-2.429684753665715
103.810345,,0.0004989903265518648,104.166,0.5419999957084656,-2.4189008009613784
104.275862,,0.0005197794607380204,104.625,0.5360000133514404,-2.4320901346627397
104.741379,,0.0005395940235056996,105.091,0.5170000195503235,-2.473607302628741
105.206897,,0.000558320433804383,105.559,0.5419999957084656,-2.4192661994496856
105.672414,,0.0005758440644944671,106.021,0.5249999761581421,-2.456426722504275
106.13793100000001,,0.0005920496070895494,106.492,0.5419999957084656,-2.4195077149574913
106.603448,,0.0006068214549187134,106.955,0.5410000085830688,-2.4217952733474983
107.068966,,0.0006200441041609041,107.418,0.5379999876022339,-2.428427624337937
107.534483,,0.000631602572117733,107.88,0.5230000019073486,-2.4611886516798913
108.0,,0.0006413828320039341,108.346,0.546999990940094,-2.4089650888093828
108.46551699999999,,0.0006492722634464945,108.81,0.5,-2.5114065356336654
108.931034,,0.0006551601177944527,109.275,0.5519999861717224,-2.398141594051704
109.396552,,0.0006589379972517987,109.74,0.5440000295639038,-2.415573496226368
109.862069,,0.000660500346756114,110.206,0.5220000147819519,-2.463484095684105
110.32758600000001,,0.0006597449574358699,110.671,0.5350000262260437,-2.4351205177052235
110.793103,,0.0006565734803899938,111.136,0.550000011920929,-2.4023789573982497
111.258621,,0.0006508919494447548,111.603,0.5460000038146973,-2.411011878264921
111.724138,,0.0006426113114555636,112.069,0.5410000085830688,-2.4218057864309235
112.189655,,0.0006316479626352813,112.537,0.5460000038146973,-2.410798560775551
112.655172,,0.0006179242893064941,113.0,0.5239999890327454,-2.4586038158455072
113.12069,,0.0006013692113932767,113.462,0.5170000195503235,-2.4737226534313015
113.586207,,0.0005819187268886728,113.925,0.5529999732971191,-2.395156993817085
114.051724,,0.0005595164554578295,114.391,0.531000018119812,-2.44295316479671
114.51724100000001,,0.0005341141792638767,114.862,0.5460000038146973,-2.4101436319489786
114.982759,,0.0005056723790346217,115.32,0.5299999713897705,-2.444880466069079
115.448276,,0.00047416076332338334,115.785,0.5529999732971191,-2.3946616498899904
115.913793,,0.0004395587888572122,116.251,0.5239999890327454,-2.4577476353349144
116.37931,,0.0004018561698107642,116.718,0.5270000100135803,-2.451135436195607
116.84482799999999,,0.0003610533737946389,117.184,0.531000018119812,-2.4423659688725348
117.310345,,0.00031716210230348086,117.648,0.527999997138977,-2.448870074701
117.77586199999999,,0.0002702057533319911,118.114,0.5400000214576721,-2.42271820087445
118.241379,,0.0002202198638366011,118.577,0.5440000295639038,-2.414019319660872
118.70689700000001,,0.0001672525296973215,119.04,0.5419999957084656,-2.4184155312735687
119.172414,,0.00011136480081861026,119.51,0.5419999957084656,-2.4184764866018567
119.63793100000001,,5.263104900042859e-05,119.973,0.5370000004768372,-2.4294512901034597
120.103448,,8.860693788679886e-06,120.436,0.5509999990463257,-2.3990500661053886
120.568966,,7.300842909536752e-05,120.906,0.5239999890327454,-2.45798906143568
121.034483,,0.00013969591996278006,121.365,0.5180000066757202,-2.471189543198122
121.5,,0.0002087924555223982,121.835,0.5659999847412109,-2.3667523734627136
121.96551699999999,,0.00028015265447191675,122.3,0.5669999718666077,-2.364715313614997
122.431034,,0.0003536163096671339,122.761,0.5410000085830688,-2.4215007367017507
122.896552,,0.0004290082759985503,123.227,0.5210000276565552,-2.465210630210083
123.362069,,0.0005061384036561504,123.692,0.5260000228881836,-2.4544478355214645
123.827586,,0.0005848015188074329,124.157,0.5460000038146973,-2.4109947929564366
124.293103,,0.000664777453623156,124.622,0.5339999794960022,-2.4372437902404216
124.758621,,0.0007458311274837245,125.088,0.5210000276565552,-2.4656536555676474
125.22413800000001,,0.0008277126810894425,125.551,0.5180000066757202,-2.472257603034047
125.68965500000002,,0.0009101576650793203,126.021,0.5170000195503235,-2.4744827710208956
126.15517200000001,,0.000992887284629356,126.481,0.5529999732971191,-2.3960744184400395
126.62069000000001,,0.0010756087013483369,126.951,0.5789999961853027,-2.339425983211608
127.086207,,0.0011580153936273292,127.411,0.5529999732971191,-2.3960396433895372
127.55172400000001,,0.0012397875764442235,127.881,0.5339999794960022,-2.43737647490049
128.017241,,0.0013205926814691847,128.346,0.5540000200271606,-2.3937220404719373
128.48275900000002,,0.0014000858981216906,128.81,0.550000011920929,-2.402333369756819
128.948276,,0.001477910775980305,129.275,0.5299999713897705,-2.445784338060164
129.413793,,0.0015536998887113033,129.74,0.527999997138977,-2.4500050675624316
129.87931,,0.0016270755595475484,130.206,0.5519999861717224,-2.397570585273902
130.344828,,0.0016976506482421344,130.67,0.503000020980835,-2.504171364578091
130.81034499999998,,0.0017650293991089288,131.135,0.5199999809265137,-2.4669810054854806
131.275862,,0.0018288083492080743,131.6,0.5460000038146973,-2.4101865254194563
131.741379,,0.0018885772953908192,132.066,0.5210000276565552,-2.4645105872358113
132.206897,,0.0019439203192210567,132.529,0.5210000276565552,-2.464380543412276
132.67241399999997,,0.0019944168691603246,132.991,0.550000011920929,-2.401085546356008
133.13793099999998,,0.002039642898480393,133.459,0.5450000166893005,-2.4118828125384018
133.60344800000001,,0.002079172055264137,133.921,0.5360000133514404,-2.4314156229216044
134.06896600000002,,0.0021125769204548566,134.387,0.5410000085830688,-2.4204709201424603
134.53448300000002,,0.0021394302932901646,134.852,0.5289999842643738,-2.4465887172275402
135.0,,0.002159306526335407,135.318,0.5339999794960022,-2.4356960273932353
135.465517,,0.002171782907042833,135.785,0.5379999876022339,-2.4270086476119124
135.931034,,0.0021764410719774417,136.251,0.503000020980835,-2.5033149809729633
136.396552,,0.0021728684414743724,136.71,0.5289999842643738,-2.4467496107377626
136.862069,,0.0021606596853192385,137.176,0.5260000228881836,-2.4533881409859095
137.327586,,0.0021394182442702986,137.64,0.5720000267028809,-2.3532919675332074
137.793103,,0.002108757896018802,138.106,0.5220000147819519,-2.462360925364422
138.258621,,0.0020683042954098728,138.573,0.5299999713897705,-2.4450799721803556
138.724138,,0.0020176964457346023,139.036,0.5329999923706055,-2.4387000730279667
139.189655,,0.001956588199692001,139.504,0.5249999761581421,-2.456288661409538
139.655172,,0.0018846499456529968,139.966,0.5389999747276306,-2.4259454841732726
140.12069,,0.0018015703882506675,140.436,0.527999997138977,-2.45006218558404
140.586207,,0.001707058017804818,140.899,0.5339999794960022,-2.4371311546376018
141.05172399999998,,0.0016008421187975197,141.365,0.5189999938011169,-2.4699369419740984
141.51724099999998,,0.0014826740178576791,141.828,0.5540000200271606,-2.393791471309134
141.982759,,0.0013523294237194016,142.294,0.5210000276565552,-2.4657717236573546
142.44827600000002,,0.001209611084183528,142.758,0.5260000228881836,-2.454938724927352
142.913793,,0.0010543493740270923,143.224,0.5019999742507935,-2.507261003359523
143.37931,,0.0008864004887960575,143.691,0.5339999794960022,-2.4375521681321244
143.844828,,0.0007056468760169263,144.157,0.5429999828338623,-2.4179242653566253
144.310345,,0.0005120042511058108,144.622,0.550000011920929,-2.402624908773715
144.77586200000002,,0.00030542912637806586,145.08,0.546999990940094,-2.409084338925956
145.241379,,8.591305499899078e-05,145.547,0.5389999747276306,-2.4264114505707304
145.706897,,0.00014653494781102886,146.01,0.527999997138977,-2.4502523697215355
146.172414,,0.00039188828301046116,146.481,0.5519999861717224,-2.3978223236983047
146.637931,,0.0006500644173350465,146.943,0.503000020980835,-2.5044196890882846
147.103448,,0.0009208926517993319,147.411,0.5210000276565552,-2.46503942571219
147.568966,,0.0012041656104110595,147.873,0.5669999718666077,-2.364653200023091
148.034483,,0.0014997451755019693,148.339,0.5210000276565552,-2.4647023663112195
148.5,,0.0018075399643754646,148.806,0.5419999957084656,-2.4187876697561594
148.965517,,0.0021272686526875102,149.265,0.5540000200271606,-2.3924909377139527
149.43103399999998,,0.002458316898753152,149.736,0.5289999842643738,-2.446818911448027
149.89655199999999,,0.0028001095823263233,150.202,0.574999988079071,-2.346481402489233
150.362069,,0.0031527019446098287,150.666,0.5329999923706055,-2.437887043583214
150.82758600000003,,0.003516486043674707,151.132,0.5460000038146973,-2.4094926286312566
151.293103,,0.0038907417150206803,151.596,0.5299999713897705,-2.444307851178624
151.758621,,0.00427308527262181,152.062,0.5360000133514404,-2.4312231820916126
152.224138,,0.004662010654598728,152.525,0.5339999794960022,-2.4355992100600634
152.68965500000002,,0.005060051739833896,152.987,0.5090000033378601,-2.4901155230028014
153.155172,,0.005471081662556328,153.455,0.5299999713897705,-2.4444448729359767
153.62069,,0.00589165833007418,153.919,0.550000011920929,-2.400980537400661
154.086207,,0.00630967681134299,154.385,0.5180000066757202,-2.4708301906570185
154.551724,,0.006721093184162128,154.848,0.550000011920929,-2.4012667061874446
155.017241,,0.007146039354968445,155.314,0.5320000052452087,-2.440651307960562
155.482759,,0.007607292932930955,155.78,0.527999997138977,-2.449545485653092
155.948276,,0.00807997090448485,156.246,0.5669999718666077,-2.3647627531787747
156.413793,,0.008495676991344623,156.71,0.550000011920929,-2.4019825079684516
156.87931,,0.008849257011236069,157.177,0.527999997138977,-2.450088635309533
157.34482799999998,,0.009275425912951642,157.636,0.5099999904632568,-2.4894692486116923
157.81034499999998,,0.009890347076612838,158.102,0.5429999828338623,-2.417723217708968
158.275862,,0.010507645039672315,158.57,0.5249999761581421,-2.457067505890896
158.741379,,0.010737838619560852,159.032,0.527999997138977,-2.4506352023234377
159.20689700000003,,0.010653379896790476,159.5,0.550000011920929,-2.402780104111366
159.672414,,0.011120041280650056,159.962,0.5640000104904175,-2.372322077160185
160.137931,,0.01269421021143841,160.425,0.5320000052452087,-2.4420478776140273
160.60344800000001,,0.013989828974781439,160.895,0.5360000133514404,-2.4333086069544434
161.06896600000002,,0.012301553854831936,161.361,0.5329999923706055,-2.4397873365472287
161.534483,,0.006865957664122682,161.824,0.5379999876022339,-2.4288057291902776
162.0,,0.00047745899845246686,162.29,0.5299999713897705,-2.4461180132792304
162.465517,,0.0035225752638414257,162.755,0.5260000228881836,-2.4546906617862674
162.931034,,0.004837043815874068,163.22,0.5429999828338623,-2.4174911404071997
163.396552,,0.005302794172395806,163.685,0.5540000200271606,-2.393346671111706
163.862069,,0.005656240638730541,164.151,0.6169999837875366,-2.2558994039088005
164.327586,,0.005149424853560215,164.61,0.531000018119812,-2.4430624599865727
164.793103,,0.0036877426055540816,165.076,0.5320000052452087,-2.440683166467728
165.258621,,0.002503656418462749,165.544,0.5659999847412109,-2.3664157739522147
165.72413799999998,,0.0025591933179473568,166.006,0.5400000214576721,-2.4228798756728716
166.189655,,0.003357151018658952,166.474,0.5249999761581421,-2.455398116050639
166.655172,,0.0037617757219585643,166.936,0.5450000166893005,-2.411688480556173
167.12069,,0.0034914686157215356,167.407,0.5389999747276306,-2.424653075121193
167.58620699999997,,0.0033190922953639504,167.869,0.5180000066757202,-2.470330252737414
168.051724,,0.003987179778437328,168.335,0.531000018119812,-2.4419696208480746
168.517241,,0.0054783680221650154,168.8,0.5419999957084656,-2.4180036864789645
168.98275900000002,,0.0074140855701799,169.265,0.5440000295639038,-2.4136823217323844
169.44827600000002,,0.009542667186641906,169.73,0.515999972820282,-2.474756776343902
169.913793,,0.011499804586132041,170.195,0.5360000133514404,-2.4312905369048043
170.37931,,0.012641088955567212,170.655,0.5389999747276306,-2.4248926821576258
170.844828,,0.012604606708311103,171.12,0.5339999794960022,-2.4359504694763947
171.310345,,0.011752502332205029,171.593,0.5540000200271606,-2.3925631469226483
171.775862,,0.01079164948209935,172.051,0.546999990940094,-2.4080143935781053
172.241379,,0.010192899962766138,172.521,0.5460000038146973,-2.410402184144849
172.706897,,0.009976267320628632,172.984,0.5540000200271606,-2.393184135303845
173.172414,,0.009670008543774738,173.448,0.5230000019073486,-2.460929181114076
173.637931,,0.008484153128507943,173.91,0.5429999828338623,-2.417552958606495
174.103448,,0.006016710398770976,174.376,0.5210000276565552,-2.465663736741342
174.568966,,0.0030412363193548296,174.846,0.5669999718666077,-2.365604298890516
175.034483,,0.0013169998098553478,175.312,0.5210000276565552,-2.4659525347169255
175.5,,0.0022365679075811466,175.77,0.5419999957084656,-2.4202998972057794
175.96551699999998,,0.005592914210008893,176.235,0.5260000228881836,-2.455222708750514
176.43103399999998,,0.009821501184339084,176.7,0.531000018119812,-2.4443574234430967
176.896552,,0.013474708010697445,177.166,0.527999997138977,-2.4508839204141237
177.36206900000002,,0.016374613242477198,177.632,0.527999997138977,-2.450837061349271
177.827586,,0.019414211327454935,178.098,0.5370000004768372,-2.4311460948190295
178.293103,,0.02352431228636455,178.566,0.527999997138977,-2.4506367497406343
178.758621,,0.028956817187937845,179.028,0.5450000166893005,-2.4134516643621087
179.224138,,0.03520293061380278,179.496,0.5170000195503235,-2.474279477568419
179.68965500000002,,0.04105413273180616,179.958,0.5249999761581421,-2.4566554929372537
180.155172,,0.04467874510183317,180.422,0.5410000085830688,-2.421587453456702
180.62069,,0.044042586344686455,180.892,0.5460000038146973,-2.4104754880710857
181.086207,,0.037541224133986834,181.35,0.5400000214576721,-2.42332581859086
181.551724,,0.02457054069912142,181.821,0.5410000085830688,-2.4209298652029076
182.01724099999998,,0.006426909133043242,182.287,0.5210000276565552,-2.4642969317180285
182.482759,,0.012722033846821216,182.751,0.5210000276565552,-2.4641097452001914
182.948276,,0.026908780557931774,183.217,0.5329999923706055,-2.4378036354183243
183.413793,,0.03239495869366987,183.681,0.5210000276565552,-2.463814717843697
183.87931,,0.030941464653511917,184.146,0.5669999718666077,-2.3634977642943844
184.34482799999998,,0.02780304990280096,184.605,0.5170000195503235,-2.4723670594555363
184.81034499999998,,0.026356179450303465,185.071,0.5189999938011169,-2.467986076707851
185.27586200000002,,0.026093310424327363,185.54,0.5210000276565552,-2.4636460975896335
185.74137900000002,,0.025878400621104178,186.003,0.5249999761581421,-2.4549896400655506
186.206897,,0.02686867312986725,186.466,0.531000018119812,-2.442014413832217
186.672414,,0.030789228732138935,186.936,0.5289999842643738,-2.4465041890614625
187.137931,,0.03661228071319201,187.396,0.550000011920929,-2.400916152367491
187.60344800000001,,0.04066858810954701,187.866,0.5299999713897705,-2.4446788210442065
188.06896600000002,,0.04002352795389473,188.332,0.5289999842643738,-2.447067592577879
188.534483,,0.034944844279076105,188.796,0.5370000004768372,-2.429862912310696
189.0,,0.028040323098383932,189.255,0.5339999794960022,-2.436630731289556
189.465517,,0.02164001476390606,189.721,0.5239999890327454,-2.4586493000905727
189.931034,,0.01644156756897609,190.187,0.550000011920929,-2.4022294844701464
190.39655199999999,,0.012352878752077186,190.651,0.5299999713897705,-2.4460132625508746
190.862069,,0.009721310935211442,191.117,0.527999997138977,-2.45056050795584
191.327586,,0.009075543170405197,191.585,0.5360000133514404,-2.433294900324673
191.793103,,0.009875837899989423,192.047,0.5329999923706055,-2.4399627337458023
192.25862099999998,,0.010260518372821952,192.51,0.5299999713897705,-2.4465945689291018
192.72413799999998,,0.008570633614071371,192.98,0.531000018119812,-2.444472669563985
193.189655,,0.005100180912937696,193.444,0.5339999794960022,-2.4379526769229223
193.655172,,0.0018674963498763605,193.906,0.6269999742507935,-2.235310638046119
194.12069000000002,,0.0003975624164198582,194.372,0.527999997138977,-2.4509246728561025
194.586207,,0.00019007136765043347,194.842,0.5350000262260437,-2.435561369120023
195.051724,,0.00017790615003194062,195.3,0.5379999876022339,-2.428877324756139
195.517241,,0.0010414711366367338,195.766,0.5249999761581421,-2.4570207203657097
195.98275900000002,,0.0016700868803599834,196.231,0.5199999809265137,-2.467710078510005
196.448276,,0.001996640505724574,196.696,0.5199999809265137,-2.4674881372991555
196.913793,,0.0031231984145594677,197.161,0.5540000200271606,-2.3931802843565446
197.37931,,0.005751503702181644,197.626,0.5630000233650208,-2.3733327617593205
197.844828,,0.008938913792263081,198.092,0.5370000004768372,-2.429738989472967
198.310345,,0.011026995197575273,198.555,0.5199999809265137,-2.4665469113837077
198.775862,,0.011487025205271905,199.024,0.5379999876022339,-2.427119558554228
199.241379,,0.011417738337476845,199.485,0.5289999842643738,-2.4465397036970433
199.706897,,0.012321030327765126,199.955,0.5249999761581421,-2.455096515327424
200.172414,,0.014579107678956068,200.418,0.5460000038146973,-2.409221791756912
200.63793099999998,,0.01704385573418727,200.881,0.5199999809265137,-2.465782103094064
201.103448,,0.01808441709219582,201.346,0.5400000214576721,-2.4221656952212194
201.568966,,0.01720130309692942,201.81,0.5370000004768372,-2.4287008117825057
202.034483,,0.015514379400033156,202.276,0.5410000085830688,-2.420027501596582
202.5,,0.014294223517501953,202.741,0.5170000195503235,-2.4723976557403953
202.965517,,0.013199418307367726,203.206,0.5460000038146973,-2.409338499639181
203.431034,,0.010776239778963427,203.673,0.5339999794960022,-2.4356388550987234
203.896552,,0.006790996092497125,204.139,0.5419999957084656,-2.4183959269084676
204.36206900000002,,0.002976628378389154,204.603,0.515999972820282,-2.475251594192209
204.827586,,0.0008524178706143454,205.069,0.5450000166893005,-2.4122995924802852
205.293103,,0.00027444567101317775,205.537,0.5529999732971191,-2.3951097393618808
205.758621,,0.0021313364388922634,205.999,0.5370000004768372,-2.430209667344346
206.224138,,0.0048316140013900276,206.462,0.5210000276565552,-2.465305210733861
206.689655,,0.006681145255263205,206.925,0.5460000038146973,-2.4110649403507023
207.155172,,0.00673876287252447,207.396,0.5419999957084656,-2.4199865819835287
207.62069,,0.006303686030020896,207.858,0.5450000166893005,-2.413631931218067
208.086207,,0.0070261300651640315,208.323,0.5419999957084656,-2.420317980189329
208.551724,,0.008271966399748846,208.788,0.5339999794960022,-2.4378615429930837
209.01724099999998,,0.007518859524799718,209.253,0.5419999957084656,-2.420507602711952
209.482759,,0.003478113854587874,209.719,0.5429999828338623,-2.4183627386242663
209.948276,,0.0018707101458872617,210.184,0.5249999761581421,-2.457569784408816
210.413793,,0.0048029016735712405,210.652,0.5230000019073486,-2.46187693211919
210.87930999999998,,0.0034071884828043553,211.11,0.5260000228881836,-2.45525130198418
211.344828,,0.00047073767381299297,211.581,0.5370000004768372,-2.4311594855915306
211.810345,,0.0029466417137595283,212.044,0.5389999747276306,-2.4266417893845267
212.27586200000002,,0.001779433958283102,212.507,0.5389999747276306,-2.426452224393737
212.741379,,0.0017744577962144298,212.977,0.5669999718666077,-2.3652366217440766
213.206897,,0.004606475024924934,213.44,0.5289999842643738,-2.4477942031477022
213.672414,,0.00470039273754902,213.903,0.5519999861717224,-2.397444187936558
214.137931,,0.002345571681103199,214.369,0.4410000145435333,-2.6390324996440877
214.60344800000001,,0.000762683501233579,214.831,0.5210000276565552,-2.4645079104007954
215.068966,,0.002831081420570267,215.297,0.5519999861717224,-2.3967519124798984
215.534483,,0.002682183681661327,215.762,0.5339999794960022,-2.4357685726010434
216.0,,0.0002555184381913869,216.228,0.5699999928474426,-2.3571624828862587
216.465517,,0.0029941204046848094,216.692,0.5379999876022339,-2.426733824127496
216.93103399999998,,0.004653133474159021,217.158,0.5339999794960022,-2.435337286694277
217.39655199999999,,0.003161075908307427,217.622,0.5210000276565552,-2.4635871886700276
217.862069,,0.0005685914275958865,218.088,0.5379999876022339,-2.426519019367819
218.327586,,0.0036007193038187562,218.551,0.5339999794960022,-2.435244294166636
218.793103,,0.0034455628582870726,219.021,0.5170000195503235,-2.4723336350216276
219.25862099999998,,0.0002517029782246277,219.481,0.5210000276565552,-2.463712196396216
219.724138,,0.0034232671179850547,219.95,0.49000000953674316,-2.531382215774928
220.18965500000002,,0.00500910845553875,220.414,0.5519999861717224,-2.396472385730578
220.65517200000002,,0.004138997243718538,220.877,0.5059999823570251,-2.496885087296472
221.12069,,0.002583047658472135,221.342,0.5339999794960022,-2.436100165988685
221.586207,,0.002134125013189253,221.807,0.5260000228881836,-2.453762131995441
222.051724,,0.00290843138372453,222.272,0.5419999957084656,-2.4191445077519806
222.517241,,0.004059111513657234,222.736,0.48100000619888306,-2.5522838362328155
222.98275900000002,,0.005758723433206544,223.202,0.5270000100135803,-2.4523023509078286
223.448276,,0.009353821904164094,223.669,0.5410000085830688,-2.422024058886077
223.913793,,0.015081032167942163,224.135,0.5260000228881836,-2.454904881548677
224.37931,,0.020755515492202208,224.599,0.5299999713897705,-2.446363767309564
224.844828,,0.024152171498404314,225.065,0.5370000004768372,-2.4312533739927864
225.31034499999998,,0.02628764304498793,225.526,0.5170000195503235,-2.4749290494879173
225.775862,,0.030519568217687167,225.995,0.5339999794960022,-2.4379544644671904
226.241379,,0.03791784025660579,226.458,0.5299999713897705,-2.4466889671825487
226.706897,,0.04511179480573072,226.921,0.5339999794960022,-2.437950930378151
227.172414,,0.047624607553775136,227.387,0.5289999842643738,-2.4487782248121817
227.63793099999998,,0.04404082608553595,227.852,0.5339999794960022,-2.4377786569262523
228.103448,,0.03572850670572122,228.318,0.5419999957084656,-2.42020584121089
228.56896600000002,,0.023555524518548084,228.784,0.5249999761581421,-2.457066560640277
229.03448300000002,,0.006741090187360399,229.25,0.5440000295639038,-2.415468697599392
229.5,,0.014816382437408895,229.714,0.5540000200271606,-2.3934576301911266
229.965517,,0.03828200523632975,230.18,0.531000018119812,-2.4433276160620845
230.431034,,0.05878272849644286,230.645,0.5299999713897705,-2.44526135543725
230.896552,,0.07237674961597079,231.111,0.5320000052452087,-2.4406611361307253
231.362069,,0.07788959753025836,231.573,0.5419999957084656,-2.4186414550941917
231.827586,,0.07631264160647859,232.036,0.527999997138977,-2.4489262246437096
232.293103,,0.06924135524916285,232.503,0.5419999957084656,-2.4182326568822514
232.758621,,0.05830026861190019,232.965,0.5270000100135803,-2.45074984554536
233.224138,,0.04571980530562802,233.436,0.5260000228881836,-2.4528013834858533
233.689655,,0.034368185994629076,233.899,0.5419999957084656,-2.4178554455351473
234.155172,,0.02600117024940689,234.364,0.5339999794960022,-2.4352388662138194
234.62069,,0.01945824217912772,234.827,0.531000018119812,-2.441772209423036
235.086207,,0.011896306475362411,235.293,0.5339999794960022,-2.4352773778201735
235.55172399999998,,0.0024783822033191153,235.761,0.5339999794960022,-2.435360579040032
236.01724099999998,,0.006186818531972447,236.22,0.5419999957084656,-2.4180538481031295
236.482759,,0.011108897945433491,236.685,0.5249999761581421,-2.4552488324407706
236.94827600000002,,0.012551109934666403,237.15,0.5289999842643738,-2.446722910954373
237.413793,,0.013612485389478216,237.618,0.5419999957084656,-2.418613840498734
237.87931,,0.016725505310896293,238.083,0.5460000038146973,-2.4101298870847563
238.344828,,0.021475306594393995,238.551,0.5419999957084656,-2.419084778209917
238.810345,,0.025463932449574976,239.014,0.5329999923706055,-2.438935147135247
239.27586200000002,,0.026337431474414905,239.482,0.531000018119812,-2.443529926530213
239.741379,,0.02313691667221642,239.943,0.5419999957084656,-2.4197899151047704
240.206897,,0.01676892248555719,240.411,0.5379999876022339,-2.428709739954911
240.672414,,0.00959777602555508,240.874,0.5320000052452087,-2.441960511981996
241.137931,,0.003955834317546609,241.34,0.5289999842643738,-2.4486438374418453
241.603448,,0.00042886021839352444,241.8,0.5170000195503235,-2.4748990997215343
242.068966,,0.002320893977240418,242.265,0.5230000019073486,-2.461899863426765
242.534483,,0.005747112399335082,242.73,0.5429999828338623,-2.4183579056752027
243.0,,0.009550802617198558,243.195,0.5230000019073486,-2.461918677869409
243.465517,,0.01188511046602822,243.662,0.5360000133514404,-2.4335413418459044
243.93103399999998,,0.011264689933825392,244.128,0.5299999713897705,-2.446517429554492
244.39655199999999,,0.007915197352420193,244.595,0.5419999957084656,-2.420239383024636
244.862069,,0.003404454357765507,245.061,0.5260000228881836,-2.4549293532142134
245.327586,,0.0005317003765157621,245.522,0.5170000195503235,-2.4743405054725636
245.793103,,0.00280561652774772,245.992,0.531000018119812,-2.4436209214520854
246.258621,,0.0032741309878423653,246.455,0.5320000052452087,-2.441208473168569
246.724138,,0.0027291913385500866,246.918,0.5460000038146973,-2.410464999376752
247.18965500000002,,0.002460565177653653,247.383,0.453000009059906,-2.6128372299302005
247.655172,,0.0033075716202747626,247.847,0.5379999876022339,-2.427419422141266
248.12069,,0.004889969647641532,248.313,0.5630000233650208,-2.372735245729447
248.586207,,0.006044492974953444,248.78,0.5329999923706055,-2.4378965348170807
249.051724,,0.006197094408409042,249.246,0.5669999718666077,-2.3636500904094637
249.517241,,0.005903826328285689,249.71,0.515999972820282,-2.4746203242182543
249.982759,,0.005732590952303147,250.176,0.5410000085830688,-2.420049998095306
250.44827600000002,,0.0051369460345702285,250.64,0.5929999947547913,-2.306695540484072
250.913793,,0.0031695224436189664,251.106,0.5260000228881836,-2.45264058237267
251.37931000000003,,0.00018809331763783982,251.566,0.5419999957084656,-2.4178004296593354
251.844828,,0.0019338121736988177,252.036,0.5189999938011169,-2.467970902048472
252.31034499999998,,0.0016273086704541406,252.496,0.527999997138977,-2.4484666777923274
252.77586200000002,,0.0007869350233894402,252.966,0.5130000114440918,-2.481289465361705
253.241379,,0.0036208008330074672,253.429,0.5230000019073486,-2.4596814397114515
253.706897,,0.005442242610167387,253.891,0.503000020980835,-2.5034630128523947
254.172414,,0.005838640097800785,254.357,0.546999990940094,-2.4078345851035756
254.63793099999998,,0.005216815755421587,254.821,0.5339999794960022,-2.4364042604055
255.10344800000001,,0.004495843487626903,255.286,0.5339999794960022,-2.4366584809623526
255.56896600000002,,0.004574464491561569,255.751,0.5460000038146973,-2.410767850914767
256.03448299999997,,0.00548930197473197,256.217,0.5339999794960022,-2.437155650269906
256.5,,0.006292012211726611,256.681,0.5400000214576721,-2.4243107203854217
256.965517,,0.006071591967357034,257.147,0.5339999794960022,-2.437585739894777
257.431034,,0.004879219200318093,257.61,0.5410000085830688,-2.4225076218658548
257.896552,,0.003496913535090916,258.076,0.5429999828338623,-2.4182865872130703
258.362069,,0.002635963383515188,258.544,0.5239999890327454,-2.4597765667841673
258.827586,,0.0026153842326554193,259.006,0.5299999713897705,-2.446757229162545
259.29310300000003,,0.003517929089340603,259.47,0.5540000200271606,-2.3944767968342084
259.758621,,0.00519771458159516,259.94,0.5329999923706055,-2.440189477627385
260.224138,,0.007163506206799635,260.403,0.5189999938011169,-2.470606962766789
260.689655,,0.008895566671745531,260.866,0.5170000195503235,-2.474839459591194
261.155172,,0.010409765339536081,261.332,0.5410000085830688,-2.422389667555615
261.62068999999997,,0.012079787721624189,261.796,0.5370000004768372,-2.430908712445691
262.086207,,0.01364411924039634,262.262,0.5389999747276306,-2.4263282320075845
262.551724,,0.013917535088364007,262.729,0.5540000200271606,-2.3934041145535714
263.017241,,0.01210131733073422,263.194,0.5450000166893005,-2.4127538266084088
263.482759,,0.00901109199456138,263.658,0.5460000038146973,-2.4103113552484863
263.94827599999996,,0.0061722296002828985,264.124,0.5299999713897705,-2.444909029199724
264.413793,,0.003901735523127906,264.596,0.5230000019073486,-2.45991079537537
264.87931,,0.0013378548393728914,265.054,0.6039999723434448,-2.283210622456598
265.34482799999995,,0.0015632429080740047,265.518,0.5540000200271606,-2.3919378262029305
265.810345,,0.0033001904855580163,265.98,0.5320000052452087,-2.439694967233066
266.27586199999996,,0.002734414404791162,266.448,0.5249999761581421,-2.45481204953842
266.741379,,0.0008915124390082748,266.91,0.5450000166893005,-2.4111499415512676
267.206897,,4.037353336267191e-05,267.376,0.515999972820282,-2.474289376661367
267.672414,,0.0012442063071223931,267.846,0.5419999957084656,-2.4176523417892493
268.137931,,0.003278466586138568,268.312,0.5170000195503235,-2.472175859218088
268.603448,,0.003868407465044116,268.777,0.5299999713897705,-2.4439589313888
269.06896600000005,,0.0018846276907960354,269.235,0.5210000276565552,-2.4637171262642066
269.53448299999997,,0.0015449246840726898,269.701,0.5329999923706055,-2.4377641853173695
270.0,,0.004131990972767526,270.167,0.5379999876022339,-2.4270956746637955
270.465517,,0.00461961359720911,270.633,0.5690000057220459,-2.359808098058083
270.931034,,0.003467787667335863,271.098,0.5410000085830688,-2.4210780550620106
271.396552,,0.0013552831664478213,271.566,0.5419999957084656,-2.4191763736609433
271.86206899999996,,0.002026569069876916,272.029,0.5419999957084656,-2.4194541609258606
272.327586,,0.007050052003544559,272.492,0.47200000286102295,-2.5722306645182083
272.793103,,0.012790944156020289,272.955,0.5419999957084656,-2.419982193911198
273.258621,,0.01747588473423145,273.425,0.5339999794960022,-2.437644757905289
273.724138,,0.019966347240194658,273.888,0.5230000019073486,-2.461811086722731
274.18965499999996,,0.02026854680097291,274.354,0.5339999794960022,-2.438008800304303
274.655172,,0.01903400660105718,274.82,0.5329999923706055,-2.4403061118877662
275.12069,,0.01716204342757394,275.286,0.5379999876022339,-2.42948307039704
275.586207,,0.015563515280221641,275.751,0.5419999957084656,-2.4207873302543326
276.051724,,0.014689517393728068,276.216,0.515999972820282,-2.477399120730382
276.517241,,0.014257597274235527,276.681,0.5370000004768372,-2.431563509381096
276.98275900000004,,0.013621711325646131,277.14,0.5170000195503235,-2.4750041906891984
277.448276,,0.012389102065111318,277.607,0.531000018119812,-2.4443265040716127
277.913793,,0.010864267519206647,278.073,0.546999990940094,-2.409252135862158
278.37931,,0.01019353700386958,278.54,0.5080000162124634,-2.493970437916133
278.844828,,0.011675244366449405,279.003,0.5490000247955322,-2.4043720547229204
279.31034500000004,,0.01518260234520798,279.466,0.515999972820282,-2.4759774657522104
279.77586199999996,,0.01850036141808474,279.936,0.5419999957084656,-2.419035177231596
280.241379,,0.019192903730488407,280.396,0.5339999794960022,-2.4361690726526652
280.706897,,0.017266296895121096,280.866,0.5249999761581421,-2.455493061406869
281.172414,,0.015150595662205592,281.331,0.550000011920929,-2.4007635512980974
281.637931,,0.014680780260553623,281.796,0.5289999842643738,-2.4462809086299906
282.10344799999996,,0.014739885324693629,282.255,0.5329999923706055,-2.437368792373727
282.568966,,0.0125499576974587,282.721,0.5630000233650208,-2.371854876472864
283.034483,,0.007068676132429306,283.186,0.5199999809265137,-2.4654305491445085
283.5,,0.0003365562891031899,283.651,0.5180000066757202,-2.4697343931726308
283.965517,,0.004777274161018165,284.117,0.5370000004768372,-2.428342283640972
284.431034,,0.007464699217677614,284.589,0.5289999842643738,-2.44582917772423
284.89655200000004,,0.008995408847189048,285.047,0.49000000953674316,-2.5309088157706374
285.362069,,0.010423168665941566,285.51,0.531000018119812,-2.4417488947789243
285.827586,,0.011419499330136234,285.98,0.5490000247955322,-2.4027441649825665
286.293103,,0.011436645977834257,286.44,0.5540000200271606,-2.3921001441313834
286.758621,,0.01091052894692161,286.91,0.5540000200271606,-2.392379361663153
287.22413800000004,,0.010741314399929208,287.376,0.6079999804496765,-2.2750318234945537
287.689655,,0.011196313787100742,287.839,0.531000018119812,-2.44309749127032
288.155172,,0.011837575424001068,288.304,0.5379999876022339,-2.4281592104378884
288.62069,,0.012224955910427554,288.77,0.5270000100135803,-2.4524305875310444
289.086207,,0.012362834765905566,289.236,0.5410000085830688,-2.4222202658730265
289.55172400000004,,0.012618210157297416,289.696,0.5360000133514404,-2.433379304204254
290.01724099999996,,0.013390264302520985,290.162,0.5230000019073486,-2.46193427117425
290.482759,,0.01473777669419278,290.629,0.550000011920929,-2.4033024629581883
290.948276,,0.016132320330007475,291.095,0.5419999957084656,-2.4208757401461143
291.413793,,0.016620660269643383,291.555,0.531000018119812,-2.444932321889485
291.87931,,0.01549728294751782,292.025,0.5419999957084656,-2.4210032689864387
292.344828,,0.013025774288298476,292.488,0.5210000276565552,-2.466734077172135
292.81034500000004,,0.01050730065756329,292.951,0.527999997138977,-2.4514067202373244
293.275862,,0.009498558377393176,293.422,0.5540000200271606,-2.3946303985728297
293.74137900000005,,0.010698446833504583,293.884,0.5339999794960022,-2.4380205154820778
294.206897,,0.013394008036566261,294.35,0.5529999732971191,-2.3963969094199644
294.672414,,0.01605472336919555,294.813,0.5270000100135803,-2.452773082127526
295.13793100000004,,0.017583347778982256,295.279,0.5299999713897705,-2.4459379353134594
295.603448,,0.01797410531472078,295.743,0.5370000004768372,-2.4303667720597524
296.068966,,0.017897878129989664,296.209,0.5339999794960022,-2.4365705380501375
296.534483,,0.01798149403438258,296.674,0.5410000085830688,-2.4209861742993533
297.0,,0.01854123238604902,297.139,0.5339999794960022,-2.4359118397662636
297.46551700000003,,0.019700041237427916,297.604,0.5809999704360962,-2.333208689158799
297.931034,,0.02146931520151288,298.07,0.5239999890327454,-2.4571124728569456
298.396552,,0.023552241608265093,298.533,0.5540000200271606,-2.3915109092854836
298.862069,,0.025020477726630366,298.995,0.5230000019073486,-2.458852662898504
299.327586,,0.024482755331632088,299.466,0.5389999747276306,-2.423850379833043
299.79310300000003,,0.02103468420770144,299.928,0.5339999794960022,-2.4346571423511127
300.258621,,0.015085103332528627,300.396,0.5249999761581421,-2.454239228977103
300.724138,,0.008010438498661364,300.858,0.5260000228881836,-2.4520971129813223
301.189655,,0.0010878160363765779,301.324,0.5170000195503235,-2.471803602178461
301.65517200000005,,0.005064742591744844,301.788,0.5220000147819519,-2.4610685563453165
302.12069,,0.010348330834316041,302.254,0.5260000228881836,-2.452566988021681
302.586207,,0.014914769283400705,302.719,0.5370000004768372,-2.4288629624116145
303.05172400000004,,0.01883052243308234,303.185,0.574999988079071,-2.346374257663151
303.517241,,0.021626154570383572,303.651,0.550000011920929,-2.4011688842211085
303.982759,,0.02238625659090981,304.117,0.5210000276565552,-2.4646972910651765
304.448276,,0.02077857469116047,304.577,0.546999990940094,-2.4084095902443106
304.913793,,0.018062482428040188,305.04,0.5669999718666077,-2.365191319940597
305.37931000000003,,0.016761888434421203,305.51,0.5529999732971191,-2.3960325978432344
305.844828,,0.019111070397564916,305.973,0.5419999957084656,-2.4203131011274475
306.310345,,0.025749722433752655,306.441,0.5389999747276306,-2.427130539292072
306.775862,,0.035697901931373045,306.903,0.550000011920929,-2.4034040048310468
307.241379,,0.0470233616419471,307.369,0.5419999957084656,-2.421021341097929
307.70689699999997,,0.057049573012377,307.831,0.5540000200271606,-2.3950088115279295
308.172414,,0.06235650517861231,308.297,0.5400000214576721,-2.4255800430519368
308.637931,,0.06003917936229982,308.763,0.5170000195503235,-2.475696231266726
309.103448,,0.050139463647759994,309.229,0.5669999718666077,-2.366707892568887
309.568966,,0.03651863962976467,309.696,0.5419999957084656,-2.4210553049119987
310.034483,,0.02421721026656683,310.162,0.5460000038146973,-2.4121624450466865
310.5,,0.015598648837883335,310.622,0.527999997138977,-2.4511463315322373
310.96551700000003,,0.009460793875228593,311.088,0.5529999732971191,-2.3964018371820055
311.431034,,0.0037279968823908686,311.556,0.5540000200271606,-2.3939060573850495
311.896552,,0.0018934188275686011,312.018,0.5260000228881836,-2.4545621587905413
312.362069,,0.006252602092119974,312.481,0.5419999957084656,-2.4193400514669796
312.827586,,0.008970165703292047,312.951,0.5419999957084656,-2.4189696835309675
313.29310300000003,,0.011368087136205128,313.414,0.5400000214576721,-2.42296114703937
313.758621,,0.014946974985434418,313.877,0.5529999732971191,-2.3942888028129157
314.224138,,0.019422496189197704,314.342,0.527999997138977,-2.448431677590385
314.689655,,0.02286879166892288,314.807,0.5339999794960022,-2.4350739422501153
315.155172,,0.023862233071370722,315.272,0.550000011920929,-2.3999759920034505
315.62068999999997,,0.02297891213877778,315.737,0.531000018119812,-2.441184464207834
316.086207,,0.02183483609668606,316.203,0.5239999890327454,-2.4563093882144216
316.551724,,0.02108630486345283,316.67,0.5429999828338623,-2.414853940411926
317.017241,,0.0200934307536958,317.135,0.5249999761581421,-2.4540749599811496
317.482759,,0.018388284372956625,317.6,0.503000020980835,-2.502077703571562
317.94827599999996,,0.01646039806529037,318.066,0.5540000200271606,-2.3911045497923613
318.413793,,0.014785780370212108,318.529,0.5299999713897705,-2.443590428769137
318.87931000000003,,0.01304336997481301,318.992,0.5410000085830688,-2.419877371865226
319.344828,,0.010910792387292263,319.455,0.5630000233650208,-2.3722451371739504
319.810345,,0.008892944082880421,319.925,0.5360000133514404,-2.4314030465616145
320.275862,,0.0076678425494017335,320.396,0.550000011920929,-2.4012626973666125
320.741379,,0.007148656115195652,320.851,0.5419999957084656,-2.419068112605847
321.20689699999997,,0.006853894903033821,321.316,0.5419999957084656,-2.4194482290747086
321.672414,,0.0068147123483914725,321.78,0.5299999713897705,-2.445964793618072
322.137931,,0.007393640151848257,322.246,0.5440000295639038,-2.415817583450092
322.603448,,0.008227140022171531,322.71,0.5540000200271606,-2.394354949660047
323.068966,,0.007960341278403364,323.176,0.6110000014305115,-2.2704538944792856
323.53448299999997,,0.005547506599778439,323.641,0.5230000019073486,-2.4624055991999705
324.0,,0.0018416888471759773,324.107,0.5260000228881836,-2.456043897613918
324.465517,,0.0006390528058218957,324.57,0.5540000200271606,-2.395155357525372
324.931034,,9.65245835213806e-05,325.04,0.5180000066757202,-2.4736357428143827
325.396552,,0.002506183240625388,325.503,0.5189999938011169,-2.4714406602359396
325.86206899999996,,0.004274813574519694,325.965,0.5339999794960022,-2.4386797677599144
326.327586,,0.0032500111980863396,326.436,0.5450000166893005,-2.4145701569138245
326.793103,,0.00016662530808793775,326.899,0.5640000104904175,-2.372971422772015
327.258621,,0.0024449650388809196,327.365,0.546999990940094,-2.409749553585962
327.724138,,0.0025973517699446748,327.827,0.5440000295639038,-2.415980067610415
328.189655,,0.0005272844183890347,328.293,0.5249999761581421,-2.457032813967519
328.655172,,0.0015802480991159757,328.758,0.5379999876022339,-2.4283432039971644
329.12068999999997,,0.0015757241900134049,329.224,0.5509999990463257,-2.3996389611858
329.586207,,0.0007514793278046845,329.689,0.5299999713897705,-2.4450055564529896
330.051724,,0.003644557083104331,330.154,0.5419999957084656,-2.418485390047169
330.517241,,0.005148429805153337,330.619,0.5379999876022339,-2.4268440118192958
330.982759,,0.004797016702671366,331.085,0.5249999761581421,-2.4548419159266954
331.44827599999996,,0.0035447531356887973,331.547,0.5460000038146973,-2.408807248823788
331.913793,,0.00229283850630683,332.01,0.5540000200271606,-2.3911446699770984
332.37931,,0.0009458166374154169,332.48,0.5379999876022339,-2.4258262457059794
332.844828,,0.0009245786803533998,332.943,0.5339999794960022,-2.434426511833592
333.310345,,0.0029423345376936006,333.411,0.5339999794960022,-2.434378794883058
333.77586199999996,,0.003974195698798789,333.873,0.515999972820282,-2.473615431161339
334.241379,,0.0032725414687745586,334.339,0.5419999957084656,-2.417059767961513
334.706897,,0.0012165505347601505,334.804,0.5199999809265137,-2.4651448322090737
335.17241399999995,,0.0011489579843730609,335.269,0.5299999713897705,-2.443574087315648
335.637931,,0.0030668743032810403,335.736,0.492000013589859,-2.5266335664412365
336.103448,,0.004464242546720557,336.202,0.5509999990463257,-2.398411202621916
336.56896600000005,,0.005608158810385151,336.666,0.5299999713897705,-2.4445169231247434
337.034483,,0.006588356731463815,337.131,0.5370000004768372,-2.42964508823882
337.5,,0.007149373914833465,337.596,0.5400000214576721,-2.423501001404646
337.965517,,0.006954988710156773,338.062,0.5789999961853027,-2.3389257089976443
338.431034,,0.006044112473465624,338.522,0.5419999957084656,-2.4199148754332014
338.89655200000004,,0.005034730256960545,338.991,0.5509999990463257,-2.400662193633228
339.36206899999996,,0.004636162954247207,339.452,0.550000011920929,-2.4031615220328058
339.827586,,0.004760216087134151,339.915,0.5669999718666077,-2.3664005914590978
340.293103,,0.00443801649449398,340.38,0.5320000052452087,-2.4428762366434493
340.758621,,0.003028517481171416,340.851,0.5260000228881836,-2.4561124463660144
341.224138,,0.0012164183244650713,341.317,0.5210000276565552,-2.467107436546484
341.68965499999996,,0.000293058767908646,341.781,0.5339999794960022,-2.438821266564202
342.155172,,0.0007337712397991519,342.246,0.5419999957084656,-2.421360992656832
342.62069,,0.0020656989457346763,342.711,0.515999972820282,-2.4779085642709306
343.086207,,0.003718200675835186,343.176,0.5379999876022339,-2.4298179452245057
343.551724,,0.005053393220720294,343.636,0.5329999923706055,-2.4404925397085426
344.01724099999996,,0.004773520368112398,344.102,0.5289999842643738,-2.4489366357716107
344.48275900000004,,0.0016066894240262949,344.57,0.5260000228881836,-2.4551585808089054
344.948276,,0.003876550360780516,345.032,0.5389999747276306,-2.4264883543265476
345.413793,,0.008958590367887655,345.495,0.5329999923706055,-2.4391885348977507
345.87931,,0.01108965647385948,345.965,0.531000018119812,-2.4431615632306434
346.344828,,0.010343890442574645,346.429,0.5299999713897705,-2.4449553808080156
346.81034500000004,,0.009123207385779649,346.892,0.5370000004768372,-2.4293306983018477
347.275862,,0.009487231720035775,347.357,0.5450000166893005,-2.411549169956718
347.741379,,0.011110709200282759,347.821,0.5400000214576721,-2.4221222104401283
348.206897,,0.011896466099934647,348.287,0.5370000004768372,-2.42837992400132
348.672414,,0.010246264668740759,348.751,0.5350000262260437,-2.4325095168567956
349.13793100000004,,0.0064538717509886045,349.216,0.550000011920929,-2.399659595266691
349.60344799999996,,0.0020653676680881393,349.681,0.5379999876022339,-2.4256955946340164
350.068966,,0.001685705855012015,350.147,0.5170000195503235,-2.4714056123842667
350.534483,,0.00469336823397579,350.614,0.5419999957084656,-2.416966090790967
351.0,,0.007528049044069798,351.08,0.5270000100135803,-2.449739683125924
351.465517,,0.010455255109625557,351.54,0.5509999990463257,-2.3976101217945462
351.93103399999995,,0.012995715558267985,352.01,0.5189999938011169,-2.467544292821248
352.396552,,0.014488695032580436,352.473,0.527999997138977,-2.4482072838823843
352.862069,,0.015005800378429551,352.936,0.4259999990463257,-2.670747811781578
353.32758600000005,,0.015327249217717852,353.407,0.5299999713897705,-2.44452614293926
353.793103,,0.015672558469581627,353.869,0.5540000200271606,-2.3926222808150284
354.258621,,0.014819885052598741,354.336,0.5450000166893005,-2.4126254472430055
354.72413800000004,,0.011288299493107508,354.795,0.5379999876022339,-2.4282706802879463
355.189655,,0.00549713742067243,355.261,0.5460000038146973,-2.411223517091763
355.655172,,7.0709753533351764e-06,355.726,0.5360000133514404,-2.4333677756317638
356.12069,,0.002826343552427427,356.192,0.5680000185966492,-2.3639731528863006
356.586207,,0.00307729508059858,356.659,0.5210000276565552,-2.4666462146005035
357.05172400000004,,0.0027628782717624392,357.124,0.531000018119812,-2.445083274195542
357.517241,,0.003395985785705568,357.596,0.5210000276565552,-2.4670341533097497
357.982759,,0.0045745107522639035,358.054,0.5360000133514404,-2.4344546532410267
358.448276,,0.00507827115971709,358.522,0.5299999713897705,-2.4475593535247318
358.913793,,0.0046948658564644336,358.984,0.5099999904632568,-2.4910968587383793
359.37931000000003,,0.0042875842842067646,359.445,0.5440000295639038,-2.4169204271098934
359.844828,,0.004299091938794925,359.915,0.5540000200271606,-2.394966881218914
360.310345,,0.004042839786491167,360.38,0.515999972820282,-2.4775285863483467
360.775862,,0.0027804518048260025,360.843,0.5210000276565552,-2.4663562549180607
361.241379,,0.0009233774878963459,361.309,0.5360000133514404,-2.4333544589096565
361.706897,,0.00039504111173142766,361.773,0.5260000228881836,-2.4547850809221696
362.172414,,0.0007130267134084709,362.239,0.5429999828338623,-2.4173691499447605
362.63793100000004,,0.0006218146628609438,362.704,0.5429999828338623,-2.4169781510369464
363.103448,,0.0007457084488419127,363.169,0.5419999957084656,-2.4187654021204334
363.568966,,0.0008820803199651111,363.636,0.5419999957084656,-2.418385680161205
364.034483,,0.0003654011568263474,364.102,0.5540000200271606,-2.3918852080867827
364.5,,0.0010885988722923574,364.563,0.5379999876022339,-2.4264209575942766
364.96551700000003,,0.003182733915448569,365.026,0.5210000276565552,-2.4631797781043026
365.431034,,0.005495031269485758,365.496,0.5210000276565552,-2.462955777044006
365.896552,,0.007799455049301524,365.958,0.5450000166893005,-2.410505154292426
366.362069,,0.009786145883574359,366.426,0.5490000247955322,-2.401692495191461
366.827586,,0.010714018858819752,366.888,0.531000018119812,-2.440877983095046
367.29310300000003,,0.009900440203689286,367.354,0.5189999938011169,-2.4670612762279034
367.758621,,0.007760891080704591,367.82,0.5460000038146973,-2.408345980946782
368.224138,,0.005882792703809719,368.286,0.5339999794960022,-2.434663062626071
368.689655,,0.005613242239197264,368.747,0.5400000214576721,-2.4218238646650976
369.155172,,0.006695390017286269,369.212,0.531000018119812,-2.4417171320839097
369.62068999999997,,0.007561243393810645,369.677,0.5450000166893005,-2.4115453408688965
370.086207,,0.006964674250904576,370.143,0.5640000104904175,-2.3705134163807555
370.55172400000004,,0.005252575414141585,370.608,0.5299999713897705,-2.4449716697674377
371.017241,,0.004001245617994071,371.073,0.5410000085830688,-2.421401230971181
371.482759,,0.0043224062358991795,371.536,0.5249999761581421,-2.4566536381823885
371.948276,,0.005523745737106232,372.006,0.5410000085830688,-2.4221763435011745
372.413793,,0.00560950168165672,372.47,0.5419999957084656,-2.420354106665571
372.87931000000003,,0.003200034856551299,372.932,0.5460000038146973,-2.411959751857858
373.344828,,0.0011262226139491381,373.396,0.5630000233650208,-2.375196490575957
373.810345,,0.005401053838715736,373.866,0.5460000038146973,-2.4124521574969475
374.275862,,0.008072957388568449,374.331,0.531000018119812,-2.44528913495493
374.741379,,0.009312095505503819,374.795,0.5170000195503235,-2.475882511293494
375.20689699999997,,0.010638441193801298,375.261,0.5370000004768372,-2.432334466557038
375.672414,,0.013157666907057847,375.725,0.5260000228881836,-2.45625596634608
376.137931,,0.01613517693313822,376.191,0.5410000085830688,-2.4234651763769275
376.603448,,0.017619149610519576,376.655,0.5249999761581421,-2.458148294967025
377.068966,,0.016578968344643966,377.12,0.5249999761581421,-2.4579142533170737
377.53448299999997,,0.014004669893285693,377.581,0.5410000085830688,-2.4227700646784798
378.0,,0.01164850583505026,378.051,0.4830000102519989,-2.5488033609012355
378.465517,,0.01008777495254467,378.514,0.527999997138977,-2.4504040736172974
378.931034,,0.008454224080603343,378.977,0.5540000200271606,-2.393376993828629
379.396552,,0.005944016365012758,379.44,0.5289999842643738,-2.447449201277513
379.862069,,0.0031678647859756043,379.91,0.4690000116825104,-2.5777754535899775
380.327586,,0.001702458501662491,380.376,0.5329999923706055,-2.4379640696221245
380.79310300000003,,0.0023299874224495956,380.838,0.5669999718666077,-2.3635363360260624
381.258621,,0.004063027464686502,381.304,0.5210000276565552,-2.4634335331859107
381.724138,,0.005099371757838552,381.769,0.5960000157356262,-2.2997568194079214
382.189655,,0.004473548650598376,382.235,0.5210000276565552,-2.46292785278975
382.655172,,0.0026166750516565906,382.7,0.5289999842643738,-2.4453298102804366
383.12068999999997,,0.0007020238795365167,383.165,0.527999997138977,-2.4474046045603126
383.586207,,0.00023710495255249657,383.625,0.5199999809265137,-2.4647985122415728
384.051724,,3.71812292333437e-05,384.091,0.5270000100135803,-2.4495825605914656
384.517241,,0.0006016627113208749,384.559,0.5299999713897705,-2.443150326891496
384.982759,,0.0001517881508024461,385.021,0.5249999761581421,-2.454213086408371
385.44827599999996,,0.0029701652194264218,385.488,0.5400000214576721,-2.4217635845752024
385.913793,,0.006541797411099648,385.95,0.5009999871253967,-2.5070156042928176
386.37931,,0.008462739529713248,386.418,0.5460000038146973,-2.409307150957136
386.84482799999995,,0.007757365216835038,386.881,0.5540000200271606,-2.3922439063285883
387.310345,,0.0060222858281164466,387.347,0.527999997138977,-2.44927839106037
387.775862,,0.005629495853388268,387.81,0.5429999828338623,-2.417000678626412
388.241379,,0.007087875745224219,388.276,0.5299999713897705,-2.4457256849027287
388.70689699999997,,0.008796677692270221,388.741,0.5180000066757202,-2.472260813108214
389.172414,,0.009348234179952048,389.206,0.5450000166893005,-2.4138059300201857
389.637931,,0.009241454724576204,389.673,0.5429999828338623,-2.4184973138413763
390.103448,,0.009843317177358523,390.139,0.5360000133514404,-2.43403670813914
390.56896600000005,,0.011230509049696758,390.603,0.4970000088214874,-2.519240093522202
391.03448299999997,,0.011782947434661356,391.069,0.5249999761581421,-2.458415006422777
391.5,,0.009877449839882679,391.537,0.5339999794960022,-2.4389191307539924
391.965517,,0.005715883011249667,391.999,0.515999972820282,-2.4781776251136467
392.431034,,0.001562290492436856,392.467,0.5260000228881836,-2.4563634001174095
392.896552,,8.981533276810998e-05,392.929,0.5419999957084656,-2.4214072388687065
393.36206899999996,,0.002009461046555374,393.396,0.5189999938011169,-2.471350432622437
393.827586,,0.005250870189659353,393.858,0.5540000200271606,-2.3948686197871236
394.293103,,0.007006507961778312,394.324,0.5429999828338623,-2.4185474967564793
394.75862099999995,,0.006698090524346725,394.788,0.5410000085830688,-2.422569305073585
395.224138,,0.006319028997915722,395.254,0.546999990940094,-2.409123071177577
395.68965499999996,,0.007645745051132738,395.719,0.5270000100135803,-2.4522941001510175
396.155172,,0.009891543489264513,396.185,0.5210000276565552,-2.46494936468876
396.62069,,0.010830073151302277,396.651,0.5320000052452087,-2.440565990081983
397.086207,,0.009811387308649134,397.11,0.5460000038146973,-2.409657050325896
397.551724,,0.008558151984907761,397.577,0.546999990940094,-2.4070926652534634
398.017241,,0.008585022271039229,398.047,0.515999972820282,-2.4742792425429463
398.48275900000004,,0.008713401451858664,398.507,0.5389999747276306,-2.4238644280480988
398.94827599999996,,0.006210793614041405,398.977,0.515999972820282,-2.4737228179061823
399.413793,,0.0002920097349319747,399.44,0.5370000004768372,-2.427783758889155
399.87931,,0.006482600649406156,399.903,0.5329999923706055,-2.436379821285104
400.344828,,0.010695893591904542,400.368,0.515999972820282,-2.4733710737251338
400.810345,,0.011441886067523747,400.831,0.5329999923706055,-2.436362920620469
401.27586199999996,,0.010830511642583284,401.297,0.5490000247955322,-2.4016068824495314
401.741379,,0.011492682595380605,401.762,0.5249999761581421,-2.454067141356106
402.206897,,0.01404068573079922,402.228,0.550000011920929,-2.3998386851574223
402.672414,,0.016892835704576323,402.692,0.4950000047683716,-2.5199610962502543
403.137931,,0.018148271033912228,403.158,0.5410000085830688,-2.420090669286056
403.60344799999996,,0.01736359161799591,403.622,0.5419999957084656,-2.418299141945022
404.068966,,0.015573972546623557,404.088,0.5389999747276306,-2.425249389602559
404.534483,,0.013879897654309381,404.556,0.5450000166893005,-2.412606306458518
405.0,,0.012332296371922543,405.018,0.5320000052452087,-2.441359440266923
405.465517,,0.010279085534800484,405.48,0.5130000114440918,-2.483173883981938
405.931034,,0.007503747547378877,405.95,0.4790000021457672,-2.5576463676442507
406.39655200000004,,0.0046335346465598785,406.411,0.5419999957084656,-2.420756373929599
406.862069,,0.002437523543678196,406.881,0.5450000166893005,-2.414538704569231
407.327586,,0.0010874597137301473,407.346,0.5440000295639038,-2.4169778725174162
407.793103,,0.000258495347201933,407.81,0.5720000267028809,-2.3561697418160583
408.258621,,0.00034003838068433,408.276,0.5270000100135803,-2.454330199414818
408.72413800000004,,0.0008146401529219743,408.741,0.5460000038146973,-2.4129811517744453
409.18965499999996,,0.0012145388292419358,409.207,0.5339999794960022,-2.4390931201118438
409.655172,,0.0013304119063307271,409.666,0.550000011920929,-2.4041262142447173
410.12069,,0.0005497194481406524,410.132,0.5299999713897705,-2.4475174013805625
410.586207,,0.0013215138709010768,410.597,0.5350000262260437,-2.4363744593310614
411.05172400000004,,0.003067427383340076,411.062,0.5299999713897705,-2.4469583106362998
411.51724099999996,,0.0028717171549497034,411.525,0.5400000214576721,-2.424811475104889
411.982759,,0.0004868065725745459,411.995,0.5460000038146973,-2.411339148871173
412.448276,,0.002262764734061615,412.459,0.5379999876022339,-2.4283395494605213
412.913793,,0.0035586888042849728,412.921,0.5299999713897705,-2.445324972412274
413.37931,,0.003330548131322049,413.387,0.5540000200271606,-2.3925920394374858
413.844828,,0.0024828770969288726,413.852,0.5389999747276306,-2.4248383447669455
414.31034500000004,,0.0013659380024368805,414.318,0.546999990940094,-2.407000570626248
414.775862,,0.00010311512795028358,414.784,0.5059999823570251,-2.4959549931954315
415.241379,,0.0014165239621029635,415.25,0.5249999761581421,-2.454241261729561
415.706897,,0.0016980806658609044,415.715,0.5419999957084656,-2.4169452031165153
416.172414,,0.0009600145479507763,416.18,0.5270000100135803,-2.449433686060216
416.63793100000004,,0.000285692920045818,416.64,0.5379999876022339,-2.4253511341261267
417.103448,,0.00045885452800575855,417.106,0.5249999761581421,-2.453633743060158
417.568966,,0.0009702154255351816,417.574,0.5419999957084656,-2.4166357266326557
418.034483,,0.0007759314953393888,418.036,0.531000018119812,-2.440717553390354
418.5,,0.0003256443779463171,418.507,0.5239999890327454,-2.456159351953276
418.96551700000003,,0.001546682857154272,418.969,0.5379999876022339,-2.425918391378603
419.43103399999995,,0.002206826794684037,419.433,0.5460000038146973,-2.4088098257864434
419.896552,,0.002534912709102425,419.895,0.5199999809265137,-2.4658261665491996
420.362069,,0.0032814067296594892,420.361,0.550000011920929,-2.400877763134298
420.827586,,0.004779224189289202,420.831,0.531000018119812,-2.4427101644404545
421.293103,,0.006499728653117187,421.29,0.546999990940094,-2.40830335354027
421.758621,,0.007418234408583474,421.755,0.5540000200271606,-2.3935035560134366
422.22413800000004,,0.006782179947998399,422.22,0.5329999923706055,-2.439691433411577
422.689655,,0.004670187481688904,422.685,0.5640000104904175,-2.37256159523312
423.15517200000005,,0.0019322825628871132,423.15,0.527999997138977,-2.4513609234416447
423.62069,,0.00043059157652785445,423.615,0.5339999794960022,-2.438606027374654
424.086207,,0.0019023575169455542,424.08,0.5400000214576721,-2.42579069119102
424.55172400000004,,0.00247652774054511,424.551,0.5299999713897705,-2.4477656153108556
425.017241,,0.0021411074813193795,425.013,0.5370000004768372,-2.4326293255218228
425.482759,,0.000756063166747115,425.481,0.5389999747276306,-2.4283087107307155
425.948276,,0.0012885612995451772,425.943,0.5379999876022339,-2.4304448590449828
426.413793,,0.0027967115528408633,426.407,0.5709999799728394,-2.358428441947707
426.87931000000003,,0.002776753739274649,426.877,0.5540000200271606,-2.395268540092458
427.344828,,0.0015127736578930476,427.335,0.5410000085830688,-2.4233245170467645
427.810345,,0.00016751086039054877,427.803,0.5419999957084656,-2.420818661559807
428.275862,,0.00040503969934391323,428.269,0.5529999732971191,-2.396475562997924
428.741379,,0.0001023513573812051,428.733,0.5370000004768372,-2.430916522400169
429.20689699999997,,0.0006771052676663891,429.199,0.546999990940094,-2.4086862818505774
429.672414,,0.0012880739461571715,429.666,0.5460000038146973,-2.410408254818118
430.137931,,0.0013812635141598774,430.125,0.5320000052452087,-2.440453908214856
430.603448,,0.001580034879125697,430.597,0.5389999747276306,-2.424763577433154
431.068966,,0.002917004080796324,431.055,0.531000018119812,-2.441782027769274
431.534483,,0.005153670259857689,431.525,0.5419999957084656,-2.417448024593045
432.0,,0.006464145766008203,431.988,0.5540000200271606,-2.3909878125760944
432.46551700000003,,0.005464530799151667,432.455,0.5210000276565552,-2.4626290464367466
432.931034,,0.003015612751835071,432.918,0.5389999747276306,-2.4232299615160087
433.396552,,0.0013320166953750975,433.384,0.5249999761581421,-2.453624021200159
433.862069,,0.0015341128072581336,433.847,0.5410000085830688,-2.418738175688592
434.327586,,0.0025936675147930056,434.313,0.5289999842643738,-2.4449349732603993
434.79310300000003,,0.002657829181687304,434.778,0.5540000200271606,-2.3905999873735584
435.258621,,0.0010369130602900384,435.244,0.5389999747276306,-2.423485036595248
435.724138,,0.0012711909098416115,435.711,0.527999997138977,-2.447723231555002
436.189655,,0.002777988696086188,436.176,0.5299999713897705,-2.4436992660491312
436.655172,,0.0028297416299502575,436.637,0.5540000200271606,-2.391794490213655
437.12068999999997,,0.0017977276057148646,437.103,0.5379999876022339,-2.4270731166166204
437.586207,,0.0005298569619314453,437.566,0.5419999957084656,-2.4188031322632924
438.051724,,0.0001828247956720073,438.036,0.5529999732971191,-2.3952934734037408
438.517241,,0.00015423860408498506,438.499,0.5630000233650208,-2.3739585205575136
438.982759,,0.00016154588187124408,438.962,0.5440000295639038,-2.4157867151407006
439.448276,,0.0012793317905864772,439.429,0.5770000219345093,-2.3442941270054223
439.913793,,0.0034680825389915592,439.891,0.5389999747276306,-2.42744230699013
440.37931000000003,,0.005315270299462826,440.357,0.5460000038146973,-2.4124975369905535
440.844828,,0.00575994194844846,440.821,0.5659999847412109,-2.3691677659178683
441.310345,,0.005652297651471704,441.287,0.5260000228881836,-2.456486778481963
441.775862,,0.006797008868272047,441.752,0.5379999876022339,-2.430441936532481
442.241379,,0.009735562865291517,442.217,0.5630000233650208,-2.3759972163418435
442.70689699999997,,0.013432764728307256,442.684,0.546999990940094,-2.4107985953915
443.172414,,0.016924505587600294,443.15,0.5440000295639038,-2.4172007696811932
443.637931,,0.020002710956386595,443.614,0.5379999876022339,-2.430067177496236
444.103448,,0.02213501624165674,444.08,0.5630000233650208,-2.3753295743284557
444.568966,,0.02203480867579152,444.54,0.5270000100135803,-2.453432155695999
445.03448299999997,,0.018929527871237334,445.01,0.5379999876022339,-2.4290914569901436
445.5,,0.013308676821314187,445.474,0.546999990940094,-2.4090727589462113
445.965517,,0.005735963366202675,445.936,0.5669999718666077,-2.3650652908107475
446.431034,,0.004125112104043595,446.407,0.5379999876022339,-2.427800691917357
446.896552,,0.016190833719832393,446.869,0.5370000004768372,-2.4295372908662274
447.36206899999996,,0.02832181029386725,447.335,0.550000011920929,-2.4007898944477652
447.827586,,0.0374607112431139,447.8,0.5429999828338623,-2.4156451602649636
448.29310300000003,,0.04236658305223062,448.265,0.527999997138977,-2.447971329193877
448.758621,,0.04411206531643531,448.73,0.546999990940094,-2.406276229764805
449.224138,,0.0439533141773572,449.195,0.5299999713897705,-2.4430741691594573
449.689655,,0.04192018084878009,449.655,0.5460000038146973,-2.4080452820660825
450.155172,,0.03773914193521261,450.12,0.5329999923706055,-2.4362709820949524
450.62068999999997,,0.032028344202055324,450.592,0.5410000085830688,-2.41882143125834
451.086207,,0.025844389936220777,451.05,0.515999972820282,-2.4733446881201986
451.551724,,0.01957674223675783,451.518,0.550000011920929,-2.399402953904372
452.017241,,0.013058941291587738,451.98,0.5329999923706055,-2.436643207679328
452.482759,,0.006601998781804267,452.448,0.5540000200271606,-2.3911586657882045
452.94827599999996,,0.001127995515825965,452.911,0.5540000200271606,-2.391481038752342
453.413793,,0.0028857886289439154,453.377,0.5210000276565552,-2.463744346224308
453.87931,,0.005939512424362876,453.846,0.5299999713897705,-2.4445398603642308
454.344828,,0.008620700617474707,454.305,0.5329999923706055,-2.4384303504994533
454.810345,,0.010652616753522748,454.77,0.5680000185966492,-2.3626133649303744
455.27586199999996,,0.011399175224723059,455.235,0.5389999747276306,-2.426225327086247
455.741379,,0.011174821719551004,455.707,0.4690000116825104,-2.5791456728604123
456.206897,,0.011375267500553158,456.165,0.5379999876022339,-2.429207174235986
456.672414,,0.012985771371598148,456.632,0.5419999957084656,-2.4208409537095124
457.137931,,0.01534385146451366,457.098,0.5950000286102295,-2.305668015283667
457.603448,,0.016709189618153705,457.566,0.5669999718666077,-2.36690257542081
458.06896600000005,,0.015788186282447172,458.029,0.5360000133514404,-2.4346033452737905
458.53448299999997,,0.012545951498433176,458.492,0.5410000085830688,-2.4238002272747443
459.0,,0.008087304969492894,458.962,0.5460000038146973,-2.4129223473364845
459.465517,,0.004207238938903759,459.422,0.5929999947547913,-2.310465126126979
459.931034,,0.0025790772529360024,459.892,0.5540000200271606,-2.395296644292552
460.39655200000004,,0.003672544150804236,460.35,0.5239999890327454,-2.4604510775963933
460.86206899999996,,0.006486242708681684,460.821,0.5419999957084656,-2.420969048581452
461.327586,,0.009618738365199908,461.286,0.550000011920929,-2.403220462750316
461.793103,,0.012444510547308664,461.751,0.5540000200271606,-2.394142764605921
462.258621,,0.015159451448628626,462.217,0.5759999752044678,-2.345816360741569
462.724138,,0.018165520103051672,462.677,0.5320000052452087,-2.441259717576575
463.18965499999996,,0.02183943645641963,463.143,0.546999990940094,-2.408155781442056
463.655172,,0.02659213143108184,463.607,0.5460000038146973,-2.409916410360879
464.12069,,0.032424209179814645,464.073,0.5440000295639038,-2.4138744664940406
464.58620699999994,,0.03817959097422276,464.536,0.5669999718666077,-2.363397074405333
465.051724,,0.041810778432768904,465.006,0.5419999957084656,-2.417536053500257
465.517241,,0.041868270864989204,465.466,0.5669999718666077,-2.362793929906907
465.98275900000004,,0.03827657391644943,465.936,0.527999997138977,-2.447544995972299
466.448276,,0.03113009159189881,466.396,0.5379999876022339,-2.425609237135413
466.913793,,0.019446532231717197,466.866,0.5339999794960022,-2.4342461696309714
467.37931,,0.0023115584778215753,467.331,0.5440000295639038,-2.4124552842720584
467.844828,,0.018737086742817214,467.795,0.5260000228881836,-2.451739868993761
468.31034500000004,,0.0393948062354403,468.261,0.5450000166893005,-2.4104851952229955
468.77586199999996,,0.055033644273357066,468.726,0.5659999847412109,-2.364938561440309
469.241379,,0.0632851930413079,469.192,0.5389999747276306,-2.424024995308495
469.706897,,0.06451616597253432,469.651,0.5419999957084656,-2.417801977196679
470.172414,,0.0605269398990517,470.117,0.5460000038146973,-2.409440841267393
470.63793100000004,,0.05315432105591622,470.585,0.5630000233650208,-2.3727861214077777
471.10344799999996,,0.04383604415656476,471.047,0.5440000295639038,-2.414579415762139
471.568966,,0.03382589031349492,471.514,0.5640000104904175,-2.3714097403317327
472.034483,,0.024183766951096856,471.977,0.5400000214576721,-2.424092539792775
472.5,,0.015467238408787505,472.44,0.5460000038146973,-2.4113962654115344
472.965517,,0.007765237619300713,472.91,0.5630000233650208,-2.374703648797106
473.43103399999995,,0.0010644004127356016,473.376,0.5630000233650208,-2.37500590425151
473.89655200000004,,0.004695637542743351,473.839,0.5460000038146973,-2.4122940702937776
474.362069,,0.009748912817996785,474.305,0.5379999876022339,-2.4299166842202586
474.827586,,0.014127628232520343,474.77,0.5270000100135803,-2.4540127746699607
475.293103,,0.017215447597563816,475.236,0.546999990940094,-2.410505038188007
475.758621,,0.018300656108360534,475.696,0.5419999957084656,-2.4213956526566056
476.22413800000004,,0.017590387332332216,476.162,0.5329999923706055,-2.4409335095451112
476.689655,,0.01603256349225783,476.626,0.5360000133514404,-2.434263036403535
477.155172,,0.014155192767847841,477.092,0.5640000104904175,-2.3730658726824023
477.62069,,0.011917035545449267,477.555,0.5419999957084656,-2.4207462464769587
478.086207,,0.009827114570799636,478.024,0.5669999718666077,-2.3659829116118343
478.55172400000004,,0.009152378053137046,478.485,0.5339999794960022,-2.437543360494354
479.01724099999996,,0.010338165007400566,478.955,0.5540000200271606,-2.3936083499399174
479.482759,,0.011880213864363269,479.418,0.5490000247955322,-2.404123834214538
479.948276,,0.011571910316836666,479.88,0.5540000200271606,-2.392848378311556
480.413793,,0.008681696716561925,480.346,0.5370000004768372,-2.429510701476464
480.87931000000003,,0.004463194110579375,480.81,0.5669999718666077,-2.363795395182158
481.344828,,0.0008454590637589975,481.276,0.5630000233650208,-2.3721829113396873
481.810345,,0.0009322674557383497,481.741,0.5419999957084656,-2.4176464094685497
482.275862,,0.0008283257407364495,482.206,0.5410000085830688,-2.4195851384025207
482.74137900000005,,0.00010889633259826647,482.673,0.5379999876022339,-2.4259371570114343
483.206897,,0.00044145536544948745,483.139,0.5239999890327454,-2.4563159387737135
483.672414,,0.0004481072998640679,483.604,0.5339999794960022,-2.4344726389318323
484.13793100000004,,0.0017165504802018072,484.07,0.5630000233650208,-2.371301059952849
484.603448,,0.001916857606802629,484.532,0.5419999957084656,-2.417126689723572
485.068966,,0.0004887749942090302,484.995,0.5400000214576721,-2.42162006659149
485.534483,,0.0017774339318596959,485.463,0.5460000038146973,-2.408742336465374
486.0,,0.0035579615090463356,485.925,0.5690000057220459,-2.3588785838838913
486.46551700000003,,0.003966903396124344,486.396,0.5339999794960022,-2.435419452050309
486.931034,,0.0029118292826772066,486.858,0.5669999718666077,-2.36384621236149
487.396552,,0.000998043711042178,487.324,0.5379999876022339,-2.4273731567917554
487.862069,,0.000744875606187037,487.789,0.5400000214576721,-2.4233756239217463
488.327586,,0.0013778035700926542,488.255,0.531000018119812,-2.4433465576631894
488.79310300000003,,0.0007310315087837432,488.721,0.546999990940094,-2.4088434238953322
489.258621,,0.0003479659020563083,489.187,0.550000011920929,-2.402643406462487
489.724138,,0.0006651973973767663,489.652,0.5460000038146973,-2.411664244459857
490.189655,,0.000249926832471459,490.11,0.5210000276565552,-2.4663982324381015
490.655172,,0.001764496198722635,490.581,0.5099999904632568,-2.4905860603906134
491.12069,,0.0027704436990111407,491.044,0.5389999747276306,-2.427576387212359
491.586207,,0.0026210882275908834,491.507,0.5419999957084656,-2.421154040336416
492.05172400000004,,0.0015621709816128323,491.977,0.5519999861717224,-2.3994196117380717
492.517241,,0.00038982770695501285,492.44,0.5669999718666077,-2.366728257081958
492.982759,,0.00030588121331393843,492.903,0.5630000233650208,-2.3753673463773666
493.448276,,0.0006290287439490329,493.369,0.5419999957084656,-2.420982777150107
493.913793,,0.0011743098214759074,493.831,0.5419999957084656,-2.4207910227227045
494.37931000000003,,0.002309683615421542,494.297,0.5419999957084656,-2.420550387076953
494.844828,,0.003591665777979741,494.762,0.5360000133514404,-2.433340531123886
495.310345,,0.004000877436322111,495.228,0.5419999957084656,-2.4199549095163304
495.775862,,0.002951052528053134,495.692,0.5669999718666077,-2.3651521834118774
496.241379,,0.000963777505098161,496.158,0.5400000214576721,-2.4236262418960206
496.70689699999997,,0.0009076712128890173,496.625,0.5450000166893005,-2.412382147990893
497.172414,,0.002238671062876373,497.091,0.5669999718666077,-2.364110389419655
497.637931,,0.0035280321563621133,497.554,0.5630000233650208,-2.372502290453171
498.103448,,0.005303717572444449,498.017,0.5379999876022339,-2.4266751489445135
498.568966,,0.007178857269852087,498.485,0.5540000200271606,-2.391562098397602
499.03448299999997,,0.008045676266374665,498.947,0.5540000200271606,-2.3913540078217235
499.5,,0.007215393726244995,499.415,0.5540000200271606,-2.3911984224480323
499.96551700000003,,0.005108143793330016,499.878,0.5540000200271606,-2.3911000001120333
500.431034,,0.0027448772013855555,500.344,0.5320000052452087,-2.4389923409008087
500.89655200000004,,0.0009865077224178761,500.81,0.5419999957084656,-2.417229958605637
501.362069,,0.0004767352661903788,501.276,0.5299999713897705,-2.4434592435710556
501.827586,,0.0015779275652829882,501.741,0.5720000267028809,-2.3520992184615728
502.293103,,0.0036034244087429427,502.206,0.5400000214576721,-2.4220118332452554
502.758621,,0.004721839305687665,502.666,0.578000009059906,-2.3394648662213275
503.224138,,0.003743296080299486,503.132,0.5519999861717224,-2.396389286758621
503.68965499999996,,0.0018003794897845083,503.599,0.5270000100135803,-2.4511646786896506
504.15517200000005,,0.0012292422523089372,504.065,0.5419999957084656,-2.4188153408750916
504.62068999999997,,0.0027685948703341555,504.526,0.5720000267028809,-2.353796316387174
505.08620699999994,,0.00470669725048485,504.996,0.5379999876022339,-2.4282097418783897
505.55172400000004,,0.004943322791554707,505.459,0.5540000200271606,-2.3936791580083057
506.017241,,0.003227421407686512,505.921,0.5460000038146973,-2.4114149034190797
506.48275899999993,,0.0010536530617506774,506.387,0.5419999957084656,-2.420405294561937
506.948276,,0.0001705885721443113,506.853,0.5630000233650208,-2.3748900722458925
507.413793,,0.000305489681725627,507.318,0.5659999847412109,-2.368543389733244
507.87931,,1.1043062960354638e-05,507.785,0.5519999861717224,-2.399180418856009
508.344828,,0.00025227209299479806,508.251,0.5460000038146973,-2.4123315572870867
508.810345,,4.449540885969414e-05,508.711,0.5389999747276306,-2.4276031848565935
509.27586199999996,,0.001597954875889177,509.177,0.5429999828338623,-2.4188512195948295
509.74137900000005,,0.00471249137461529,509.644,0.5379999876022339,-2.429650198445364
510.20689699999997,,0.008366977910436035,510.11,0.5649999976158142,-2.3706782230469434
510.67241399999995,,0.010857240241666613,510.573,0.5410000085830688,-2.4227675159509627
511.13793100000004,,0.011566271700107341,511.036,0.550000011920929,-2.4029181125256858
511.603448,,0.01151192267534608,511.503,0.5419999957084656,-2.420070411632348
512.0689659999999,,0.012056623133818483,511.966,0.5669999718666077,-2.3653003031950135
512.534483,,0.013668557539814457,512.436,0.5690000057220459,-2.3606207054586705
513.0,,0.015946772490848218,512.899,0.5419999957084656,-2.419113783925423
513.465517,,0.01798813498958551,513.364,0.5450000166893005,-2.412250319620608
513.931034,,0.01837057923720212,513.827,0.5410000085830688,-2.4206511376765527
514.396552,,0.015645497059774662,514.293,0.5419999957084656,-2.4181821996307407
514.862069,,0.00970581279234028,514.761,0.5509999990463257,-2.398316330791452
515.327586,,0.0023608638477589203,515.227,0.5379999876022339,-2.4264208640551512
515.793103,,0.004104409193040044,515.691,0.5170000195503235,-2.4720019079620754
516.258621,,0.008801519267063953,516.15,0.5410000085830688,-2.419596907086478
516.724138,,0.012334554559701274,516.621,0.550000011920929,-2.3999273931470473
517.189655,,0.015490691183627975,517.08,0.5490000247955322,-2.402100969182043
517.655172,,0.018450019661284896,517.549,0.5339999794960022,-2.43483236854246
518.1206900000001,,0.020915254009720937,518.011,0.550000011920929,-2.4000804408907865
518.5862070000001,,0.022147609570948475,518.481,0.5410000085830688,-2.41984601744695
519.051724,,0.021002975685412248,518.943,0.5210000276565552,-2.463623093249343
519.517241,,0.017060101113129708,519.407,0.503000020980835,-2.5030839535146923
519.982759,,0.012047882143403877,519.877,0.546999990940094,-2.4075019419783685
520.448276,,0.008983623312341059,520.335,0.5540000200271606,-2.3925527468583083
520.9137929999999,,0.00896254146762742,520.8,0.5690000057220459,-2.3601863694070686
521.37931,,0.009422860202968958,521.266,0.574999988079071,-2.3474290292447173
521.844828,,0.006539983419866375,521.733,0.5730000138282776,-2.3520916609461127
522.310345,,0.0007108344105801614,522.198,0.5669999718666077,-2.365450552623203
522.7758620000001,,0.009273771158352052,522.662,0.5669999718666077,-2.3657105055407497
523.241379,,0.014722153658813087,523.128,0.5690000057220459,-2.3615784328124523
523.7068969999999,,0.015131020960941446,523.595,0.5720000267028809,-2.35522635886412
524.172414,,0.012455284847745735,524.061,0.5540000200271606,-2.3945795697845385
524.637931,,0.010330751655198684,524.522,0.5699999928474426,-2.359808958712316
525.103448,,0.01065035168075593,524.992,0.5659999847412109,-2.368559205305665
525.568966,,0.012280061995479406,525.455,0.5180000066757202,-2.473118158130596
526.034483,,0.012869528455717427,525.917,0.5630000233650208,-2.3750131190384707
526.5,,0.011521088719866132,526.383,0.6819999814033508,-2.115638165886358
526.9655170000001,,0.009428500745933243,526.847,0.5839999914169312,-2.3289807315100335
527.4310340000001,,0.008019016566732535,527.313,0.5960000157356262,-2.302629634139724
527.8965519999999,,0.007067312599466115,527.78,0.5109999775886536,-2.4875755766005887
528.362069,,0.005257922568068775,528.245,0.5910000205039978,-2.31302170638739
528.827586,,0.0023557959900382193,528.711,0.5929999947547913,-2.308387351102674
529.293103,,0.00016156438948124863,529.17,0.6039999723434448,-2.284137139837965
529.7586210000001,,0.0009275825173689518,529.636,0.5899999737739563,-2.3143541397609124
530.224138,,0.00037311061320990225,530.102,0.5929999947547913,-2.3075444751092893
530.689655,,0.0001761554532025427,530.57,0.5879999995231628,-2.3181834085800848
531.155172,,0.0016219960794906767,531.032,0.5789999961853027,-2.337564633403836
531.62069,,0.004893447588301339,531.495,0.5180000066757202,-2.4702718685703613
532.086207,,0.009400122805498418,531.965,0.5960000157356262,-2.3001898819144073
532.5517239999999,,0.01413700344252458,532.426,0.6209999918937683,-2.2456213888111307
533.017241,,0.01777865216442473,532.896,0.5759999752044678,-2.343604517926558
533.482759,,0.018988264360880632,533.362,0.6119999885559082,-2.26516497141255
533.9482760000001,,0.017217543237246488,533.825,0.5979999899864197,-2.29570535807723
534.413793,,0.013455661055518096,534.29,0.578000009059906,-2.339363484143129
534.87931,,0.009901401346231176,534.755,0.5929999947547913,-2.3068123450850138
535.344828,,0.0083099617722188,535.221,0.609000027179718,-2.2721207673783677
535.810345,,0.00838737661173917,535.681,0.6050000190734863,-2.2810340109224385
536.275862,,0.008074099513312526,536.147,0.6150000095367432,-2.2594708896840916
536.7413789999999,,0.005716806475892585,536.614,0.6169999837875366,-2.255354007749756
537.206897,,0.0018076310153875453,537.08,0.6330000162124634,-2.220744562968608
537.672414,,0.0017345032089245962,537.54,0.6140000224113464,-2.2623883391311157
538.137931,,0.0038032074465386596,538.01,0.6100000143051147,-2.2713455338096766
538.6034480000001,,0.0050833292461062215,538.473,0.6449999809265137,-2.1953209883765443
539.0689659999999,,0.006772142630513127,538.936,0.6549999713897705,-2.1737398639583514
539.5344829999999,,0.00891655534881847,539.407,0.6959999799728394,-2.0845900385797265
540.0,,0.010405605740567793,539.869,0.6140000224113464,-2.263378449112956
540.465517,,0.010358303760132321,540.335,0.6309999823570251,-2.226443674638619
540.931034,,0.00905304039507052,540.795,0.6579999923706055,-2.167683348907566
541.396552,,0.007333308802114877,541.261,0.7009999752044678,-2.074022654980667
541.862069,,0.0053574063482376205,541.726,0.6169999837875366,-2.257008229705499
542.327586,,0.002346450062868251,542.192,0.6359999775886536,-2.215554666519264
542.7931030000001,,0.002250826901288266,542.659,0.6389999985694885,-2.2089249750817923
543.258621,,0.007527035530279343,543.124,0.609000027179718,-2.274160374931577
543.7241379999999,,0.011323237625835736,543.596,0.6489999890327454,-2.1868653609503923
544.189655,,0.011801902412275222,544.054,0.6140000224113464,-2.2629490171689532
544.655172,,0.008972002265680203,544.522,0.625,-2.238801399632872
545.12069,,0.004889650478172133,544.984,0.6579999923706055,-2.1667157727705435
545.5862070000001,,0.0022365439200109434,545.448,0.6579999923706055,-2.1665226750876823
546.051724,,0.0021589045103759604,545.91,0.652999997138977,-2.1772255872866886
546.517241,,0.003276597335253189,546.375,0.6639999747276306,-2.15307886134025
546.982759,,0.003160174961392303,546.846,0.6259999871253967,-2.2357004653286734
547.448276,,0.0008896066091397606,547.311,0.7080000042915344,-2.056903323049975
547.9137929999999,,0.0022392564337151816,547.777,0.6389999985694885,-2.2071045335347104
548.3793099999999,,0.004548534504738656,548.235,0.640999972820282,-2.2026483355637425
548.844828,,0.005816516224464024,548.701,0.6460000276565552,-2.191686206583458
549.310345,,0.0068428897213859185,549.167,0.7300000190734863,-2.00864069507669
549.775862,,0.007700291664063096,549.636,0.6480000019073486,-2.1872794420592108
550.241379,,0.007364778044012358,550.095,0.640999972820282,-2.202549148207882
550.706897,,0.005388364206975239,550.563,0.703000009059906,-2.0675207951125203
551.172414,,0.003240226414935567,551.025,0.6700000166893005,-2.1394892277088324
551.637931,,0.0031168970795124405,551.495,0.7820000052452087,-1.8955736269663126
552.103448,,0.0054295439623472195,551.958,0.6470000147819519,-2.1897999326108333
552.568966,,0.008189628230713902,552.422,0.675000011920929,-2.1289207479428844
553.034483,,0.009168633525048344,552.891,0.6499999761581421,-2.183522287028856
553.5,,0.008188478471859042,553.357,0.6759999990463257,-2.127020462130416
553.965517,,0.0070020432212942385,553.821,0.6579999923706055,-2.1663825344041134
554.4310340000001,,0.00735533230214866,554.286,0.6869999766349792,-2.1033465837026233
554.896552,,0.009480501075626055,554.751,0.6779999732971191,-2.123092886342404
555.3620689999999,,0.012095539271477997,555.216,0.6349999904632568,-2.2169034583388147
555.827586,,0.013534092647257363,555.681,0.6370000243186951,-2.212663180562773
556.293103,,0.013163531178792787,556.14,0.6449999809265137,-2.1953369704008856
556.758621,,0.011996719629317783,556.611,0.6539999842643738,-2.175814550728982
557.224138,,0.011718241653163165,557.077,0.640999972820282,-2.204202534004084
557.689655,,0.012864602120548008,557.54,0.6570000052452087,-2.1693880965734857
558.155172,,0.014077964653805397,558.003,0.6579999923706055,-2.167230666669407
558.6206900000001,,0.013400159990003376,558.466,0.6809999942779541,-2.1171190516834755
559.0862070000001,,0.010350894108440901,558.936,0.6269999742507935,-2.234740188887873
559.5517239999999,,0.006548011168944762,559.396,0.640999972820282,-2.2041923210153986
560.017241,,0.004077396309254033,559.866,0.6169999837875366,-2.256414927158252
560.482759,,0.0032823966244764986,560.332,0.6790000200271606,-2.121257115237905
560.948276,,0.002348753314585092,560.792,0.6579999923706055,-2.166911900906388
561.413793,,0.0009446086277036103,561.257,0.6240000128746033,-2.24087684623998
561.87931,,0.007183749956223428,561.724,0.6330000162124634,-2.2211525300577306
562.344828,,0.014728029996752033,562.189,0.6370000243186951,-2.2123177133077707
562.8103450000001,,0.020738479878825045,562.656,0.6340000033378601,-2.2187329341202413
563.275862,,0.023093487941827456,563.121,0.6449999809265137,-2.194649681637585
563.7413789999999,,0.021980229772668093,563.584,0.6690000295639038,-2.1422488395350765
564.206897,,0.019661108262287556,564.046,0.6309999823570251,-2.2249320740790757
564.672414,,0.018324814955521136,564.514,0.6830000281333923,-2.111547045041355
565.137931,,0.018253977059816476,564.976,0.6190000176429749,-2.2508982228179653
565.603448,,0.018248677798008008,565.444,0.6470000147819519,-2.1898293878449935
566.068966,,0.01733487819972944,565.907,0.6949999928474426,-2.0852041865399316
566.534483,,0.015558196471006423,566.372,0.6420000195503235,-2.200638828087552
567.0,,0.013491563065537804,566.835,0.6190000176429749,-2.250732656518727
567.465517,,0.011577918065529415,567.3,0.6370000243186951,-2.2115221635002227
567.931034,,0.009866013203462844,567.766,0.6209999918937683,-2.2464058034339947
568.396552,,0.008060417342117796,568.232,0.5929999947547913,-2.307452929314279
568.862069,,0.005898486819512912,568.696,0.6050000190734863,-2.281373346917082
569.327586,,0.0035210067633231782,569.162,0.6060000061988831,-2.279276156784542
569.793103,,0.0012567899348975783,569.629,0.6200000047683716,-2.2488704139071687
570.2586210000001,,0.0008428702432759252,570.095,0.6060000061988831,-2.2794773227888063
570.724138,,0.0028438313414193904,570.555,0.5929999947547913,-2.307913142745112
571.189655,,0.004376327090951979,571.025,0.6230000257492065,-2.2426710053069714
571.655172,,0.004752465633071873,571.488,0.6140000224113464,-2.2623958311341488
572.12069,,0.0038104946158928985,571.951,0.6489999890327454,-2.186255127598447
572.586207,,0.002354126701214421,572.421,0.593999981880188,-2.306184164825864
573.051724,,0.0015180789888067298,572.884,0.5929999947547913,-2.308455732510777
573.517241,,0.0017675985854100256,573.35,0.609000027179718,-2.273677819226666
573.982759,,0.0026234217297635954,573.813,0.6110000014305115,-2.269385695950314
574.4482760000001,,0.0031957904531998114,574.279,0.6269999742507935,-2.2345744785102233
574.913793,,0.0028074062401515615,574.743,0.593999981880188,-2.306497656314129
575.37931,,0.0013910837523719388,575.209,0.5839999914169312,-2.3282929927559177
575.844828,,0.000278986553938532,575.674,0.5910000205039978,-2.31303310087832
576.310345,,0.000939354608710156,576.14,0.5979999899864197,-2.2977554090791874
576.775862,,5.259484070292317e-06,576.607,0.5860000252723694,-2.323854756592143
577.241379,,0.0017195353108477533,577.065,0.574999988079071,-2.347760425342809
577.706897,,0.002894841652914183,577.533,0.6100000143051147,-2.271434748265378
578.172414,,0.003375495910691624,577.995,0.5879999995231628,-2.3192803607506454
578.6379310000001,,0.004039798888253263,578.463,0.5929999947547913,-2.3082932537009535
579.1034480000001,,0.005041752390910023,578.925,0.5989999771118164,-2.2951212876730454
579.5689659999999,,0.005244484299867443,579.392,0.578000009059906,-2.3407695623197378
580.034483,,0.0038601500627221098,579.862,0.5960000157356262,-2.3014507797575585
580.5,,0.0017548233028989817,580.32,0.5929999947547913,-2.3078866888690674
580.965517,,0.0004119338730287667,580.792,0.5879999995231628,-2.3186856064346704
581.431034,,7.961310784420028e-05,581.257,0.5699999928474426,-2.3578160425636017
581.896552,,0.00034642911299384663,581.721,0.6000000238418579,-2.2923828989735644
582.362069,,0.0016357272606076373,582.18,0.5659999847412109,-2.3663970006938433
582.827586,,0.0029887075606257964,582.652,0.5929999947547913,-2.307528735086258
583.2931030000001,,0.002891333734880105,583.11,0.5540000200271606,-2.39246809792014
583.758621,,0.0009548000061218155,583.581,0.5640000104904175,-2.3706718848916313
584.2241379999999,,0.0016827414283228314,584.044,0.5709999799728394,-2.355430047994476
584.689655,,0.003673434248717964,584.507,0.597000002861023,-2.2988106169608726
585.155172,,0.004353507124481465,584.977,0.5759999752044678,-2.34460286118214
585.6206900000001,,0.0034007223083547945,585.44,0.5540000200271606,-2.392587839139396
586.0862070000001,,0.0009454385389207459,585.903,0.5540000200271606,-2.39265616148363
586.551724,,0.001563576727876961,586.368,0.5889999866485596,-2.316482781529121
587.017241,,0.0020437141087043644,586.831,0.5709999799728394,-2.3557850714745117
587.482759,,0.00021900391467150404,587.296,0.5239999890327454,-2.4582735348569726
587.948276,,0.0016451620439613597,587.763,0.597000002861023,-2.2993272170562906
588.4137929999999,,0.001293108345621963,588.229,0.46700000762939453,-2.5826473758244735
588.87931,,0.0009291237327804456,588.696,0.5879999995231628,-2.319125419513925
589.344828,,0.0026708303265079703,589.162,0.597000002861023,-2.299605636659739
589.810345,,0.0022806117971753232,589.621,0.5680000185966492,-2.3628630935921513
590.2758620000001,,0.0004117437741443767,590.087,0.5979999899864197,-2.2975669103264433
590.741379,,0.0008915363532516614,590.555,0.5879999995231628,-2.319400916233125
591.2068969999999,,0.00045179106385740845,591.017,0.5789999961853027,-2.3390392984145194
591.672414,,0.0007630240494799164,591.485,0.5669999718666077,-2.365196753028361
592.137931,,0.000716427041305764,591.947,0.574999988079071,-2.3477646042509956
592.603448,,0.001408096921039104,592.41,0.5709999799728394,-2.356460245464529
593.068966,,0.0043380327722708995,592.88,0.5820000171661377,-2.332460792403446
593.534483,,0.0061782809687745644,593.346,0.5640000104904175,-2.3716285020166206
594.0,,0.006291540101681731,593.81,0.5640000104904175,-2.371569147076591
594.4655170000001,,0.005586607090167462,594.276,0.5929999947547913,-2.3083196936181474
594.9310340000001,,0.005554740959981888,594.741,0.5630000233650208,-2.373603148009224
595.3965519999999,,0.007390329519806123,595.206,0.5849999785423279,-2.3255925997685667
595.862069,,0.011394574332865426,595.666,0.5669999718666077,-2.3647264386024727
596.327586,,0.016441909945965585,596.132,0.550000011920929,-2.4016834288084414
596.793103,,0.020281528186492828,596.596,0.5630000233650208,-2.3732863213219266
597.2586210000001,,0.02124824509957462,597.062,0.5809999704360962,-2.334003338914537
597.724138,,0.019952675477140483,597.525,0.5540000200271606,-2.392768269493102
598.189655,,0.018853247232820933,597.995,0.5920000076293945,-2.3099317601807723
598.655172,,0.019927440997249937,598.455,0.5540000200271606,-2.3926842943356754
599.12069,,0.022880130027228596,598.925,0.5540000200271606,-2.392661551978951
599.586207,,0.02549197190709896,599.396,0.5709999799728394,-2.3556160262614845
600.0517239999999,,0.025412923724065086,599.851,0.5920000076293945,-2.309868780791166
600.517241,,0.02170800083447353,600.317,0.5730000138282776,-2.3512792685821493
600.982759,,0.0149845609241055,600.781,0.5709999799728394,-2.355663946254582
601.448276,,0.006220491689801567,601.246,0.5540000200271606,-2.3927388059175785
601.913793,,0.004288472344589245,601.711,0.5709999799728394,-2.355749101584526
602.37931,,0.01656333104865271,602.177,0.5630000233650208,-2.3732326909860424
602.844828,,0.029626169028770428,602.644,0.5849999785423279,-2.3253616718508714
603.310345,,0.04102664213468383,603.109,0.5640000104904175,-2.371174550023403
603.775862,,0.04818169033085413,603.57,0.6399999856948853,-2.205657419274319
604.2413789999999,,0.05039837771123075,604.04,0.6060000061988831,-2.2797865157872765
604.706897,,0.04939213111933364,604.503,0.5929999947547913,-2.308157244853461
605.172414,,0.047479545202572145,604.966,0.5789999961853027,-2.338699737950273
605.637931,,0.04519361507472473,605.437,0.5419999957084656,-2.419344661267906
606.1034480000001,,0.04084669033917513,605.899,0.593999981880188,-2.306083162612815
606.5689659999999,,0.03240911660757288,606.365,0.550000011920929,-2.401964210562288
607.0344829999999,,0.01959376005775087,606.827,0.5709999799728394,-2.356225483625591
607.5,,0.004206465467687765,607.293,0.6129999756813049,-2.2647265673269064
607.965517,,0.011032706937992383,607.762,0.5680000185966492,-2.3627606789538174
608.431034,,0.023776594796252336,608.22,0.5929999947547913,-2.308281175268602
608.896552,,0.03273260842251094,608.687,0.5659999847412109,-2.3670843979948173
609.362069,,0.03794841594025347,609.152,0.5920000076293945,-2.3104133140788723
609.827586,,0.04055589723242994,609.619,0.5889999866485596,-2.3169182097676573
610.293103,,0.041383659262894036,610.084,0.5680000185966492,-2.362635182511099
610.758621,,0.039258101886564194,610.547,0.578000009059906,-2.340812789117273
611.2241379999999,,0.03137822472339729,611.01,0.5860000252723694,-2.323347668494254
611.689655,,0.016326485198263654,611.481,0.5989999771118164,-2.294990166445836
612.155172,,0.003322005303799009,611.943,0.5720000267028809,-2.3537803574546823
612.62069,,0.021878619669477944,612.407,0.550000011920929,-2.401681776087807
613.0862070000001,,0.03422654187319532,612.876,0.5540000200271606,-2.39294483412613
613.551724,,0.03888895350643458,613.335,0.5680000185966492,-2.3624286311348004
614.017241,,0.03792506102726135,613.806,0.5979999899864197,-2.2970604314040424
614.4827590000001,,0.03423635528705274,614.265,0.5649999976158142,-2.36895260345145
614.948276,,0.02938100404124571,614.736,0.5809999704360962,-2.3340967020953247
615.4137929999999,,0.023969022204943145,615.195,0.578000009059906,-2.340640229215023
615.8793099999999,,0.018992140632309522,615.66,0.5759999752044678,-2.3450096310712665
616.344828,,0.015394832410107724,616.125,0.5680000185966492,-2.3624545113452236
616.810345,,0.01261083457669519,616.592,0.5519999861717224,-2.3973320945218473
617.275862,,0.008959555835675056,617.058,0.5389999747276306,-2.4256768380788007
617.741379,,0.0038830356907390614,617.525,0.5460000038146973,-2.410450993681396
618.206897,,0.001149249153738239,617.987,0.5419999957084656,-2.4191914686915847
618.672414,,0.004413658157702592,618.455,0.5460000038146973,-2.4105022498535202
619.137931,,0.0059853798136183575,618.918,0.550000011920929,-2.4018109220611814
619.603448,,0.007585090190045133,619.384,0.5540000200271606,-2.393115779138872
620.068966,,0.010631223714191238,619.847,0.5680000185966492,-2.3626286269835055
620.534483,,0.01466030229808718,620.312,0.5460000038146973,-2.4105661720838425
621.0,,0.01772284587932918,620.777,0.5339999794960022,-2.436710659820862
621.465517,,0.01850007303639019,621.243,0.5709999799728394,-2.356094500460692
621.9310340000001,,0.01783063723347944,621.707,0.5360000133514404,-2.432333681533882
622.396552,,0.017531350789931455,622.172,0.5630000233650208,-2.373489743394893
622.862069,,0.017863630693199038,622.637,0.5690000057220459,-2.3603907599543428
623.327586,,0.017296598351210273,623.103,0.5370000004768372,-2.430074542860172
623.793103,,0.01512870264640067,623.566,0.5339999794960022,-2.4365741051518097
624.258621,,0.013073236060726552,624.036,0.5289999842643738,-2.44742979971518
624.724138,,0.013128771889375794,624.496,0.4959999918937683,-2.519289023316013
625.189655,,0.014606298051031376,624.965,0.5270000100135803,-2.45171836220253
625.655172,,0.014737145670325948,625.429,0.5230000019073486,-2.460405160623217
626.1206900000001,,0.012229971555953293,625.891,0.5370000004768372,-2.4298815419848077
626.5862070000001,,0.008881098037935046,626.357,0.5370000004768372,-2.429864968079163
627.0517239999999,,0.007142976005872815,626.821,0.5260000228881836,-2.45382031930258
627.5172409999999,,0.00715008561409641,627.287,0.5299999713897705,-2.4451039601840168
627.982759,,0.00702212353590377,627.751,0.5419999957084656,-2.418966355912944
628.448276,,0.005433542653636778,628.217,0.5339999794960022,-2.436409682107912
628.913793,,0.002807627572796019,628.681,0.5419999957084656,-2.4190021607079184
629.37931,,0.00022689085180729488,629.146,0.5249999761581421,-2.45606826829792
629.844828,,0.0017415539142750017,629.612,0.5630000233650208,-2.3733148712189047
630.3103450000001,,0.0030054910335088913,630.078,0.5540000200271606,-2.392962510691062
630.7758620000001,,0.003632039711345783,630.54,0.527999997138977,-2.449650578103052
631.2413789999999,,0.003948011999218845,631.01,0.5339999794960022,-2.4366249127289197
631.706897,,0.004446799632492417,631.473,0.5389999747276306,-2.4257796049862996
632.172414,,0.0052834564377888535,631.936,0.5460000038146973,-2.410576618237679
632.637931,,0.006089420349567884,632.4,0.531000018119812,-2.4433019024778013
633.103448,,0.006396048970280846,632.869,0.5329999923706055,-2.43898693399967
633.568966,,0.006105531318120076,633.335,0.628000020980835,-2.2320509965695474
634.034483,,0.0055556978531304145,633.8,0.527999997138977,-2.4499421877328493
634.5,,0.005168329331051683,634.265,0.5099999904632568,-2.4891757690593708
634.9655170000001,,0.004950766665618295,634.726,0.5299999713897705,-2.4456137509170928
635.431034,,0.0045007653184305565,635.191,0.515999972820282,-2.4761180310426854
635.8965519999999,,0.003796824238361477,635.658,0.515999972820282,-2.476113210113046
636.362069,,0.0036597960455747322,636.125,0.5210000276565552,-2.4652069517190025
636.827586,,0.004709497645895806,636.589,0.5109999775886536,-2.486972580052447
637.293103,,0.005929693718497217,637.055,0.515999972820282,-2.476050697447769
637.7586210000001,,0.005220378521771178,637.518,0.5320000052452087,-2.4411560642094754
638.224138,,0.0018871906046714405,637.98,0.515999972820282,-2.4759711141218803
638.689655,,0.0020426967018713884,638.451,0.5419999957084656,-2.4192762989834455
639.155172,,0.0036981865574337897,638.913,0.503000020980835,-2.5041884543468926
639.62069,,0.002271355166564772,639.379,0.5210000276565552,-2.4649144712052133
640.086207,,0.0004682034016686912,639.842,0.5419999957084656,-2.4191026834223983
640.551724,,0.002100853833544894,640.307,0.5130000114440918,-2.482222429527832
641.017241,,0.0013466891968615888,640.777,0.5090000033378601,-2.490877747877116
641.482759,,0.001435478199338362,641.235,0.5299999713897705,-2.4450707633910733
641.9482760000001,,0.004427541784399051,641.707,0.5170000195503235,-2.4733428563198774
642.413793,,0.005348544375694262,642.165,0.5130000114440918,-2.48201425556244
642.87931,,0.0035576638793620614,642.632,0.5270000100135803,-2.451478639907441
643.344828,,0.0013011492137966832,643.098,0.5170000195503235,-2.4732403218069368
643.810345,,0.00174160435721259,643.566,0.5289999842643738,-2.4470825149669464
644.275862,,0.005293799477517319,644.028,0.5289999842643738,-2.447079645627092
644.7413789999999,,0.00873814863960964,644.496,0.5299999713897705,-2.444909623661143
645.206897,,0.00859966441283313,644.958,0.5099999904632568,-2.4885031449275785
645.672414,,0.004942000218307356,645.421,0.5419999957084656,-2.418818867953295
646.1379310000001,,0.0011487963594228414,645.891,0.5170000195503235,-2.473328588785288
646.6034480000001,,0.0001472019580995004,646.357,0.5120000243186951,-2.484275936916203
647.0689659999999,,0.001585752319858917,646.821,0.5180000066757202,-2.471268056494852
647.534483,,0.00286180533357747,647.287,0.527999997138977,-2.44955349739501
648.0,,0.002142154492892822,647.746,0.5299999713897705,-2.445273663596667
648.465517,,0.00027392204850279294,648.211,0.5379999876022339,-2.427924786498386
648.931034,,0.0031563260170766132,648.678,0.5410000085830688,-2.4214694140048514
649.396552,,0.005973398038444151,649.144,0.515999972820282,-2.4760144819595586
649.862069,,0.009058363168365849,649.61,0.5260000228881836,-2.45430313415572
650.327586,,0.012603229275410452,650.076,0.5170000195503235,-2.473980689295041
650.7931030000001,,0.01585755991072088,650.536,0.5339999794960022,-2.4370055064823486
651.258621,,0.01741656264191716,651.006,0.515999972820282,-2.4762728492150603
651.7241379999999,,0.016443253746796876,651.466,0.5170000195503235,-2.474134134113259
652.189655,,0.013635314764796798,651.936,0.5360000133514404,-2.4327666521925475
652.655172,,0.01066867741024687,652.4,0.550000011920929,-2.4022770306044627
653.12069,,0.008529951812448333,652.862,0.5339999794960022,-2.437130259595237
653.5862070000001,,0.00674855692843317,653.327,0.5210000276565552,-2.4654310294564805
654.051724,,0.004487292290509258,653.793,0.5249999761581421,-2.4566796362462937
654.517241,,0.0020004791341008475,654.258,0.5350000262260437,-2.4348414376516008
654.982759,,0.0006012655803210704,654.725,0.5220000147819519,-2.463098617491346
655.448276,,0.0011943622108987629,655.191,0.5239999890327454,-2.4586643138495847
655.9137929999999,,0.002940536519936638,655.655,0.5170000195503235,-2.473828293390641
656.37931,,0.0035079461913472246,656.12,0.5419999957084656,-2.4192682950914177
656.844828,,0.001032757056953132,656.581,0.5419999957084656,-2.4191689828099525
657.310345,,0.003973411156824384,657.051,0.5429999828338623,-2.4168879475316363
657.7758620000001,,0.008983370912355884,657.514,0.5299999713897705,-2.445108171021425
658.241379,,0.0118838356236446,657.977,0.5419999957084656,-2.418865658914116
658.7068969999999,,0.01272655040894106,658.444,0.5339999794960022,-2.436202872245275
659.172414,,0.012984076504449603,658.906,0.5460000038146973,-2.409976531574914
659.637931,,0.013564790381970948,659.372,0.5170000195503235,-2.47308739707935
660.103448,,0.013914231873444415,659.842,0.546999990940094,-2.407673410667456
660.568966,,0.012819303189822127,660.3,0.45899999141693115,-2.599358456369738
661.034483,,0.009720424732344735,660.767,0.5429999828338623,-2.41633699689957
661.5,,0.005259408312092287,661.232,0.5370000004768372,-2.4294144858805664
661.965517,,0.000813985884756379,661.699,0.5220000147819519,-2.462119502846788
662.4310340000001,,0.0024108228923693472,662.165,0.550000011920929,-2.401162038565879
662.8965519999999,,0.003975706491285785,662.629,0.5320000052452087,-2.440440388348025
663.362069,,0.004102470739053905,663.095,0.5299999713897705,-2.4448769543006543
663.827586,,0.0032870060364885195,663.555,0.45500001311302185,-2.6083709935227377
664.293103,,0.0023046666936266617,664.025,0.5600000023841858,-2.379722711447743
664.7586210000001,,0.002251090014940169,664.488,0.546999990940094,-2.408163939555233
665.224138,,0.0036891125085344203,664.951,0.5199999809265137,-2.467110602934222
665.689655,,0.005640603603127657,665.421,0.5249999761581421,-2.456342245373026
666.155172,,0.0064170501291828256,665.884,0.527999997138977,-2.44992930232644
666.62069,,0.005862718765985375,666.35,0.5370000004768372,-2.430438433333026
667.086207,,0.005739165620234644,666.813,0.4909999966621399,-2.53076394777647
667.5517239999999,,0.007136629938587889,667.279,0.531000018119812,-2.4437135182831193
668.017241,,0.008481712304664862,667.743,0.5389999747276306,-2.426363938963822
668.482759,,0.007413663704526615,668.209,0.5270000100135803,-2.4525674994449225
668.948276,,0.004281887992189785,668.673,0.5529999732971191,-2.395960488380233
669.413793,,0.0023221095715067,669.139,0.5410000085830688,-2.4221178937458787
669.87931,,0.003869999880770875,669.603,0.5339999794960022,-2.4373574389848467
670.3448279999999,,0.007335424779842708,670.069,0.5440000295639038,-2.4155353652411886
670.810345,,0.008724758118113407,670.536,0.5360000133514404,-2.4329054512613135
671.275862,,0.00577588501066909,670.999,0.5260000228881836,-2.4546110122955365
671.7413789999999,,2.879652274487943e-05,671.467,0.5419999957084656,-2.4196525471863555
672.206897,,0.00523066211883616,671.929,0.5210000276565552,-2.46528768085819
672.672414,,0.007519026567205662,672.399,0.5370000004768372,-2.4303003113969415
673.137931,,0.007322346278399293,672.862,0.5529999732971191,-2.395303756895803
673.6034480000001,,0.0069742034685688565,673.32,0.5170000195503235,-2.473591664772886
674.068966,,0.008290694904981752,673.792,0.5249999761581421,-2.456019453312569
674.5344829999999,,0.010622261124832052,674.25,0.5460000038146973,-2.410129403690376
675.0,,0.01158456952494517,674.718,0.5170000195503235,-2.4731806176923614
675.465517,,0.010019808201590787,675.183,0.5239999890327454,-2.4578140762454277
675.931034,,0.007528123690202641,675.648,0.5519999861717224,-2.39671289779468
676.396552,,0.0063560528647092765,676.113,0.5270000100135803,-2.4510996968982477
676.862069,,0.006539510667703841,676.577,0.5379999876022339,-2.427077762449717
677.327586,,0.006314427355826964,677.04,0.5360000133514404,-2.431402827447507
677.793103,,0.00490393000402602,677.51,0.5379999876022339,-2.427039185959996
678.2586210000001,,0.003464748378736131,677.973,0.5440000295639038,-2.4139869217669405
678.7241379999999,,0.0030937533458230485,678.436,0.550000011920929,-2.400960224803784
679.1896549999999,,0.003102301284707399,678.906,0.5419999957084656,-2.4184587726770763
679.655172,,0.001987620732513182,679.372,0.5540000200271606,-2.392406531648092
