Trial: ,28
Threshold: ,0.0
Maximum EMG: ,0.048070649920130624
Success: ,True

EMG Time,Raw EMG,Filtered EMG,Force Time,Raw Force (V),Filtered Force (N)
0.0,samples,3.403263675627149e-06,0.467,0.5839999914169312,-2.3267168520132846
0.46551699999999996,time,3.433762470802681e-06,0.93,0.5709999799728394,-2.354807067681183
0.9310339999999999,value,3.4533398376710174e-06,1.395,0.5669999718666077,-2.3633255377419546
1.396552,,3.461454328736793e-06,1.86,0.5519999861717224,-2.395852180054939
1.862069,,3.4575819686365194e-06,2.326,0.5830000042915344,-2.328209045457711
2.327586,,3.441218876276719e-06,2.791,0.5820000171661377,-2.3303333913792863
2.793103,,3.411883928597191e-06,3.257,0.5849999785423279,-2.3237952375286173
3.258621,,3.369121458263011e-06,3.724,0.5979999899864197,-2.2955224249311734
3.724138,,3.3125039771355727e-06,4.19,0.5920000076293945,-2.3086941515801347
4.189654999999999,,3.2416349169291016e-06,4.653,0.5820000171661377,-2.330628050253652
4.655172,,3.1561513780267205e-06,5.116,0.5640000104904175,-2.3700352663834052
5.12069,,3.0557268770112374e-06,5.584,0.5879999995231628,-2.3179780449075804
5.586207,,2.9400740830625434e-06,6.045,0.5709999799728394,-2.3552771169870583
6.051723999999999,,2.808947532987849e-06,6.516,0.5720000267028809,-2.353384237097821
6.517241,,2.6621463142851794e-06,6.978,0.5879999995231628,-2.318826902249882
6.982759,,2.4995167052967308e-06,7.444,0.6079999804496765,-2.275559825477685
7.448276,,2.320954761189009e-06,7.909,0.5690000057220459,-2.3608280719545354
7.913793000000001,,2.126408834203336e-06,8.375,0.5789999961853027,-2.3393292818579012
8.379309999999998,,1.9158820163554944e-06,8.839,0.6069999933242798,-2.2785923781285584
8.844828000000001,,1.6894344925291606e-06,9.304,0.574999988079071,-2.3485430942151706
9.310345,,1.447185791706514e-06,9.772,0.6100000143051147,-2.272485578940982
9.775862,,1.1893169239131406e-06,10.23,0.6060000061988831,-2.2813499972115965
10.241379,,9.160723903251752e-07,10.701,0.6060000061988831,-2.2814490844548025
10.706897,,6.277620538966172e-07,11.16,0.6019999980926514,-2.2902090609987216
11.172414,,3.247628578159034e-07,11.628,0.6100000143051147,-2.272769995178716
11.637931,,7.520379095108978e-09,12.09,0.5849999785423279,-2.3271717704786803
12.103447999999998,,3.234497953655665e-07,12.56,0.6039999723434448,-2.285660616907278
12.568966000000001,,6.675608828092731e-07,13.023,0.5680000185966492,-2.3639267825776455
13.034483,,1.024153921186568e-06,13.489,0.5669999718666077,-2.365898242046974
13.5,,1.3924970005039176e-06,13.955,0.6079999804496765,-2.2763304236876842
13.965517,,1.771784720972102e-06,14.422,0.5669999718666077,-2.3653826758545375
14.431034,,2.161137889680524e-06,14.886,0.5709999799728394,-2.356375489661998
14.896552,,2.5596034671796925e-06,15.345,0.5830000042915344,-2.329928208612585
15.362069,,2.966154774954999e-06,15.816,0.578000009059906,-2.340515946669391
15.827586000000002,,3.3796919743193627e-06,16.282,0.6060000061988831,-2.2792149409528104
16.293103,,3.799042826739599e-06,16.746,0.4050000011920929,-2.716843163088445
16.758621,,4.222963745040774e-06,17.211,0.6010000109672546,-2.28957791403085
17.224138,,4.650141144303958e-06,17.672,0.5789999961853027,-2.3372927498560543
17.689655,,5.079193100585345e-06,18.141,0.5920000076293945,-2.3087924429132336
18.155172,,5.508671324838557e-06,18.602,0.5649999976158142,-2.367481321339729
18.62069,,5.937063458617341e-06,19.065,0.5709999799728394,-2.3543224307220445
19.086207,,6.362795697273033e-06,19.535,0.5839999914169312,-2.3259629936265527
19.551724,,6.784235745440661e-06,19.997,0.5929999947547913,-2.306368354387108
20.017241000000002,,7.1996961086303074e-06,20.463,0.5830000042915344,-2.3282172432491155
20.482758999999998,,7.607437723707215e-06,20.926,0.6169999837875366,-2.2542523986373375
20.948276,,8.005673929956444e-06,21.392,0.5789999961853027,-2.3371932790351373
21.413793000000002,,8.392574781287274e-06,21.857,0.5789999961853027,-2.3373847987139973
21.87931,,8.766271698940561e-06,22.323,0.5720000267028809,-2.3528612470618175
22.344828,,9.124862462821253e-06,22.79,0.5730000138282776,-2.350936612792521
22.810344999999998,,9.466416538290136e-06,23.256,0.5789999961853027,-2.3381392421424843
23.275862,,9.78898073391663e-06,23.72,0.5989999771118164,-2.294852570157969
23.741379,,1.009058518432047e-05,24.185,0.5540000200271606,-2.3931813058249154
24.206897,,1.0369249650817934e-05,24.646,0.5920000076293945,-2.3106777137958145
24.672414,,1.0622990131140976e-05,25.116,0.5960000157356262,-2.3022345726114324
25.137931,,1.0849825768018887e-05,25.579,0.5950000286102295,-2.3046623055695807
25.603448,,1.1047786044906005e-05,26.042,0.5669999718666077,-2.3658846019457167
26.068966,,1.1214918255609516e-05,26.505,0.5830000042915344,-2.3312114268418753
26.534483,,1.134929523302322e-05,26.975,0.6010000109672546,-2.292140550190624
27.0,,1.1449023320610605e-05,27.441,0.5690000057220459,-2.3619571883380748
27.465517,,1.151225056870911e-05,27.905,0.5830000042915344,-2.331508773451274
27.931034,,1.1537175136151847e-05,28.371,0.5960000157356262,-2.3031902079158586
28.396552,,1.1522053876128996e-05,28.83,0.5720000267028809,-2.3554325979174555
28.862069,,1.1465211083644151e-05,29.296,0.5669999718666077,-2.366233918506147
29.327586,,1.1365047380367054e-05,29.761,0.5690000057220459,-2.3617410145128934
29.793103000000002,,1.1220048711149381e-05,30.227,0.5849999785423279,-2.3267074102291736
30.258620999999998,,1.102879542496101e-05,30.694,0.5669999718666077,-2.3657129419367338
30.724138,,1.0789971411526733e-05,31.16,0.5709999799728394,-2.3567597058469607
31.189655000000002,,1.0502373263504683e-05,31.62,0.5789999961853027,-2.339070379641086
31.655172000000004,,1.0164919432654197e-05,32.09,0.5669999718666077,-2.3649400350049623
32.12069,,9.776659347099811e-06,32.553,0.5709999799728394,-2.355945282916909
32.586207,,9.336782455516105e-06,33.016,0.5540000200271606,-2.392704600827648
33.051724,,8.844627162842828e-06,33.481,0.5960000157356262,-2.3009339449920727
33.517241000000006,,8.299689620997997e-06,33.952,0.5820000171661377,-2.331184510355933
33.982759,,7.701632336995887e-06,34.41,0.5669999718666077,-2.3636378730095293
34.448276,,7.050292559904145e-06,34.875,0.5979999899864197,-2.2959039900521
34.913793,,6.345690407197138e-06,35.34,0.593999981880188,-2.3044584316080137
35.37931,,5.588036690288211e-06,35.805,0.5910000205039978,-2.3108738915901044
35.844828,,4.7777403983589635e-06,36.271,0.5920000076293945,-2.3086183040725516
36.310345,,3.915415799056185e-06,36.738,0.6039999723434448,-2.2824431461410772
36.775862,,3.001889114203549e-06,37.204,0.5770000219345093,-2.341281708153155
37.241378999999995,,2.0382047283826383e-06,37.665,0.6190000176429749,-2.249839898926112
37.706897000000005,,1.0256308880828434e-06,38.135,0.578000009059906,-2.3392704222658036
38.172414,,3.4335150891188554e-08,38.597,0.5690000057220459,-2.359026693384542
38.637931,,1.1399625699264372e-06,39.06,0.5839999914169312,-2.3265347222702673
39.103448,,2.289283069898788e-06,39.528,0.6069999933242798,-2.2766468110858606
39.568965999999996,,3.480087630678915e-06,39.99,0.5709999799728394,-2.3553258812453515
40.034483,,4.709923988639682e-06,40.455,0.5920000076293945,-2.309842066252523
40.5,,5.976094872160284e-06,40.922,0.5799999833106995,-2.336266544513832
40.965517,,7.275657034147617e-06,41.387,0.578000009059906,-2.340909294259374
41.431034,,8.605421119439426e-06,41.856,0.5669999718666077,-2.365157236199973
41.896552,,9.961952403612974e-06,42.315,0.5690000057220459,-2.3610720530706004
42.362069000000005,,1.1341572438193923e-05,42.786,0.5799999833106995,-2.3373606130889466
42.827586000000004,,1.2740361635540497e-05,43.245,0.5690000057220459,-2.361553103941918
43.293103,,1.4154162824765237e-05,43.71,0.578000009059906,-2.3421396480794923
43.758621,,1.5578585807949688e-05,44.175,0.5879999995231628,-2.3205083543757503
44.224138,,1.7009012943604853e-05,44.646,0.5789999961853027,-2.340226984883218
44.689655,,1.844060578183238e-05,45.108,0.6169999837875366,-2.257500615240434
45.155172,,1.9868312772948458e-05,45.576,0.6190000176429749,-2.253153584032058
45.620689999999996,,2.1286878068445488e-05,46.038,0.5669999718666077,-2.366401455924898
46.086206999999995,,2.2690851430087653e-05,46.501,0.5929999947547913,-2.309664616580075
46.551724,,2.4074599259668133e-05,46.971,0.49000000953674316,-2.5339280021820927
47.017241,,2.5432316758501806e-05,47.43,0.6370000243186951,-2.2134878892387375
47.482759,,2.6758041222091496e-05,47.902,0.5759999752044678,-2.346168229900243
47.948276,,2.80456664715938e-05,48.36,0.5249999761581421,-2.457029775412152
48.413793,,2.9288958419727745e-05,48.827,0.5019999742507935,-2.5068674377553974
48.879310000000004,,3.0481571764623418e-05,49.293,0.5649999976158142,-2.3693277080232966
49.344828,,3.161706780080534e-05,49.757,0.5830000042915344,-2.329819357174485
49.810345,,3.2688933332055775e-05,50.223,0.5540000200271606,-2.39270644156358
50.275862,,3.369060066631573e-05,50.686,0.5709999799728394,-2.3553833626460907
50.741379,,3.461546866806648e-05,51.156,0.578000009059906,-2.3398620306176743
51.206897,,3.5456924838803224e-05,51.62,0.574999988079071,-2.346149859812403
51.672414,,3.620836839127734e-05,52.083,0.6110000014305115,-2.2674992845270476
52.137931,,3.686323427815789e-05,52.546,0.5839999914169312,-2.326138273573114
52.603448,,3.741501813065998e-05,53.016,0.5830000042915344,-2.3281728470496366
53.068966,,3.78573020575226e-05,53.482,0.5709999799728394,-2.3542184274279765
53.534483,,3.818378124950731e-05,53.945,0.6060000061988831,-2.277916255852276
54.0,,3.8388291329348374e-05,54.41,0.5730000138282776,-2.349812625819781
54.465517,,3.8464836381831085e-05,54.875,0.5830000042915344,-2.328078434731738
54.931034,,3.8407617593428174e-05,55.34,0.5839999914169312,-2.326002778494094
55.396552,,3.821106242570076e-05,55.806,0.5830000042915344,-2.32833254318557
55.862069,,3.786985424149256e-05,56.271,0.3619999885559082,-2.8100138325112036
56.327586,,3.737896229783235e-05,56.736,0.5540000200271606,-2.391960949567655
56.793102999999995,,3.67336720144323e-05,57.201,0.6169999837875366,-2.254990864515579
57.258621000000005,,3.592961542174944e-05,57.664,0.6079999804496765,-2.2749063788656505
57.724138,,3.496280168778729e-05,58.127,0.5699999928474426,-2.358016600595513
58.189655,,3.382964761817668e-05,58.59,0.5929999947547913,-2.308235023347341
58.655172,,3.2527008019611825e-05,59.06,0.5929999947547913,-2.3085585170118375
59.120689999999996,,3.1052205812454346e-05,59.52,0.578000009059906,-2.3415482781594346
59.586207,,2.9403061774276578e-05,59.991,0.5820000171661377,-2.3331216927680054
60.051724,,2.7577923792321384e-05,60.456,0.578000009059906,-2.3420940381309596
60.517241,,2.5575695499332105e-05,60.915,0.5649999976158142,-2.3706365999084325
60.982758999999994,,2.3395864163978222e-05,61.38,0.5699999928474426,-2.3599196742492525
61.448276,,2.1038527704193227e-05,61.847,0.5799999833106995,-2.3382601808814245
61.913793,,1.850442068917598e-05,62.312,0.5759999752044678,-2.3470480135299
62.379310000000004,,1.5794939193609075e-05,62.779,0.597000002861023,-2.301312841658662
62.84482800000001,,1.2912164365841265e-05,63.244,0.5669999718666077,-2.366631198411938
63.310345000000005,,9.858884570389011e-06,63.709,0.5809999704360962,-2.3360325025862556
63.775862000000004,,6.6386159641578295e-06,64.175,0.5899999737739563,-2.316272960563953
64.241379,,3.2556213652892653e-06,64.638,0.6079999804496765,-2.276854620431347
64.706897,,2.850727264738471e-07,65.101,0.574999988079071,-2.348501831172165
65.172414,,3.977661098522419e-06,65.572,0.5899999737739563,-2.3155360037129817
65.637931,,7.815546922823916e-06,66.034,0.5759999752044678,-2.3457215570871712
66.103448,,1.179133112012828e-05,66.498,0.5950000286102295,-2.303991160654526
66.56896599999999,,1.5896804126881142e-05,66.96,0.5830000042915344,-2.3297882024091763
67.03448300000001,,2.012294019810183e-05,67.426,0.5249999761581421,-2.455803607638638
67.5,,2.4459894376205993e-05,67.89,0.5849999785423279,-2.3247502934113133
67.965517,,2.8897002251870417e-05,68.356,0.6060000061988831,-2.2786845018930806
68.431034,,3.342278263853814e-05,68.82,0.5950000286102295,-2.3023633606205705
68.896552,,3.802494327703498e-05,69.286,0.597000002861023,-2.297756314658551
69.362069,,4.269038968100525e-05,69.754,0.6179999709129333,-2.251798729912795
69.827586,,4.740523722746697e-05,70.219,0.5669999718666077,-2.3627541581126867
70.293103,,5.2154826589731926e-05,70.683,0.5680000185966492,-2.3604765868145257
70.75862099999999,,5.692374260222882e-05,71.145,0.5699999928474426,-2.356081641022177
71.22413800000001,,6.16958366384092e-05,71.616,0.6079999804496765,-2.273317171203643
71.689655,,6.645425257390631e-05,72.079,0.5879999995231628,-2.3169748184905297
72.15517200000001,,7.118145639746136e-05,72.542,0.5830000042915344,-2.328011383356191
72.62069,,7.58592695218364e-05,73.005,0.5540000200271606,-2.3913914635632945
73.086207,,8.046890583600597e-05,73.471,0.574999988079071,-2.345890455608424
73.551724,,8.49910125283739e-05,73.941,0.5709999799728394,-2.3548996544464367
74.017241,,8.940571469861058e-05,74.406,0.5699999928474426,-2.3574081943626486
74.482759,,9.369266376296714e-05,74.871,0.578000009059906,-2.3403345719535276
74.94827599999999,,9.783108964461651e-05,75.33,0.578000009059906,-2.3407051195514432
75.41379300000001,,0.00010179985672671948,75.795,0.5669999718666077,-2.3650448846471614
75.87931,,0.00010557752353154268,76.261,0.6060000061988831,-2.2804444963953334
76.344828,,0.00010914240607409376,76.727,0.5929999947547913,-2.309114355181133
76.810345,,0.00011247264482341827,77.193,0.5929999947547913,-2.309431360942925
77.275862,,0.00011554627518895858,77.661,0.6019999980926514,-2.2901005421698444
77.741379,,0.00011834130143324266,78.123,0.6019999980926514,-2.290328764854976
78.206897,,0.00012083577389569405,78.591,0.5789999961853027,-2.3406103194015357
78.67241399999999,,0.00012300786939557472,79.052,0.6060000061988831,-2.2818987231614405
79.137931,,0.00012483597466503792,79.52,0.5960000157356262,-2.3037324750619526
79.603448,,0.00012629877264602653,79.983,0.5680000185966492,-2.364715957108275
80.068966,,0.00012737533146735762,80.448,0.5699999928474426,-2.360275527059971
80.53448300000001,,0.00012804519590084134,80.912,0.6050000190734863,-2.283877031806503
81.0,,0.00012828848107774855,81.378,0.5849999785423279,-2.327244921236511
81.465517,,0.0001280859682294278,81.842,0.5669999718666077,-2.366202228235143
81.931034,,0.00012741920219844127,82.308,0.5709999799728394,-2.3571844203353023
82.396552,,0.0001262705904493081,82.772,0.5509999990463257,-2.400418710258296
82.86206899999999,,0.00012462350329087735,83.237,0.5720000267028809,-2.354303014128339
83.327586,,0.00012246237500557357,83.702,0.5669999718666077,-2.3648172943135966
83.79310299999999,,0.00011977280556433704,84.168,0.6169999837875366,-2.2555005456083115
84.258621,,0.00011654166259009044,84.631,0.5009999871253967,-2.5078460631738593
84.72413800000001,,0.00011275718321708258,85.1,0.5730000138282776,-2.3506251160022966
85.189655,,0.00010840907547856029,85.561,0.5759999752044678,-2.343760699429467
85.65517200000001,,0.00010348861884098422,86.03,0.5759999752044678,-2.343469944244902
86.12069,,9.798876348950775e-05,86.498,0.593999981880188,-2.3040094967104734
86.586207,,9.190422795676301e-05,86.96,0.609000027179718,-2.271137283952984
87.051724,,8.523159467522365e-05,87.426,0.5830000042915344,-2.3276476646736532
87.517241,,7.796940302262046e-05,87.89,0.574999988079071,-2.3450052729308166
87.98275899999999,,7.011823942015338e-05,88.356,0.5920000076293945,-2.3079624418983413
88.448276,,6.168082403465264e-05,88.816,0.5709999799728394,-2.3537747351001945
88.913793,,5.266209362847192e-05,89.281,0.5920000076293945,-2.308148713506138
89.37931,,4.306928009482466e-05,89.746,0.6060000061988831,-2.277834465876528
89.844828,,3.291198421158055e-05,90.211,0.5839999914169312,-2.3260072445042845
90.310345,,2.2202244143295372e-05,90.679,0.5699999928474426,-2.3568005820332645
90.775862,,1.0954598219529721e-05,91.141,0.5789999961853027,-2.337527389464056
91.241379,,8.138584826094052e-07,91.609,0.593999981880188,-2.3052149346027853
91.706897,,1.308342422222684e-05,92.071,0.5669999718666077,-2.3644276266859316
92.17241399999999,,2.5831747811945665e-05,92.535,0.5889999866485596,-2.3168974604714547
92.63793100000001,,3.903379343094344e-05,93.005,0.5669999718666077,-2.3652274164655553
93.103448,,5.266181348898166e-05,93.47,0.6050000190734863,-2.282825782257092
93.568966,,6.668532998786836e-05,93.933,0.5669999718666077,-2.3659774781139293
94.03448300000001,,8.107112481601519e-05,94.399,0.6019999980926514,-2.2900526689976624
94.5,,9.578323939897105e-05,94.864,0.5920000076293945,-2.312121908432718
94.965517,,0.00011078298411399555,95.33,0.6140000224113464,-2.2644198911296347
95.431034,,0.00012602895785984237,95.794,0.6150000095367432,-2.262407437828079
95.896552,,0.0001414770781539289,96.259,0.5849999785423279,-2.327865947270917
96.36206899999999,,0.00015708062210794953,96.724,0.5659999847412109,-2.369290278373704
96.827586,,0.00017279027860973338,97.19,0.5879999995231628,-2.3213206594729754
97.293103,,0.00018855421201374256,97.653,0.6110000014305115,-2.271102983483623
97.758621,,0.00020431813761505704,98.116,0.5879999995231628,-2.321035707952499
98.224138,,0.0002200254091520005,98.584,0.5669999718666077,-2.3665493521161047
98.689655,,0.0002356171185507463,99.046,0.5669999718666077,-2.366257323326828
99.155172,,0.00025103220809132476,99.51,0.5929999947547913,-2.309274515023238
99.62069,,0.0002662075951384649,99.979,0.5860000252723694,-2.324150000382794
100.086207,,0.00028107830954268834,100.445,0.5839999914169312,-2.3281057864838113
100.551724,,0.00029557764377707965,100.909,0.574999988079071,-2.3472973796097594
101.017241,,0.00030963731583324186,101.375,0.5830000042915344,-2.3294494835644746
101.482759,,0.00032318764485618105,101.835,0.5849999785423279,-2.3246831634299125
101.948276,,0.00033615773945232756,102.3,0.5440000295639038,-2.413620676103286
102.413793,,0.0003484756985576783,102.772,0.5759999752044678,-2.343551360519137
102.87931,,0.00036006882470423823,103.23,0.5960000157356262,-2.299669541208648
103.344828,,0.0003708638494726535,103.695,0.6140000224113464,-2.260196469036749
103.810345,,0.00038078717086728305,104.161,0.5690000057220459,-2.3580372564405403
104.275862,,0.0003897651022970778,104.631,0.6179999709129333,-2.251150504092379
104.741379,,0.0003977241327916648,105.093,0.5839999914169312,-2.325160888781188
105.206897,,0.0004045911980271178,105.557,0.5440000295639038,-2.4123159240998313
105.672414,,0.00041029396168019245,106.02,0.5879999995231628,-2.3165388904258153
106.13793100000001,,0.00041476110657347886,106.485,0.5929999947547913,-2.3058004667942607
106.603448,,0.0004179226350171605,106.956,0.5879999995231628,-2.316914859049161
107.068966,,0.0004197101776960435,107.415,0.5929999947547913,-2.3063030962905025
107.534483,,0.00042005731039343783,107.88,0.5960000157356262,-2.3001009364810616
108.0,,0.0004188998777865347,108.345,0.515999972820282,-2.474771086296838
108.46551699999999,,0.000416176323491341,108.812,0.5759999752044678,-2.3444655976273245
108.931034,,0.0004118280254792297,109.278,0.5419999957084656,-2.4189764170643193
109.396552,,0.00040579963593196457,109.743,0.5709999799728394,-2.3562425838587977
109.862069,,0.0003980394245479007,110.208,0.6129999756813049,-2.2651820283625606
110.32758600000001,,0.00038849962425918796,110.671,0.5820000171661377,-2.333143808576611
110.793103,,0.00037713677826846235,111.141,0.625,-2.2398536216066107
111.258621,,0.0003639120872639493,111.601,0.5920000076293945,-2.312096510752578
111.724138,,0.00034879175562438505,112.072,0.5540000200271606,-2.395179100940392
112.189655,,0.00033174733537994633,112.535,0.5720000267028809,-2.3561965829026517
112.655172,,0.0003127560666527316,112.998,0.593999981880188,-2.3084312202826025
113.12069,,0.00029180121326052155,113.463,0.597000002861023,-2.301985202508217
113.586207,,0.0002688723921308358,113.927,0.593999981880188,-2.3085327731382073
114.051724,,0.0002439658951389614,114.392,0.5820000171661377,-2.3346091842364975
114.51724100000001,,0.0002170850019539243,114.857,0.6060000061988831,-2.2821770806072474
114.982759,,0.0001882402824505796,115.322,0.5889999866485596,-2.3189959039528953
115.448276,,0.00015744988722436908,115.788,0.5830000042915344,-2.331782204109639
115.913793,,0.00012473982472809667,116.254,0.6119999885559082,-2.268256702114812
116.37931,,9.014422353755568e-05,116.721,0.5669999718666077,-2.365901919135236
116.84482799999999,,5.370557824525583e-05,117.187,0.6169999837875366,-2.256537758538577
117.310345,,1.5474977479102137e-05,117.65,0.5809999704360962,-2.3345121618850966
117.77586199999999,,2.4487687454102956e-05,118.112,0.5849999785423279,-2.3253290592427533
118.241379,,6.611353479181856e-05,118.575,0.5709999799728394,-2.3553648664231885
118.70689700000001,,0.00010932452688260295,119.045,0.5809999704360962,-2.3331304566554567
119.172414,,0.0001540333285531259,119.509,0.574999988079071,-2.3457851135864183
119.63793100000001,,0.0002001431907050355,119.971,0.5540000200271606,-2.3911631684869192
120.103448,,0.00024754786053809465,120.437,0.6039999723434448,-2.2819122028119017
120.568966,,0.0002961315197562586,120.902,0.6060000061988831,-2.277299252074683
121.034483,,0.0003457687520670554,121.367,0.5989999771118164,-2.29236426247042
121.5,,0.0003963245412314318,121.835,0.5789999961853027,-2.3358280180705204
121.96551699999999,,0.0004476543008607431,122.301,0.5809999704360962,-2.3314424548177946
122.431034,,0.0004996039370899314,122.76,0.6150000095367432,-2.25742173817546
122.896552,,0.0005520099451818422,123.226,0.5770000219345093,-2.340343810277583
123.362069,,0.0006046995410372225,123.698,0.597000002861023,-2.296981154199001
123.827586,,0.0006574908284968073,124.156,0.6079999804496765,-2.2732971396463153
124.293103,,0.0007101930032245757,124.627,0.5929999947547913,-2.3063202726365235
124.758621,,0.0007626065938564991,125.089,0.5809999704360962,-2.3328606652592776
125.22413800000001,,0.0008145237409914062,125.553,0.5720000267028809,-2.3529075312305014
125.68965500000002,,0.000865728514490058,126.015,0.6039999723434448,-2.283659810295019
126.15517200000001,,0.000915997269426226,126.482,0.6039999723434448,-2.2841437682782315
126.62069000000001,,0.0009650990408924261,126.945,0.652999997138977,-2.177873116732079
127.086207,,0.001012795977716082,127.41,0.574999988079071,-2.348275622205987
127.55172400000001,,0.0010588438150146502,127.875,0.593999981880188,-2.307321604411704
128.017241,,0.0011029923854045276,128.34,0.5830000042915344,-2.3316873480357567
128.48275900000002,,0.0011449861685217935,128.805,0.5669999718666077,-2.3668951717420668
128.948276,,0.0011845648782812046,129.271,0.6039999723434448,-2.2865727669536753
129.413793,,0.0012214640870850406,129.739,0.6190000176429749,-2.2541085917553265
129.87931,,0.0012554158861347302,130.204,0.5830000042915344,-2.3326763547127687
130.344828,,0.00128614958101933,130.665,0.6060000061988831,-2.2826206741817345
130.81034499999998,,0.0013133924215092863,131.135,0.5920000076293945,-2.313089980968762
131.275862,,0.001336870363853305,131.598,0.5799999833106995,-2.339117823689757
131.741379,,0.0013563088634799532,132.06,0.6129999756813049,-2.26702526456115
132.206897,,0.0013714336965823311,132.528,0.6079999804496765,-2.2776446674911695
132.67241399999997,,0.0013819718099305615,132.99,0.5929999947547913,-2.309981406546814
133.13793099999998,,0.001387652197350849,133.455,0.5889999866485596,-2.3182944493422686
133.60344800000001,,0.0013882067983929797,133.922,0.6050000190734863,-2.2829875373683497
134.06896600000002,,0.0013833714138319065,134.388,0.6140000224113464,-2.262896698717259
134.53448300000002,,0.0013728866375375007,134.854,0.6060000061988831,-2.2798220675801706
135.0,,0.0013564988095409677,135.319,0.625,-2.2379176640538923
135.465517,,0.0013339609888967602,135.784,0.5720000267028809,-2.352885319424622
135.931034,,0.0013050339286892186,136.249,0.5899999737739563,-2.313194728324216
136.396552,,0.0012694870349968445,136.716,0.5789999961853027,-2.3367253014214375
136.862069,,0.0012270993242402956,137.175,0.5830000042915344,-2.327629806562618
137.327586,,0.0011776604200999087,137.642,0.5690000057220459,-2.357815547517809
137.793103,,0.0011209715851314285,138.112,0.5820000171661377,-2.3292531245877313
138.258621,,0.001056846690120985,138.572,0.5479999780654907,-2.4031705319305527
138.724138,,0.0009851130451654557,139.042,0.5120000243186951,-2.481534870289815
139.189655,,0.0009056122222482064,139.505,0.5680000185966492,-2.3595565081779117
139.655172,,0.0008182011199101431,139.967,0.593999981880188,-2.3030279933582696
140.12069,,0.0007227531936324842,140.433,0.5870000123977661,-2.3184797230523806
140.586207,,0.0006191592660658505,140.897,0.5950000286102295,-2.301330361331198
141.05172399999998,,0.0005073275970328357,141.363,0.5860000252723694,-2.3212883942312774
141.51724099999998,,0.00038718415275122497,141.828,0.5839999914169312,-2.326056108623464
141.982759,,0.000258674471810586,142.293,0.5789999961853027,-2.3374080178591643
142.44827600000002,,0.00012176630091225747,142.761,0.5879999995231628,-2.318293618316201
142.913793,,2.355054303217947e-05,143.226,0.5019999742507935,-2.5061724407510644
143.37931,,0.00017726822047367034,143.687,0.5730000138282776,-2.3520110368622715
143.844828,,0.00033936245642489837,144.156,0.6050000190734863,-2.28280753665946
144.310345,,0.0005097842597395734,144.62,0.5860000252723694,-2.3246880224846356
144.77586200000002,,0.0006884489734937913,145.082,0.5540000200271606,-2.3948499147681446
145.241379,,0.000875243640093785,145.546,0.6100000143051147,-2.2732366981933363
145.706897,,0.0010700546254443922,146.015,0.6060000061988831,-2.28227522091793
146.172414,,0.0012727739140498508,146.481,0.5759999752044678,-2.347881331102159
146.637931,,0.0014832469106470815,146.944,0.5789999961853027,-2.34150826628071
147.103448,,0.0017012176259305922,147.409,0.5630000233650208,-2.3764417099071107
147.568966,,0.0019263922456208243,147.876,0.5860000252723694,-2.3263178762382393
148.034483,,0.0021586027105880666,148.342,0.574999988079071,-2.3501782011854275
148.5,,0.0023978068531162484,148.801,0.6050000190734863,-2.2846262353268156
148.965517,,0.002643752716750257,149.267,0.5540000200271606,-2.3954631282174415
149.43103399999998,,0.002895711293441723,149.732,0.5910000205039978,-2.314505904163553
149.89655199999999,,0.003152954575202015,150.198,0.5809999704360962,-2.3358824182519418
150.362069,,0.0034156876691658873,150.66,0.6019999980926514,-2.2896692748385776
150.82758600000003,,0.0036848107769757005,151.13,0.5979999899864197,-2.297884359997072
151.293103,,0.003959814316655087,151.592,0.5680000185966492,-2.3627214761565227
151.758621,,0.004237591180266031,152.055,0.6019999980926514,-2.2881186542993754
152.224138,,0.004515819522079662,152.526,0.5929999947547913,-2.307206609351441
152.68965500000002,,0.004798105754026601,152.989,0.5960000157356262,-2.300174964361472
153.155172,,0.005091133674119152,153.455,0.5820000171661377,-2.3302199782019053
153.62069,,0.005391817729291157,153.921,0.5929999947547913,-2.3058525154214897
154.086207,,0.005682920266591841,154.387,0.5680000185966492,-2.359982612733239
154.551724,,0.005955974605476768,154.846,0.4650000035762787,-2.584126653405826
155.017241,,0.0062385857319619065,155.311,0.6060000061988831,-2.276768957244028
155.482759,,0.006569075486334065,155.776,0.6110000014305115,-2.2657978746691416
155.948276,,0.006920123828396871,156.241,0.5920000076293945,-2.3072044635235245
156.413793,,0.0071899983792648,156.709,0.6060000061988831,-2.276805727545839
156.87931,,0.007352574749158436,157.174,0.5789999961853027,-2.3358189962143756
157.34482799999998,,0.007595034414203252,157.635,0.6079999804496765,-2.2729098435035846
157.81034499999998,,0.008119183538536127,158.106,0.5929999947547913,-2.3059347263059995
158.275862,,0.008699752023635121,158.568,0.5860000252723694,-2.321593789780373
158.741379,,0.008740864123079901,159.031,0.5830000042915344,-2.328590214057231
159.20689700000003,,0.008231655761234673,159.501,0.5759999752044678,-2.3443397478688532
159.672414,,0.008399530307723602,159.964,0.5960000157356262,-2.3012891388200534
160.137931,,0.010267150462701422,160.429,0.5830000042915344,-2.330141602733103
160.60344800000001,,0.012064103820671161,160.895,0.6179999709129333,-2.2544100747303837
161.06896600000002,,0.009679179581195605,161.361,0.5770000219345093,-2.3442309272335313
161.534483,,0.00154782231272678,161.82,0.6050000190734863,-2.283685825314963
162.0,,0.007999850797486314,162.286,0.5799999833106995,-2.338556439610292
162.465517,,0.012804982530204253,162.75,0.5809999704360962,-2.336717644213243
162.931034,,0.011853305504220552,163.216,0.5789999961853027,-2.3413405014521835
163.396552,,0.00980183557384488,163.686,0.5789999961853027,-2.3415239496028994
163.862069,,0.010842027567834625,164.149,0.6079999804496765,-2.2784383458816913
164.327586,,0.01436750384235045,164.612,0.5730000138282776,-2.3546945355147515
164.793103,,0.017028163502750993,165.075,0.6050000190734863,-2.284889583558514
165.258621,,0.017208778687698864,165.546,0.6110000014305115,-2.2716397271412174
165.72413799999998,,0.016306701834275298,166.008,0.574999988079071,-2.349808378890966
166.189655,,0.016246392869815784,166.474,0.6019999980926514,-2.290645854560588
166.655172,,0.01705116483621402,166.937,0.5799999833106995,-2.3381711398293246
167.12069,,0.017283763514205065,167.402,0.6039999723434448,-2.285424442913034
167.58620699999997,,0.01610599101934074,167.871,0.5799999833106995,-2.337212429533727
168.051724,,0.01415530122943367,168.337,0.5789999961853027,-2.3388664566827777
168.517241,,0.012681113459717926,168.801,0.5820000171661377,-2.3317969725571657
168.98275900000002,,0.012427433093212713,169.267,0.5839999914169312,-2.3269131688319455
169.44827600000002,,0.013128825665606863,169.732,0.5809999704360962,-2.3329452029397526
169.913793,,0.013502226924051132,170.19,0.5889999866485596,-2.315049614385453
170.37931,,0.011940401719758999,170.66,0.5809999704360962,-2.3320639434614523
170.844828,,0.007865034087486055,171.123,0.5799999833106995,-2.333891712862389
171.310345,,0.0024366069997942843,171.586,0.5830000042915344,-2.327079555374732
171.775862,,0.002353780041048195,172.057,0.5929999947547913,-2.3050996019448955
172.241379,,0.005184320509317871,172.52,0.47999998927116394,-2.551183664991517
172.706897,,0.005988545349431151,172.983,0.6190000176429749,-2.248342717874795
173.172414,,0.005629752144049483,173.448,0.5879999995231628,-2.315964561640497
173.637931,,0.005320883405665794,173.912,0.6179999709129333,-2.250776526560607
174.103448,,0.005816668815931493,174.378,0.5789999961853027,-2.335997872936632
174.568966,,0.006674770893526544,174.842,0.5950000286102295,-2.3014691882739813
175.034483,,0.006643254594893244,175.308,0.5789999961853027,-2.3367237084204495
175.5,,0.005164947944316479,175.773,0.5669999718666077,-2.3633186286469448
175.96551699999998,,0.0031810604140005178,176.238,0.5989999771118164,-2.2940946433404723
176.43103399999998,,0.002060979471353397,176.705,0.5830000042915344,-2.3294721364253954
176.896552,,0.002008749291887002,177.171,0.5809999704360962,-2.3343596071224817
177.36206900000002,,0.002007473792691348,177.634,0.5879999995231628,-2.319634490573787
177.827586,,0.001303188050717464,178.097,0.578000009059906,-2.341926162964215
178.293103,,0.0004755410235847698,178.561,0.6660000085830688,-2.1506735006628053
178.758621,,0.0007050227693957303,179.03,0.5879999995231628,-2.3210243531594994
179.224138,,0.002149267589731402,179.498,0.5789999961853027,-2.3409852975998464
179.68965500000002,,0.0035887757617435925,179.96,0.6190000176429749,-2.2541199858323413
180.155172,,0.003900029697879431,180.426,0.5920000076293945,-2.3131428547978348
180.62069,,0.0033334074292545967,180.89,0.6039999723434448,-2.28711137804608
181.086207,,0.0028391864170223915,181.356,0.578000009059906,-2.343778751916535
181.551724,,0.002624759015829978,181.816,0.5849999785423279,-2.328461335558226
182.01724099999998,,0.002104163384244065,182.282,0.5889999866485596,-2.319592586005646
182.482759,,0.0010273709731118178,182.747,0.5929999947547913,-2.310641001979877
182.948276,,2.7027714707244075e-05,183.212,0.5979999899864197,-2.299434789952034
183.413793,,0.000129461181394291,183.675,0.6079999804496765,-2.277268264947269
183.87931,,0.0019815249031588603,184.145,0.5989999771118164,-2.296440043041475
184.34482799999998,,0.005210355535157578,184.609,0.5929999947547913,-2.3090330854503875
184.81034499999998,,0.008338007346828873,185.071,0.5789999961853027,-2.33902753832595
185.27586200000002,,0.009874204618429888,185.539,0.5879999995231628,-2.318900763782142
185.74137900000002,,0.009790193282683097,186.001,0.5929999947547913,-2.307491522652664
186.206897,,0.009309216819077515,186.466,0.5669999718666077,-2.3636387452709537
186.672414,,0.008935576534873198,186.93,0.5979999899864197,-2.295636130631566
187.137931,,0.007621804283415638,187.395,0.6039999723434448,-2.2821459278084357
187.60344800000001,,0.004772193323231269,187.864,0.5669999718666077,-2.362395837658496
188.06896600000002,,0.002219308846984562,188.33,0.6190000176429749,-2.2488149018857273
188.534483,,0.002378645058544809,188.794,0.5910000205039978,-2.30960275581799
189.0,,0.004298316345431201,189.26,0.5820000171661377,-2.329079475702006
189.465517,,0.003941220241106158,189.72,0.6060000061988831,-2.2767481226789217
189.931034,,0.00023104171840226752,190.186,0.6060000061988831,-2.2767920908781747
190.39655199999999,,0.0014196235427796173,190.653,0.5830000042915344,-2.327031328554417
190.862069,,0.004267786183069314,191.115,0.5950000286102295,-2.301100819844659
191.327586,,0.013036659883903961,191.584,0.6010000109672546,-2.288318827832539
191.793103,,0.014303433685034958,192.045,0.5879999995231628,-2.31699886586908
192.25862099999998,,0.00541601187540486,192.513,0.5989999771118164,-2.2934486302900527
192.72413799999998,,0.0036376301963360193,192.975,0.5820000171661377,-2.330945606724758
193.189655,,0.0033266778262572598,193.441,0.574999988079071,-2.3466883864198294
193.655172,,0.002938181360606092,193.906,0.5740000009536743,-2.349377382898663
194.12069000000002,,0.004158406983427403,194.372,0.574999988079071,-2.347712389259962
194.586207,,0.0035195332790987585,194.838,0.5889999866485596,-2.3177126765825067
195.051724,,0.012869231710368339,195.304,0.5920000076293945,-2.3116503207922143
195.517241,,0.015909664060962676,195.769,0.6060000061988831,-2.281580435987025
195.98275900000002,,0.011934602278512004,196.234,0.5699999928474426,-2.3603879040355604
196.448276,,0.003397177313599114,196.701,0.5419999957084656,-2.421701466470839
196.913793,,0.008374360844497105,197.167,0.628000020980835,-2.23457513624888
197.37931,,0.018398636968821044,197.627,0.5830000042915344,-2.3327691516884137
197.844828,,0.017151362405153713,198.09,0.6119999885559082,-2.2696552129562244
198.310345,,0.002490757174557942,198.561,0.6340000033378601,-2.221701185675881
198.775862,,0.01269907959187844,199.023,0.6100000143051147,-2.2738742867305737
199.241379,,0.012701371848130718,199.489,0.6010000109672546,-2.293281097549346
199.706897,,0.0021392030669188772,199.955,0.5789999961853027,-2.3409311199877387
200.172414,,0.013793307389129802,200.42,0.6169999837875366,-2.2577917119955213
200.63793099999998,,0.006640520760080322,200.88,0.6169999837875366,-2.2573800648030145
201.103448,,0.013137663480042234,201.346,0.5820000171661377,-2.3331725574077167
201.568966,,0.024694087775251013,201.813,0.5879999995231628,-2.319607115712904
202.034483,,0.018696656588797038,202.279,0.6240000128746033,-2.240663321972566
202.5,,0.007117307655801879,202.746,0.597000002861023,-2.2989701233998443
202.965517,,0.004894843411535472,203.212,0.5899999737739563,-2.3137156254211235
203.431034,,0.010878095550213948,203.672,0.5950000286102295,-2.3023446441850606
203.896552,,0.011718286580201017,204.141,0.6259999871253967,-2.2343701684759023
204.36206900000002,,0.0004904098285434894,204.605,0.5929999947547913,-2.3058827523038077
204.827586,,0.013391502275648122,205.067,0.5659999847412109,-2.36438972567066
205.293103,,0.014814101195117167,205.535,0.5789999961853027,-2.3358277719338703
205.758621,,0.001954782857644226,205.997,0.5889999866485596,-2.3138858168063274
206.224138,,0.010241505289039415,206.463,0.5889999866485596,-2.313818229116358
206.689655,,0.007332207150514247,206.926,0.5830000042915344,-2.326912155354961
207.155172,,0.007692698840296784,207.391,0.5770000219345093,-2.340095195237024
207.62069,,0.017607001331489184,207.857,0.5889999866485596,-2.314148308822203
208.086207,,0.010301860227634152,208.323,0.5849999785423279,-2.3231389599541474
208.551724,,0.007607613375693762,208.79,0.6069999933242798,-2.2755548461603725
209.01724099999998,,0.0190131728315301,209.256,0.5989999771118164,-2.293389196836196
209.482759,,0.01561716262094056,209.72,0.6079999804496765,-2.2742327335372847
209.948276,,0.0036773172925188644,210.186,0.5680000185966492,-2.3618631263486938
210.413793,,0.006588137486768671,210.649,0.5920000076293945,-2.310079415060174
210.87930999999998,,0.009495148400041441,211.112,0.5889999866485596,-2.317123285616424
211.344828,,0.003631810005956336,211.58,0.5960000157356262,-2.3023688067283876
211.810345,,0.008249261964682623,212.042,0.5989999771118164,-2.2963021440868463
212.27586200000002,,0.017572139118947266,212.505,0.5789999961853027,-2.34030342849326
212.741379,,0.014409422475533853,212.975,0.527999997138977,-2.451790867457385
213.206897,,0.00125628479884182,213.441,0.6060000061988831,-2.2821701045137655
213.672414,,0.01455592945673658,213.905,0.5839999914169312,-2.330340931067886
214.137931,,0.009543628312612797,214.37,0.6209999918937683,-2.249889514936091
214.60344800000001,,0.010146095063932688,214.834,0.5830000042915344,-2.3327499132935237
215.068966,,0.023327891141955985,215.3,0.6019999980926514,-2.2913388410776037
215.534483,,0.017389369752906704,215.764,0.6060000061988831,-2.2825195677354246
216.0,,0.0025898106452758893,216.23,0.5849999785423279,-2.328081928310125
216.465517,,0.0042130780337343915,216.694,0.5820000171661377,-2.334350468067026
216.93103399999998,,0.001241153127968267,217.16,0.5789999961853027,-2.340549970504349
217.39655199999999,,0.0009155972332684397,217.623,0.6119999885559082,-2.2682587741631886
217.862069,,0.011035282901004919,218.086,0.6050000190734863,-2.2830652057705954
218.327586,,0.023011677248363446,218.557,0.597000002861023,-2.3000154684329184
218.793103,,0.022300766770652132,219.019,0.5879999995231628,-2.319124633208074
219.25862099999998,,0.008158264904073198,219.485,0.5830000042915344,-2.3295152260215373
219.724138,,0.004454676692770204,219.949,0.5910000205039978,-2.3115948675544264
220.18965500000002,,0.004507909950783759,220.415,0.5490000247955322,-2.402633961130106
220.65517200000002,,0.0011445957373416712,220.88,0.5879999995231628,-2.31724417865498
221.12069,,0.001966974961471404,221.346,0.5799999833106995,-2.3343046678938326
221.586207,,0.016807441407637423,221.805,0.5770000219345093,-2.340536158980464
222.051724,,0.0320695367486726,222.271,0.5979999899864197,-2.294553431431485
222.517241,,0.03722466696114493,222.735,0.5669999718666077,-2.3619402201444837
222.98275900000002,,0.03369292068469958,223.201,0.6209999918937683,-2.2442255779903
223.448276,,0.028686722895531837,223.672,0.5809999704360962,-2.33138895790151
223.913793,,0.024557023727682287,224.134,0.5870000123977661,-2.318418826833821
224.37931,,0.01958802966886617,224.602,0.6039999723434448,-2.2815651150349106
224.844828,,0.014169726494638425,225.064,0.5809999704360962,-2.331932603892658
225.31034499999998,,0.009259073390664466,225.527,0.5960000157356262,-2.2995789067441668
225.775862,,0.000912474345482245,225.99,0.6209999918937683,-2.245495865884489
226.241379,,0.01684107841726221,226.455,0.5799999833106995,-2.3352485353650607
226.706897,,0.04094201359826571,226.922,0.5899999737739563,-2.3139229274412663
227.172414,,0.05503760709078066,227.387,0.5849999785423279,-2.3252964598093975
227.63793099999998,,0.04418958715903124,227.853,0.6029999852180481,-2.286565712343619
228.103448,,0.015245343161231514,228.319,0.5899999737739563,-2.315362908320219
228.56896600000002,,0.006939869135528752,228.787,0.5789999961853027,-2.339778673173681
229.03448300000002,,0.007719608214480938,229.245,0.6140000224113464,-2.263939069788062
229.5,,0.0021965985674583547,229.71,0.5789999961853027,-2.3405548030986236
229.965517,,0.004278544017503037,230.175,0.5929999947547913,-2.31035610127481
230.431034,,0.0036292448940614735,230.646,0.593999981880188,-2.3084105108067696
230.896552,,0.006804625257802884,231.108,0.5789999961853027,-2.3412470723878904
231.362069,,0.006020558873080918,231.57,0.5899999737739563,-2.317358480426675
231.827586,,0.027718650200059036,232.04,0.6019999980926514,-2.2912083177981657
232.293103,,0.04163833907772016,232.502,0.6819999814033508,-2.1168255004354264
232.758621,,0.04291790517861781,232.965,0.6029999852180481,-2.2887644996521255
233.224138,,0.04311822920977655,233.431,0.6140000224113464,-2.2645484433431893
233.689655,,0.05184497515773327,233.897,0.6100000143051147,-2.2729447279811446
234.155172,,0.06223852691522209,234.363,0.5979999899864197,-2.298712862861172
234.62069,,0.06023057712658497,234.828,0.5960000157356262,-2.302649236823949
235.086207,,0.04304762127571225,235.294,0.5879999995231628,-2.3196258607543245
235.55172399999998,,0.021803478979916475,235.761,0.6119999885559082,-2.266867711985251
236.01724099999998,,0.007258255259888076,236.227,0.5540000200271606,-2.392755391756077
236.482759,,0.0006712096818707818,236.687,0.5899999737739563,-2.31386228756711
236.94827600000002,,0.00023702802782956672,237.157,0.625,-2.237172699883568
237.413793,,0.006465561155506867,237.62,0.5979999899864197,-2.2955960165984632
237.87931,,0.014712570684957467,238.082,0.6019999980926514,-2.2865298998602412
238.344828,,0.012208659332199962,238.55,0.597000002861023,-2.297131184188758
238.810345,,0.006841122022342061,239.013,0.6299999952316284,-2.2250114009537243
239.27586200000002,,0.028747421789743783,239.478,0.5929999947547913,-2.305470647867878
239.741379,,0.03306108331464068,239.941,0.6019999980926514,-2.28579047011602
240.206897,,0.017255554989578085,240.406,0.5720000267028809,-2.351158799871377
240.672414,,0.0021746727377261626,240.872,0.5879999995231628,-2.316390685377788
241.137931,,0.009045703039253113,241.337,0.597000002861023,-2.29695105965854
241.603448,,0.03380290370353296,241.801,0.6269999742507935,-2.2318312325855905
242.068966,,0.05194962623514419,242.267,0.5950000286102295,-2.3018505746817897
242.534483,,0.048990096569651295,242.731,0.6190000176429749,-2.2499195692454066
243.0,,0.035555327055359735,243.197,0.5289999842643738,-2.446398897464165
243.465517,,0.029440657305052177,243.664,0.5929999947547913,-2.307399852908992
243.93103399999998,,0.03269200352598121,244.127,0.5929999947547913,-2.307854062286281
244.39655199999999,,0.03276577496534364,244.594,0.578000009059906,-2.3409928438787064
244.862069,,0.022371084789512156,245.057,0.6010000109672546,-2.2913339717361794
245.327586,,0.011760168872906112,245.52,0.6100000143051147,-2.2721527407108852
245.793103,,0.017424396486263566,245.99,0.5830000042915344,-2.331366292564867
246.258621,,0.04047544629953923,246.456,0.6169999837875366,-2.2576341207587016
246.724138,,0.06372294184615403,246.915,0.5929999947547913,-2.3102048698525253
247.18965500000002,,0.07240997912820689,247.38,0.5989999771118164,-2.2973493271413625
247.655172,,0.0704237826835937,247.845,0.6060000061988831,-2.2822419732068626
248.12069,,0.07141244990283165,248.311,0.5789999961853027,-2.341131831477563
248.586207,,0.07915165258874425,248.776,0.5860000252723694,-2.325869674215093
249.051724,,0.08294556669901997,249.242,0.6079999804496765,-2.2778506162164516
249.517241,,0.0712308979233554,249.709,0.5960000157356262,-2.303830442287945
249.982759,,0.043464065107262105,250.175,0.5989999771118164,-2.297060967513371
250.44827600000002,,0.006940056813300082,250.635,0.6290000081062317,-2.2314050575089546
250.913793,,0.031107586255418807,251.105,0.5879999995231628,-2.320379480161784
251.37931000000003,,0.06343107307513839,251.568,0.5960000157356262,-2.3025579529476383
251.844828,,0.08143760214308622,252.03,0.5910000205039978,-2.3130295519110984
252.31034499999998,,0.08225983951563849,252.501,0.6320000290870667,-2.2232662236548877
252.77586200000002,,0.07562750355363967,252.964,0.5879999995231628,-2.3186839767275833
253.241379,,0.07683352130049463,253.429,0.5929999947547913,-2.3073580355287793
253.706897,,0.08948700109785054,253.894,0.5879999995231628,-2.3178426721378793
254.172414,,0.09807688029588017,254.359,0.5519999861717224,-2.3959027350290243
254.63793099999998,,0.08445366150700845,254.824,0.5989999771118164,-2.2931838724529174
255.10344800000001,,0.052352580583845676,255.289,0.5540000200271606,-2.3909588979743983
255.56896600000002,,0.025897320524788738,255.754,0.5929999947547913,-2.305793550827286
256.03448299999997,,0.020322397572767038,256.22,0.6039999723434448,-2.2817011384458246
256.5,,0.024876330638158545,256.683,0.609000027179718,-2.2707533476556603
256.965517,,0.02025179319545025,257.146,0.6150000095367432,-2.2577006029783595
257.431034,,0.004102494432066605,257.616,0.5370000004768372,-2.4277279921754347
257.896552,,0.008141054710759836,258.079,0.625,-2.2361710765329352
258.362069,,0.0050700369952457365,258.546,0.5929999947547913,-2.3061168676446298
258.827586,,0.004737108677660839,259.009,0.6079999804496765,-2.2737228286078843
259.29310300000003,,0.0031968913817703474,259.475,0.5849999785423279,-2.3241655225549245
259.758621,,0.01314744807131197,259.937,0.6259999871253967,-2.2352121158627534
260.224138,,0.028088105087122485,260.403,0.5889999866485596,-2.316218952685242
260.689655,,0.02707689741868597,260.868,0.5929999947547913,-2.3079151247801035
261.155172,,0.015160626243310119,261.333,0.6019999980926514,-2.2887199228267807
261.62068999999997,,0.008614126280019755,261.798,0.5979999899864197,-2.297836251680338
262.086207,,0.014252130898609524,262.264,0.5799999833106995,-2.337431008727923
262.551724,,0.023388653783428845,262.732,0.574999988079071,-2.3486702014126943
263.017241,,0.024857749714211938,263.19,0.6060000061988831,-2.2814346009214606
263.482759,,0.017326395884548942,263.658,0.5889999866485596,-2.3187212218705686
263.94827599999996,,0.00642699336729432,264.12,0.5879999995231628,-2.3210892035008546
264.413793,,0.0037396868951905643,264.591,0.5839999914169312,-2.3299280543998995
264.87931,,0.010922269978337548,265.053,0.5820000171661377,-2.3343412261508822
265.34482799999995,,0.011785596110079573,265.516,0.593999981880188,-2.3081837346604126
265.810345,,0.00578680987157886,265.986,0.6060000061988831,-2.2819565427857675
266.27586199999996,,0.0002028879394411936,266.452,0.5830000042915344,-2.331915188894098
266.741379,,0.004961245932728775,266.916,0.6169999837875366,-2.2576288144181684
267.206897,,0.01982931193681107,267.381,0.6420000195503235,-2.2028935480981566
267.672414,,0.02994827338355859,267.846,0.5839999914169312,-2.3289376831043573
268.137931,,0.020703825840269318,268.305,0.5870000123977661,-2.322047084711746
268.603448,,0.0023895783307504147,268.771,0.6320000290870667,-2.223627372496287
269.06896600000005,,0.017621476875624823,269.237,0.5979999899864197,-2.2973058786370366
269.53448299999997,,0.013746035110313954,269.702,0.5849999785423279,-2.3252303600090922
270.0,,0.0027168776273301543,270.168,0.6079999804496765,-2.274734003044803
270.465517,,0.0014854623592454944,270.631,0.6209999918937683,-2.2460456241322055
270.931034,,0.009917572079055694,271.101,0.5669999718666077,-2.363359503259778
271.396552,,0.013045358413843466,271.564,0.5899999737739563,-2.312961415762096
271.86206899999996,,0.0019274452492622802,272.027,0.597000002861023,-2.2974743519443335
272.327586,,0.01347082210901091,272.498,0.5830000042915344,-2.32779816042978
272.793103,,0.01557758374372028,272.96,0.550000011920929,-2.399581520140891
273.258621,,0.0012504672650205395,273.426,0.6230000257492065,-2.240496379890684
273.724138,,0.014454150036104051,273.891,0.6000000238418579,-2.290629072362126
274.18965499999996,,0.017830500021795287,274.356,0.5709999799728394,-2.353900015099579
274.655172,,0.012305545977950645,274.816,0.5849999785423279,-2.323553204673816
275.12069,,0.010901936290695252,275.281,0.6269999742507935,-2.2322624859974782
275.586207,,0.01845096370993567,275.746,0.5929999947547913,-2.3065991486706263
276.051724,,0.026967530610456054,276.211,0.6240000128746033,-2.2393651898713767
276.517241,,0.027387910131025907,276.68,0.6209999918937683,-2.246236898452014
276.98275900000004,,0.01984167934955274,277.142,0.574999988079071,-2.34681194458049
277.448276,,0.009849313046525815,277.605,0.5789999961853027,-2.338466673211776
277.913793,,0.0002881923665243568,278.075,0.5809999704360962,-2.3344803230425755
278.37931,,0.00733610913022163,278.538,0.6240000128746033,-2.24115850628934
278.844828,,0.00843170102008219,279.001,0.550000011920929,-2.4027168841085436
279.31034500000004,,0.00036307521423349214,279.467,0.5960000157356262,-2.3028064241970974
279.77586199999996,,0.008399817801043246,279.93,0.6150000095367432,-2.2616787284112743
280.241379,,0.0021336364553007216,280.396,0.5839999914169312,-2.329433862147006
280.706897,,0.02258122648033182,280.861,0.6019999980926514,-2.2903796421646523
281.172414,,0.044359597849405005,281.326,0.574999988079071,-2.3493050440945096
281.637931,,0.03636934786877329,281.791,0.5830000042915344,-2.3319158478181823
282.10344799999996,,0.0014661963704817502,282.257,0.625,-2.240389398707211
282.568966,,0.0265441541161652,282.723,0.5920000076293945,-2.312198395708543
283.034483,,0.02367371216080842,283.189,0.6060000061988831,-2.28155091861126
283.5,,0.002985362935541797,283.65,0.6039999723434448,-2.2857069400007424
283.965517,,0.007330201263077404,284.12,0.6019999980926514,-2.289814276173043
284.431034,,2.066176620555023e-06,284.583,0.5839999914169312,-2.328739977791798
284.89655200000004,,0.00794169131545868,285.045,0.5989999771118164,-2.295739799352727
285.362069,,0.0018691410689406118,285.513,0.6079999804496765,-2.2757906672825303
285.827586,,0.0109759012953915,285.975,0.593999981880188,-2.3059399292026406
286.293103,,0.012559170563538504,286.441,0.5870000123977661,-2.3208394083704396
286.758621,,0.0007232489296694586,286.905,0.6259999871253967,-2.2355325426101955
287.22413800000004,,0.01336618765684898,287.37,0.5830000042915344,-2.3288960535661345
287.689655,,0.01210579760883239,287.842,0.5929999947547913,-2.30682278343886
288.155172,,0.0024323445771790592,288.301,0.6079999804496765,-2.273896605111361
288.62069,,0.0008477117886126075,288.768,0.5849999785423279,-2.3238063817901304
289.086207,,0.006788453625497975,289.234,0.5830000042915344,-2.328018186642179
289.55172400000004,,0.015666518278162015,289.699,0.5920000076293945,-2.3083230431116912
290.01724099999996,,0.015646244473745373,290.165,0.6259999871253967,-2.2342211752563084
290.482759,,0.007271892328592306,290.627,0.5830000042915344,-2.327934437660562
290.948276,,0.002544660241870351,291.09,0.5680000185966492,-2.360704596344776
291.413793,,0.009568826519169822,291.561,0.5839999914169312,-2.3259936271807464
291.87931,,0.012347703309777153,292.023,0.6039999723434448,-2.282619264167238
292.344828,,0.008837102214570063,292.49,0.6060000061988831,-2.2785040497187397
292.81034500000004,,0.00014703089434046945,292.955,0.5889999866485596,-2.315818889940573
293.275862,,0.006338346018750521,293.42,0.5720000267028809,-2.3531612510572586
293.74137900000005,,0.00030410778282672556,293.886,0.6060000061988831,-2.279410940146805
294.206897,,0.018519975485425815,294.352,0.5120000243186951,-2.4845365862276845
294.672414,,0.03184356326209899,294.816,0.5849999785423279,-2.325827987865377
295.13793100000004,,0.024696136185157543,295.282,0.5950000286102295,-2.304362549005339
295.603448,,0.0028849878835291395,295.746,0.5799999833106995,-2.337340533793793
296.068966,,0.011079890137996562,296.205,0.593999981880188,-2.3071054560111968
296.534483,,0.005768816745630715,296.675,0.5929999947547913,-2.3095095572846955
297.0,,0.006306697118493358,297.138,0.5820000171661377,-2.3336527521231676
297.46551700000003,,0.007680352265138964,297.601,0.6179999709129333,-2.2553466732761605
297.931034,,0.001338430010651048,298.071,0.5929999947547913,-2.3098808901057835
298.396552,,0.004992023001925325,298.535,0.5929999947547913,-2.3098903154044343
298.862069,,0.006290083429822227,298.997,0.5929999947547913,-2.309841757518564
299.327586,,0.021968772164157786,299.463,0.6060000061988831,-2.28141450658476
299.79310300000003,,0.02263410420665806,299.926,0.5809999704360962,-2.3357235525831572
300.258621,,0.0041415968128746565,300.391,0.6060000061988831,-2.2810531381474957
300.724138,,0.01580097806757344,300.857,0.5820000171661377,-2.3330965827097123
301.189655,,0.01786548294898404,301.322,0.6230000257492065,-2.2434955586412615
301.65517200000005,,0.0028474165961685947,301.787,0.6019999980926514,-2.2889469444873045
302.12069,,0.010634349591877576,302.252,0.621999979019165,-2.2450591778530034
302.586207,,0.008018972091218369,302.717,0.5929999947547913,-2.307921005614697
303.05172400000004,,0.00585362222629491,303.183,0.5860000252723694,-2.3228594861130376
303.517241,,0.015242354533509105,303.646,0.640999972820282,-2.202738615028447
303.982759,,0.012788568084524266,304.116,0.5929999947547913,-2.3070435241526606
304.448276,,0.003983042436597905,304.579,0.6290000081062317,-2.2283756214795183
304.913793,,0.003674480909707114,305.042,0.550000011920929,-2.400294564550474
305.37931000000003,,0.006898042029002933,305.505,0.5849999785423279,-2.323897386321038
305.844828,,0.004162593474756628,305.975,0.5989999771118164,-2.293305824355761
306.310345,,0.0035660226094438325,306.44,0.593999981880188,-2.304164073463231
306.775862,,0.008953835533096473,306.904,0.5910000205039978,-2.3107211203574334
307.241379,,0.0026616540552423817,307.37,0.5920000076293945,-2.3086189109347863
307.70689699999997,,0.014013827656573403,307.835,0.6000000238418579,-2.291318273655937
308.172414,,0.024608055270316655,308.301,0.6069999933242798,-2.276243527741622
308.637931,,0.013439637304275253,308.76,0.6029999852180481,-2.2851746003658926
309.103448,,0.013400379657814033,309.226,0.6370000243186951,-2.211349672181283
309.568966,,0.03254373293563556,309.699,0.6100000143051147,-2.27044622586889
310.034483,,0.031599176185940145,310.157,0.593999981880188,-2.305593160463306
310.5,,0.022793006303484773,310.627,0.4909999966621399,-2.5302915957573298
310.96551700000003,,0.02436868648177233,311.09,0.5889999866485596,-2.3170833589722832
311.431034,,0.03715301730897714,311.553,0.5479999780654907,-2.406698386886242
311.896552,,0.04541613651259736,312.016,0.6119999885559082,-2.2675352191033884
312.362069,,0.03770151385956769,312.481,0.6039999723434448,-2.28520454372033
312.827586,,0.021382428672527185,312.952,0.6159999966621399,-2.2592615535906737
313.29310300000003,,0.012957040855282903,313.41,0.640999972820282,-2.20494977346937
313.758621,,0.01597251337505004,313.878,0.6159999966621399,-2.2595183748194656
314.224138,,0.016568716909780637,314.344,0.6069999933242798,-2.2791742831843815
314.689655,,0.0031017085775167314,314.808,0.5910000205039978,-2.314026243691099
315.155172,,0.01806663249734659,315.274,0.5770000219345093,-2.3444682182186543
315.62068999999997,,0.03136603797304335,315.739,0.5809999704360962,-2.3356450023057054
316.086207,,0.031212433879773623,316.205,0.6299999952316284,-2.2287359471250334
316.551724,,0.026380587063585936,316.668,0.593999981880188,-2.306969929921063
317.017241,,0.02687174038410553,317.13,0.5960000157356262,-2.302380137981385
317.482759,,0.033059384360610365,317.598,0.6000000238418579,-2.2934065856932113
317.94827599999996,,0.040006692765935145,318.06,0.5720000267028809,-2.354132420310839
318.413793,,0.04571659580937267,318.531,0.6119999885559082,-2.266702307842886
318.87931000000003,,0.0493896202897054,318.993,0.6110000014305115,-2.2685973346215094
319.344828,,0.04671621923381265,319.459,0.5929999947547913,-2.307539098122975
319.810345,,0.03481914708363044,319.923,0.6129999756813049,-2.2637112308698524
320.275862,,0.020729280182733623,320.389,0.5490000247955322,-2.402917911461379
320.741379,,0.01780512554578637,320.853,0.5929999947547913,-2.306867368481539
321.20689699999997,,0.02962898559989585,321.319,0.6079999804496765,-2.2740396739514
321.672414,,0.040778678585079386,321.786,0.5849999785423279,-2.324046331799902
322.137931,,0.031866931416887186,322.245,0.5929999947547913,-2.306564024492702
322.603448,,0.0047959325033247215,322.717,0.6050000190734863,-2.280417614993486
323.068966,,0.01754603901708394,323.175,0.6019999980926514,-2.2870007304335935
323.53448299999997,,0.020524728289039357,323.646,0.6060000061988831,-2.2783808189891523
324.0,,0.015149460357555947,324.108,0.5879999995231628,-2.3177355752362034
324.465517,,0.020244536995409658,324.576,0.6039999723434448,-2.2830560391777324
324.931034,,0.036723220536146226,325.038,0.5709999799728394,-2.355164127744941
325.396552,,0.047874622616695645,325.506,0.6069999933242798,-2.276972252228103
325.86206899999996,,0.04262027384919298,325.968,0.6320000290870667,-2.22276295129619
326.327586,,0.03129227722970441,326.433,0.6399999856948853,-2.2055978995499594
326.793103,,0.03319023278204784,326.898,0.5960000157356262,-2.30172073380962
327.258621,,0.05094939513840009,327.363,0.6230000257492065,-2.243150147682892
327.724138,,0.06627589087984359,327.828,0.5960000157356262,-2.3022093615448567
328.189655,,0.0632130181410206,328.294,0.5920000076293945,-2.3111353020769267
328.655172,,0.04650245412172054,328.761,0.5929999947547913,-2.309137540400765
329.12068999999997,,0.03187302859638548,329.227,0.5929999947547913,-2.309282232861579
329.586207,,0.02533435874238495,329.694,0.5979999899864197,-2.298492877660059
330.051724,,0.019804166534450177,330.152,0.6019999980926514,-2.2898378914725623
330.517241,,0.009049848781193292,330.62,0.6060000061988831,-2.2811366237340667
330.982759,,0.005133706329200845,331.082,0.5479999780654907,-2.4074660863742428
331.44827599999996,,0.021452131241726378,331.546,0.6190000176429749,-2.252706116436765
331.913793,,0.04294831257190797,332.016,0.5920000076293945,-2.3114119716544836
332.37931,,0.06493631440409385,332.481,0.6320000290870667,-2.224109332510039
332.844828,,0.07060396798214591,332.944,0.5839999914169312,-2.328494262849061
333.310345,,0.051032198553813454,333.41,0.6060000061988831,-2.2803470121161205
333.77586199999996,,0.022873979943310672,333.875,0.6079999804496765,-2.27575354549291
334.241379,,0.013668258144250125,334.341,0.5960000157356262,-2.301649389485545
334.706897,,0.029811558442449534,334.805,0.6000000238418579,-2.2926838627307973
335.17241399999995,,0.046906073750849236,335.271,0.5950000286102295,-2.3033316494501244
335.637931,,0.037112880293827685,335.731,0.6039999723434448,-2.283492008355745
336.103448,,0.003481196003486401,336.197,0.6399999856948853,-2.204848942973208
336.56896600000005,,0.022778516426658554,336.664,0.6029999852180481,-2.285273706337545
337.034483,,0.02078124745525582,337.127,0.6290000081062317,-2.228476260820921
337.5,,0.0031599416112581898,337.59,0.6039999723434448,-2.2828280344080913
337.965517,,0.004426925097875667,338.06,0.5839999914169312,-2.326329048800803
338.431034,,0.003852401276669045,338.52,0.6019999980926514,-2.287087288018373
338.89655200000004,,0.00989958978248419,338.99,0.5759999752044678,-2.3437530473127284
339.36206899999996,,0.0025510187748041934,339.456,0.5860000252723694,-2.3220338553735567
339.827586,,0.024859249431304364,339.921,0.6290000081062317,-2.2284629282298156
340.293103,,0.03206206307372398,340.38,0.628000020980835,-2.2307904587953344
340.758621,,0.01409845436195307,340.846,0.6700000166893005,-2.139467473745836
341.224138,,0.01022954866657854,341.311,0.6050000190734863,-2.2812849604965035
341.68965499999996,,0.014914650052794161,341.776,0.5879999995231628,-2.3185475503519104
342.155172,,0.003680598606800573,342.242,0.6269999742507935,-2.2338197310677406
342.62069,,0.023865769362267128,342.709,0.6140000224113464,-2.2623866795780048
343.086207,,0.02354653647126592,343.175,0.6029999852180481,-2.286593612781446
343.551724,,0.0038146610052524586,343.635,0.6000000238418579,-2.293361064813673
344.01724099999996,,0.015805754536557755,344.106,0.5879999995231628,-2.3197193083879446
344.48275900000004,,0.02122827298644693,344.568,0.6050000190734863,-2.282872554778123
344.948276,,0.01380691342540538,345.03,0.5770000219345093,-2.3440347762047953
345.413793,,0.0006962443630575406,345.498,0.5879999995231628,-2.320194619833445
345.87931,,0.011119795298904684,345.96,0.6000000238418579,-2.2941362338943696
346.344828,,0.012661087584986682,346.426,0.6190000176429749,-2.2527838842025982
346.81034500000004,,0.0010390316127436659,346.89,0.6359999775886536,-2.2157425908625332
347.275862,,0.01997305718465291,347.356,0.5929999947547913,-2.309373596788073
347.741379,,0.024248903335702586,347.82,0.6179999709129333,-2.2548123763620107
348.206897,,0.006694515801651742,348.286,0.6119999885559082,-2.267748021747179
348.672414,,0.013640613624585067,348.75,0.6100000143051147,-2.2719320724226315
349.13793100000004,,0.01014873974257682,349.216,0.5830000042915344,-2.3305517870817964
349.60344799999996,,0.017952204688245873,349.686,0.5910000205039978,-2.3128956414908286
350.068966,,0.042884688225312675,350.149,0.593999981880188,-2.3061173537441264
350.534483,,0.04334958925676295,350.616,0.5929999947547913,-2.3080457252158526
351.0,,0.02882222537519762,351.079,0.5640000104904175,-2.3709771489569036
351.465517,,0.021783171454837928,351.542,0.5849999785423279,-2.3249859467640617
351.93103399999995,,0.026963209319866694,352.005,0.6119999885559082,-2.2659395400743776
352.396552,,0.028040541740351463,352.47,0.6060000061988831,-2.2788112789974853
352.862069,,0.012423964794737232,352.94,0.597000002861023,-2.298248168224708
353.32758600000005,,0.00813937509884963,353.406,0.40400001406669617,-2.7185953035861146
353.793103,,0.008577408574984118,353.871,0.6480000019073486,-2.1869186748044576
354.258621,,0.017940350331209203,354.33,0.6299999952316284,-2.2260914834093444
354.72413800000004,,0.048988978725905664,354.801,0.6060000061988831,-2.278377259770989
355.189655,,0.05845741039652146,355.26,0.6140000224113464,-2.260988391360166
355.655172,,0.04558297422197542,355.725,0.6169999837875366,-2.2545337712182807
356.12069,,0.032289108201713726,356.19,0.6019999980926514,-2.2873330065849813
356.586207,,0.03570961883919166,356.66,0.6190000176429749,-2.250450128190864
357.05172400000004,,0.05012070344452279,357.123,0.6029999852180481,-2.285492535473652
357.517241,,0.057258524695405384,357.59,0.6129999756813049,-2.263914068701474
357.982759,,0.04767218762744858,358.053,0.5929999947547913,-2.307712846955566
358.448276,,0.025646164547213465,358.516,0.6190000176429749,-2.2513045795666646
358.913793,,0.00011210129106521765,358.986,0.5820000171661377,-2.33215477232438
359.37931000000003,,0.020067686809085866,359.452,0.6169999837875366,-2.2561385176312716
359.844828,,0.023630201309672253,359.916,0.6010000109672546,-2.291221737837084
360.310345,,0.008884244900997748,360.382,0.6259999871253967,-2.2369613728050077
360.775862,,0.007141262413702428,360.846,0.578000009059906,-2.3417170490267676
361.241379,,0.0015816204596823026,361.311,0.6449999809265137,-2.1958973562952586
361.706897,,0.04344682393359074,361.775,0.5870000123977661,-2.3223726846589603
362.172414,,0.09492093461941879,362.24,0.5960000157356262,-2.3028397994614918
362.63793100000004,,0.12099005421833026,362.705,0.597000002861023,-2.300695787735752
363.103448,,0.11241567064124845,363.171,0.5929999947547913,-2.309403456042793
363.568966,,0.09302215273556488,363.631,0.5789999961853027,-2.339856640464027
364.034483,,0.0862133515398667,364.101,0.5899999737739563,-2.3158045387147066
364.5,,0.08762339543976998,364.561,0.5960000157356262,-2.3026088113068726
364.96551700000003,,0.07894771043568186,365.031,0.5920000076293945,-2.3111663520913077
365.431034,,0.05783702439520952,365.49,0.6010000109672546,-2.2913727407005586
365.896552,,0.04217836259522605,365.955,0.593999981880188,-2.3064144337112986
366.362069,,0.04531083217598268,366.42,0.5929999947547913,-2.30836748384047
366.827586,,0.055283052716721806,366.887,0.6050000190734863,-2.2819882638270146
367.29310300000003,,0.047115776174045866,367.353,0.5920000076293945,-2.3100725808394893
367.758621,,0.014951620566316118,367.82,0.5860000252723694,-2.322911213660533
368.224138,,0.01874928060190345,368.286,0.5960000157356262,-2.3009038994971496
368.689655,,0.029938278893025378,368.746,0.5920000076293945,-2.3094166623035
369.155172,,0.019614757362891873,369.212,0.5770000219345093,-2.341919966593614
369.62068999999997,,0.008747686516324564,369.68,0.5929999947547913,-2.3069164486947695
370.086207,,0.013295542909765905,370.142,0.6129999756813049,-2.2632332961900024
370.55172400000004,,0.030586452940951425,370.605,0.5929999947547913,-2.306733727099163
371.017241,,0.048040658524853605,371.075,0.6299999952316284,-2.2260908295573545
371.482759,,0.05643146985168403,371.538,0.5989999771118164,-2.2936364055527316
371.948276,,0.050797378453410584,372.001,0.597000002861023,-2.298041732234512
372.413793,,0.02951860449415195,372.466,0.6179999709129333,-2.2523778522231512
372.87931000000003,,0.0033966155846386157,372.93,0.6179999709129333,-2.252501855489617
373.344828,,0.0043174640251655225,373.396,0.6299999952316284,-2.226514101436442
373.810345,,0.01782787692881373,373.86,0.6330000162124634,-2.220161224941878
374.275862,,0.049862993206037425,374.326,0.5960000157356262,-2.300976414542637
374.741379,,0.05808502603553599,374.79,0.6269999742507935,-2.233660366724307
375.20689699999997,,0.03287534578337285,375.255,0.6240000128746033,-2.240428140389819
375.672414,,0.0012435051118231556,375.72,0.5960000157356262,-2.301665410405515
376.137931,,0.0031841719210437625,376.186,0.6069999933242798,-2.27793260079691
376.603448,,0.020429026588325593,376.656,0.5540000200271606,-2.3936246644202455
377.068966,,0.04073624469327308,377.119,0.6209999918937683,-2.247864208205159
377.53448299999997,,0.034942218421630845,377.587,0.5929999947547913,-2.3090533031025204
378.0,,0.014757445119101117,378.049,0.6190000176429749,-2.2525668012667857
378.465517,,0.00594061002203907,378.513,0.5789999961853027,-2.3398381173548364
378.931034,,0.013989268421726563,378.975,0.578000009059906,-2.3421059512688682
379.396552,,0.019604837323381117,379.441,0.6320000290870667,-2.224508778420504
379.862069,,0.005537064571054278,379.906,0.6399999856948853,-2.207086333256247
380.327586,,0.018993483810158734,380.371,0.5860000252723694,-2.324695859738388
380.79310300000003,,0.027049314714053974,380.838,0.6299999952316284,-2.228755695836027
381.258621,,0.00728454444857073,381.304,0.6140000224113464,-2.2634939346882703
381.724138,,0.0203732043093418,381.769,0.5839999914169312,-2.3286966750114506
382.189655,,0.02716677270478038,382.234,0.5929999947547913,-2.308901067915426
382.655172,,0.007461886219155551,382.701,0.6169999837875366,-2.2564000212992164
383.12068999999997,,0.01656432274482934,383.16,0.6330000162124634,-2.221307212348331
383.586207,,0.020034808943265828,383.627,0.6430000066757202,-2.199271219207142
384.051724,,0.0012730007253012733,384.09,0.5929999947547913,-2.3079467579496966
384.517241,,0.020085325272605155,384.56,0.5929999947547913,-2.3076918629913346
384.982759,,0.02660125884427751,385.023,0.5960000157356262,-2.3009116905662323
385.44827599999996,,0.016292274559442564,385.489,0.5889999866485596,-2.3159363302015885
385.913793,,0.00308739847506304,385.954,0.640999972820282,-2.202445014463532
386.37931,,0.019848223648746825,386.42,0.5960000157356262,-2.3003121960502497
386.84482799999995,,0.02083462485216827,386.887,0.6050000190734863,-2.2805679839035604
387.310345,,0.0023222300174114458,387.345,0.6119999885559082,-2.2652214488534512
387.775862,,0.019723786472055443,387.81,0.6110000014305115,-2.267347059377667
388.241379,,0.020686827780610255,388.276,0.5789999961853027,-2.3370562573567524
388.70689699999997,,0.0055296646695442726,388.742,0.6050000190734863,-2.2804503837640033
389.172414,,0.03449630980909725,389.207,0.5669999718666077,-2.363324248753048
389.637931,,0.035292304776708874,389.675,0.6039999723434448,-2.282843205104105
390.103448,,0.0074852038325419895,390.138,0.6039999723434448,-2.2830116212117133
390.56896600000005,,0.017654319388391404,390.601,0.5950000286102295,-2.3028216533434755
391.03448299999997,,0.016800331710534896,391.071,0.593999981880188,-2.305230888023226
391.5,,0.0011800594842861654,391.535,0.6320000290870667,-2.22269329131069
391.965517,,0.0038066696402002964,391.997,0.5960000157356262,-2.3013882055253947
392.431034,,0.006438472310201315,392.463,0.5929999947547913,-2.3081927259322064
392.896552,,0.011700758284038238,392.926,0.5929999947547913,-2.308458860713866
393.36206899999996,,0.0045987600062639905,393.392,0.6039999723434448,-2.284749194396179
393.827586,,0.03096386906955969,393.857,0.6179999709129333,-2.254484270352043
394.293103,,0.039071818419123994,394.323,0.6119999885559082,-2.2677650915640317
394.75862099999995,,0.018810142728543637,394.79,0.6159999966621399,-2.259225643668587
395.224138,,0.008397049511363237,395.256,0.6169999837875366,-2.257182886831194
395.68965499999996,,0.015799758319012133,395.721,0.574999988079071,-2.3487791411287153
396.155172,,0.0018008003458195954,396.186,0.6190000176429749,-2.252966429163592
396.62069,,0.012002343981398525,396.649,0.578000009059906,-2.342292230485086
397.086207,,0.007812434681727227,397.112,0.5929999947547913,-2.3095671836502882
397.551724,,0.010333808881247561,397.58,0.6029999852180481,-2.2876901022446483
398.017241,,0.025598621786544914,398.042,0.609000027179718,-2.2744840436911264
398.48275900000004,,0.027936891308970223,398.505,0.6140000224113464,-2.2634166766662314
398.94827599999996,,0.018649980955904706,398.975,0.6050000190734863,-2.2828153620874487
399.413793,,0.0027066301979750884,399.441,0.6119999885559082,-2.267327059520018
399.87931,,0.012242203605755217,399.906,0.6140000224113464,-2.262710247734223
400.344828,,0.013937603467555144,400.372,0.6209999918937683,-2.24718625814448
400.810345,,0.003755330514143624,400.831,0.628000020980835,-2.2316560026713295
401.27586199999996,,0.02695913922326274,401.296,0.5929999947547913,-2.3076318817946424
401.741379,,0.028882615603883905,401.761,0.5979999899864197,-2.296474168210248
402.206897,,0.0015184015050170693,402.226,0.5989999771118164,-2.2940521784909205
402.672414,,0.04035006626936468,402.691,0.6179999709129333,-2.2524427091768633
403.137931,,0.04978283207262587,403.157,0.6029999852180481,-2.2849417910365637
403.60344799999996,,0.02266687462949153,403.62,0.5860000252723694,-2.3218388743996585
404.068966,,0.00780373836399231,404.09,0.6190000176429749,-2.249849127444677
404.534483,,0.010821651669924881,404.553,0.5960000157356262,-2.2999118326450922
405.0,,0.005840394030930452,405.015,0.6019999980926514,-2.2868435710796864
405.465517,,0.013820197544134938,405.481,0.6079999804496765,-2.2738252813089863
405.931034,,0.0051676121907959435,405.952,0.6140000224113464,-2.2608548882499755
406.39655200000004,,0.0005333666584200385,406.41,0.5960000157356262,-2.3002172309228426
406.862069,,0.01817136286512423,406.875,0.6079999804496765,-2.2742611702694973
407.327586,,0.04588808511342632,407.341,0.6320000290870667,-2.2221959318175717
407.793103,,0.05328690141005273,407.805,0.5830000042915344,-2.3292001026029983
408.258621,,0.030068459024913296,408.271,0.6299999952316284,-2.2270746713377667
408.72413800000004,,0.00042374212253824687,408.735,0.6330000162124634,-2.2208213422993603
409.18965499999996,,0.010099568737458407,409.201,0.6449999809265137,-2.1949620619779324
409.655172,,0.0022686032490549643,409.671,0.6060000061988831,-2.280207113301408
410.12069,,0.014646117742782948,410.134,0.5839999914169312,-2.3284017954516707
410.586207,,0.009707898645452028,410.601,0.6010000109672546,-2.2916088629863776
411.05172400000004,,0.008607328440445683,411.064,0.5979999899864197,-2.2983611356399876
411.51724099999996,,0.024964622438445293,411.532,0.6000000238418579,-2.2941852409133805
411.982759,,0.02967784047239039,411.994,0.6060000061988831,-2.2812542485961465
412.448276,,0.020776147537017457,412.46,0.6039999723434448,-2.285707164743641
412.913793,,0.00040638591306422714,412.923,0.5950000286102295,-2.3053621072889223
413.37931,,0.023805139547608718,413.389,0.6190000176429749,-2.253071690020743
413.844828,,0.02953394169102137,413.854,0.6060000061988831,-2.281340554641099
414.31034500000004,,0.007959925864259861,414.319,0.6190000176429749,-2.2529149218027933
414.775862,,0.022386836858829206,414.786,0.6000000238418579,-2.294159530896469
415.241379,,0.030155513589498587,415.252,0.640999972820282,-2.2046428211918565
415.706897,,0.006505782552181768,415.717,0.6200000047683716,-2.25016460134284
416.172414,,0.021956820665390103,416.175,0.6449999809265137,-2.195437514642741
416.63793100000004,,0.02176416894792912,416.645,0.6190000176429749,-2.25179816998379
417.103448,,0.007775004666151257,417.108,0.6299999952316284,-2.227534733942277
417.568966,,0.03423021453985548,417.576,0.6190000176429749,-2.2511968164428175
418.034483,,0.03343994474206633,418.038,0.5989999771118164,-2.294472249404841
418.5,,0.017015855524189823,418.502,0.5849999785423279,-2.3246916139336964
418.96551700000003,,0.011660803250969989,418.972,0.5960000157356262,-2.3004701245997397
419.43103399999995,,0.022837280499624118,419.43,0.6039999723434448,-2.2828179526856887
419.896552,,0.02956549592914574,419.897,0.597000002861023,-2.2978851742332065
420.362069,,0.013555893410852416,420.363,0.6069999933242798,-2.2759609430793457
420.827586,,0.014158541789851938,420.828,0.597000002861023,-2.297659437166481
421.293103,,0.023650433212584553,421.294,0.640999972820282,-2.201762899852585
421.758621,,0.003252380437969254,421.761,0.6069999933242798,-2.2758532093868524
422.22413800000004,,0.024747606045256124,422.226,0.6110000014305115,-2.2672071731499135
422.689655,,0.031156581514079473,422.687,0.6079999804496765,-2.273862591995583
423.15517200000005,,0.013335621074657163,423.15,0.6259999871253967,-2.2348132972058226
423.62069,,0.0057360247667659955,423.62,0.5870000123977661,-2.3199890410563593
424.086207,,0.006429952175291126,424.082,0.6029999852180481,-2.2853757568188917
424.55172400000004,,0.007575650227745306,424.546,0.6060000061988831,-2.2791139549408364
425.017241,,0.01864025404082431,425.016,0.6209999918937683,-2.2467284618499384
425.482759,,0.016073805498924558,425.482,0.6010000109672546,-2.2906063249902164
425.948276,,0.001428102341522781,425.945,0.5889999866485596,-2.31705706375866
426.413793,,0.018874509264313888,426.41,0.6050000190734863,-2.2824984795617826
426.87931000000003,,0.035007725101482756,426.875,0.6309999823570251,-2.2261363232702602
427.344828,,0.034167740927133365,427.341,0.6039999723434448,-2.2852156810298494
427.810345,,0.013253773993411249,427.806,0.6330000162124634,-2.2222556980521646
428.275862,,0.010161918936013115,428.271,0.5920000076293945,-2.311759670544134
428.741379,,0.010751180516539113,428.731,0.6200000047683716,-2.2508900575852295
429.20689699999997,,0.016206635628275855,429.197,0.5770000219345093,-2.3446540448295035
429.672414,,0.04418904482809115,429.664,0.5920000076293945,-2.3120041345100777
430.137931,,0.04163954562167351,430.127,0.6010000109672546,-2.2923727605607667
430.603448,,0.009606828738884807,430.59,0.6209999918937683,-2.2487225093820093
431.068966,,0.01843882783571091,431.06,0.5929999947547913,-2.3095953817779353
431.534483,,0.018363678935551884,431.52,0.6700000166893005,-2.1416610928196285
432.0,,0.002690102061032733,431.99,0.5809999704360962,-2.3353384505327406
432.46551700000003,,0.0012123928797121274,432.456,0.5929999947547913,-2.308936268612313
432.931034,,0.011909279272913291,432.922,0.5989999771118164,-2.2955792931410883
433.396552,,0.020689552487866733,433.38,0.593999981880188,-2.306169026994954
433.862069,,0.006918467358880763,433.846,0.42399999499320984,-2.6762300501018124
434.327586,,0.01837481396919226,434.311,0.6240000128746033,-2.2401971409629793
434.79310300000003,,0.02587463928356656,434.776,0.640999972820282,-2.2028679044847044
435.258621,,0.004277497952921244,435.242,0.5879999995231628,-2.3180600236100477
435.724138,,0.02494683829040234,435.709,0.5929999947547913,-2.3069164658258074
436.189655,,0.03365883481502714,436.175,0.6050000190734863,-2.2805563310385386
436.655172,,0.01886706944393884,436.635,0.6259999871253967,-2.234628107915518
437.12068999999997,,0.0021568855882375454,437.105,0.5960000157356262,-2.299855432663493
437.586207,,0.002578464888495625,437.568,0.6290000081062317,-2.227876713028114
438.051724,,0.01722669968122862,438.03,0.5960000157356262,-2.2997402109396856
438.517241,,0.029553392262021687,438.501,0.5989999771118164,-2.293225573782875
438.982759,,0.029588247588788235,438.964,0.6039999723434448,-2.2824067090211493
439.448276,,0.018759025372869765,439.43,0.574999988079071,-2.3457133152920964
439.913793,,0.0013709194561705438,439.895,0.6079999804496765,-2.2739919682571608
440.37931000000003,,0.016350293995542754,440.361,0.5879999995231628,-2.317781850944066
440.844828,,0.022455158336461008,440.82,0.5960000157356262,-2.3006060457467226
441.310345,,0.008730141779165314,441.286,0.628000020980835,-2.231171136209946
441.775862,,0.013826172518082205,441.753,0.5979999899864197,-2.2968318398047907
442.241379,,0.019215530090573783,442.219,0.6399999856948853,-2.2056397887815327
442.70689699999997,,0.005632431582578897,442.68,0.6370000243186951,-2.212486686046772
443.172414,,0.039274077198633614,443.15,0.6200000047683716,-2.2498250334780687
443.637931,,0.04407646572810122,443.613,0.6060000061988831,-2.2806096640093094
444.103448,,0.011213894091091551,444.075,0.6320000290870667,-2.224222534527728
444.568966,,0.02675589754106579,444.546,0.5669999718666077,-2.3660598039922385
445.03448299999997,,0.0370855475549058,445.009,0.5820000171661377,-2.333567050442234
445.5,,0.024975332233420074,445.474,0.6079999804496765,-2.2770660246784744
445.965517,,0.01854561716894844,445.937,0.6370000243186951,-2.2139793655505375
446.431034,,0.027998364574359332,446.403,0.5830000042915344,-2.3316677021062793
446.896552,,0.03439856357717352,446.868,0.5870000123977661,-2.3229413060914488
447.36206899999996,,0.018132183125871986,447.333,0.6150000095367432,-2.261874826597217
447.827586,,0.011783880439158812,447.798,0.6119999885559082,-2.2682945976875617
448.29310300000003,,0.02643571138273725,448.264,0.5929999947547913,-2.309523941108848
448.758621,,0.014114860794129908,448.731,0.6000000238418579,-2.2940649046105417
449.224138,,0.003809876541373696,449.197,0.6100000143051147,-2.2720324214963865
449.689655,,0.00026912067005295645,449.657,0.5979999899864197,-2.2978994750979824
450.155172,,0.0273393042606823,450.127,0.6190000176429749,-2.2518481036541105
450.62068999999997,,0.053132486090630336,450.59,0.6119999885559082,-2.2667844558694954
451.086207,,0.05701567829270799,451.053,0.5899999737739563,-2.3143954411300274
451.551724,,0.041874886446787773,451.52,0.5920000076293945,-2.309724002927498
452.017241,,0.024916474911589524,451.983,0.6060000061988831,-2.2789234816015504
452.482759,,0.017214385362257632,452.449,0.5929999947547913,-2.30696970572896
452.94827599999996,,0.019445981326215736,452.912,0.6579999923706055,-2.1651117010402743
453.413793,,0.029419115850166225,453.378,0.625,-2.236797551819491
453.87931,,0.04073788198132532,453.843,0.5860000252723694,-2.3215986795397217
454.344828,,0.03960713301654951,454.309,0.5849999785423279,-2.32366201661322
454.810345,,0.01822905788721994,454.776,0.6039999723434448,-2.2822071316489687
455.27586199999996,,0.00912528025962448,455.242,0.6150000095367432,-2.258237376809499
455.741379,,0.01579096108695419,455.702,0.609000027179718,-2.2713604963226324
456.206897,,0.006571868248955951,456.168,0.5920000076293945,-2.308503745820477
456.672414,,0.03294464297347613,456.631,0.6259999871253967,-2.2345880493038948
457.137931,,0.03010400502976781,457.101,0.5860000252723694,-2.321939805444195
457.603448,,0.002867931478642386,457.561,0.6039999723434448,-2.2829723116926597
458.06896600000005,,0.0320415294541942,458.03,0.5979999899864197,-2.29632749108688
458.53448299999997,,0.03120816043932788,458.501,0.597000002861023,-2.298816334089644
459.0,,0.012201717185882258,458.956,0.5830000042915344,-2.3296458402519646
459.465517,,0.004179479268536601,459.422,0.6470000147819519,-2.1905485031910445
459.931034,,0.014580158447700673,459.887,0.6330000162124634,-2.2213817608885664
460.39655200000004,,0.022504006566646615,460.353,0.6079999804496765,-2.2761660749237294
460.86206899999996,,0.008996762068205934,460.82,0.652999997138977,-2.178421549604885
461.327586,,0.015285622936872635,461.286,0.6060000061988831,-2.281080379235981
461.793103,,0.02102658369197792,461.746,0.6330000162124634,-2.2224793745884357
462.258621,,0.0025479076924337517,462.212,0.6039999723434448,-2.2858368358348704
462.724138,,0.033335908494651005,462.675,0.49000000953674316,-2.5343307184907693
463.18965499999996,,0.04367647802453252,463.145,0.5809999704360962,-2.336152240184832
463.655172,,0.031765722932089666,463.609,0.6449999809265137,-2.196742619972903
464.12069,,0.01920295816213858,464.071,0.5910000205039978,-2.3143547508710567
464.58620699999994,,0.023274023631227166,464.535,0.6060000061988831,-2.2815825404503856
465.051724,,0.039312866557287524,465.005,0.5960000157356262,-2.3032217883572477
465.517241,,0.05084562630825805,465.47,0.6150000095367432,-2.2616291878063346
465.98275900000004,,0.049225550148149645,465.933,0.6169999837875366,-2.257027513374785
466.448276,,0.03657525617817106,466.399,0.6039999723434448,-2.2850660869580186
466.913793,,0.017175920783770084,466.864,0.6169999837875366,-2.2564285962988433
467.37931,,0.0020902156878113234,467.329,0.6290000081062317,-2.2299472429780085
467.844828,,0.008639453389952471,467.796,0.652999997138977,-2.177308433481773
468.31034500000004,,0.0037636169221568505,468.261,0.6150000095367432,-2.259742096410536
468.77586199999996,,0.020554277351239023,468.72,0.6000000238418579,-2.292075026018746
469.241379,,0.016116201151582955,469.185,0.5809999704360962,-2.3331430719468074
469.706897,,0.016712458555862536,469.653,0.5830000042915344,-2.3284906061391393
470.172414,,0.05227427158257593,470.116,0.652999997138977,-2.175729437650836
470.63793100000004,,0.05673646894458025,470.583,0.6060000061988831,-2.2779157126743717
471.10344799999996,,0.028116743394827493,471.045,0.6129999756813049,-2.26250750974592
471.568966,,0.0005332910345483994,471.513,0.6060000061988831,-2.277658659954604
472.034483,,0.002513984251953476,471.975,0.6209999918937683,-2.244941311915394
472.5,,0.012318242878936396,472.441,0.6039999723434448,-2.2820039409208372
472.965517,,0.016755986123438343,472.905,0.5929999947547913,-2.306058065012784
473.43103399999995,,0.0036558123776424772,473.371,0.6179999709129333,-2.2517424689748586
473.89655200000004,,0.007185834966631362,473.838,0.6060000061988831,-2.278093733540879
474.362069,,0.0025005169287697824,474.303,0.5799999833106995,-2.3349978171158994
474.827586,,0.022629407153016156,474.769,0.5789999961853027,-2.337480959258023
475.293103,,0.024577020976334015,475.234,0.6190000176429749,-2.2506756822667624
475.758621,,0.002533183824168096,475.699,0.5540000200271606,-2.392654444911763
476.22413800000004,,0.03661868650943707,476.164,0.6330000162124634,-2.2209227476003788
476.689655,,0.049044866522222653,476.627,0.6150000095367432,-2.260522065342493
477.155172,,0.036974873152124,477.09,0.5709999799728394,-2.3567566465694494
477.62069,,0.022414307884083898,477.56,0.6079999804496765,-2.276500700076059
478.086207,,0.024354261954869276,478.023,0.6190000176429749,-2.252857919772431
478.55172400000004,,0.03949201287911804,478.489,0.6079999804496765,-2.277102946418049
479.01724099999996,,0.050984894022005456,478.954,0.6100000143051147,-2.272974055629284
479.482759,,0.04803986682833694,479.42,0.5799999833106995,-2.3385041236729402
479.948276,,0.030165966110641585,479.88,0.6169999837875366,-2.2580014510205544
480.413793,,0.0006178823414698023,480.346,0.6060000061988831,-2.282006376848471
480.87931000000003,,0.03158085451713183,480.812,0.6370000243186951,-2.214437984019811
481.344828,,0.04898790879358991,481.278,0.6570000052452087,-2.1707639067801052
481.810345,,0.04102596829331322,481.742,0.6439999938011169,-2.1989159684956947
482.275862,,0.022761634644258805,482.208,0.6110000014305115,-2.270577387540873
482.74137900000005,,0.026067885748035556,482.671,0.6209999918937683,-2.2485016327237752
483.206897,,0.06430950003368162,483.141,0.6060000061988831,-2.2808460511726847
483.672414,,0.1100985654902314,483.601,0.6079999804496765,-2.27611807948139
484.13793100000004,,0.1204201988992091,484.071,0.6169999837875366,-2.2561154575777493
484.603448,,0.08677932223575738,484.535,0.515999972820282,-2.475753892702075
485.068966,,0.045106666637300064,484.997,0.5960000157356262,-2.301060871914924
485.534483,,0.029228817468221074,485.463,0.6330000162124634,-2.220064505184215
486.0,,0.03263922641281594,485.926,0.5920000076293945,-2.3090271358860956
486.46551700000003,,0.027273135385930326,486.392,0.6039999723434448,-2.2825574750099036
486.931034,,0.0049193071598611264,486.857,0.5709999799728394,-2.3541739656995126
487.396552,,0.014771407694918881,487.322,0.6290000081062317,-2.227588887352882
487.862069,,0.014046104814162665,487.787,0.6010000109672546,-2.2884291344678713
488.327586,,0.0036992733169034222,488.252,0.5960000157356262,-2.2992269952363986
488.79310300000003,,0.011764044199132644,488.72,0.5950000286102295,-2.301380569159213
489.258621,,0.0472208186924052,489.185,0.593999981880188,-2.3036056504489784
489.724138,,0.08665152822259797,489.646,0.6200000047683716,-2.2470767093322777
490.189655,,0.10179650437865694,490.116,0.6190000176429749,-2.2494366271081203
490.655172,,0.09062451894691324,490.579,0.6190000176429749,-2.249677393895293
491.12069,,0.07430466557902352,491.042,0.6150000095367432,-2.258685164867977
491.586207,,0.06918806281069918,491.51,0.6259999871253967,-2.2350568120681706
492.05172400000004,,0.06956818178345438,491.971,0.5960000157356262,-2.3007867120295975
492.517241,,0.05879111206475788,492.437,0.5920000076293945,-2.309895457091872
492.982759,,0.029984773284480074,492.902,0.5960000157356262,-2.3015874089081225
493.448276,,0.010427743733476135,493.368,0.6420000195503235,-2.2017753240150872
493.913793,,0.05236531865988811,493.835,0.5910000205039978,-2.3132783113451225
494.37931000000003,,0.08442010608235544,494.3,0.6449999809265137,-2.1959974635275974
494.844828,,0.09298090429830318,494.765,0.6579999923706055,-2.1680029538675365
495.310345,,0.07348703349708378,495.231,0.6029999852180481,-2.288108073088075
495.775862,,0.04236622507542179,495.698,0.6190000176429749,-2.2534735512969766
496.241379,,0.026719272061754805,496.156,0.5929999947547913,-2.3102811385546387
496.70689699999997,,0.036522926598712716,496.623,0.5910000205039978,-2.3147355543917216
497.172414,,0.0506809959512938,497.086,0.6399999856948853,-2.208010166299042
497.637931,,0.039187567919887326,497.55,0.6190000176429749,-2.253718909063647
498.103448,,0.0006512045165057424,498.02,0.6190000176429749,-2.2536059958306445
498.568966,,0.03407824752915234,498.485,0.640999972820282,-2.205496126797455
499.03448299999997,,0.040619524561916524,498.949,0.6039999723434448,-2.2858649388998464
499.5,,0.02924463510093788,499.415,0.6039999723434448,-2.285570424793906
499.96551700000003,,0.025980271269313692,499.88,0.5929999947547913,-2.3091974530869046
500.431034,,0.036938702340065736,500.346,0.6399999856948853,-2.2064290186643656
500.89655200000004,,0.042597982152339404,500.806,0.6019999980926514,-2.2888221568913365
501.362069,,0.025998354845809507,501.272,0.6420000195503235,-2.2012687382163674
501.827586,,0.0012513006510954685,501.739,0.5920000076293945,-2.30979433263536
502.293103,,0.009297923633887048,502.205,0.6370000243186951,-2.2113612372948923
502.758621,,0.013040785857840262,502.668,0.6690000295639038,-2.1412741953004795
503.224138,,0.041862004128378344,503.13,0.6190000176429749,-2.249870140509813
503.68965499999996,,0.04459156077489477,503.598,0.5989999771118164,-2.293152318812022
504.15517200000005,,0.016114939432182868,504.06,0.5950000286102295,-2.301632259997646
504.62068999999997,,0.017170160163819264,504.528,0.5929999947547913,-2.3058192232329375
505.08620699999994,,0.026732415904752803,504.99,0.5870000123977661,-2.318790307455772
505.55172400000004,,0.010255090591311593,505.455,0.6460000276565552,-2.190221074006671
506.017241,,0.011544488802805505,505.922,0.6110000014305115,-2.266516278635915
506.48275899999993,,0.01963641322644294,506.388,0.6110000014305115,-2.2666289630259495
506.948276,,0.008976006622254633,506.856,0.640999972820282,-2.2014492053803627
507.413793,,0.015980618828880733,507.315,0.6439999938011169,-2.1951532658634387
507.87931,,0.041889904174834444,507.787,0.5929999947547913,-2.306557916968014
508.344828,,0.048003110335925456,508.245,0.5979999899864197,-2.296004686544117
508.810345,,0.025132206167631534,508.717,0.6039999723434448,-2.2833097388863717
509.27586199999996,,0.007349222750915643,509.175,0.6140000224113464,-2.2619250670769153
509.74137900000005,,0.01698735811002555,509.645,0.6069999933242798,-2.277590096095012
510.20689699999997,,0.005943747608546045,510.107,0.6449999809265137,-2.195215151382436
510.67241399999995,,0.0346173325812564,510.576,0.5830000042915344,-2.330691636962856
511.13793100000004,,0.03399623809473749,511.038,0.6079999804496765,-2.276601304874527
511.603448,,0.0018833011706904665,511.502,0.6069999933242798,-2.2791201239130894
512.0689659999999,,0.028783575487088757,511.971,0.5929999947547913,-2.309915174316841
512.534483,,0.031370588168532616,512.43,0.5809999704360962,-2.33629846279856
513.0,,0.01530622583278949,512.897,0.6240000128746033,-2.242793832828726
513.465517,,0.0072057040061502455,513.363,0.5929999947547913,-2.31044089499841
513.931034,,0.014151373911186598,513.827,0.5929999947547913,-2.310478107437121
514.396552,,0.016995596226299637,514.293,0.6259999871253967,-2.2385467916441333
514.862069,,0.0014125374047525639,514.757,0.5920000076293945,-2.3125120070223524
515.327586,,0.02977682524624205,515.223,0.6349999904632568,-2.2186512974330315
515.793103,,0.03867607537235115,515.686,0.6240000128746033,-2.2423719751214493
516.258621,,0.017023318635598736,516.156,0.6190000176429749,-2.252962158606219
516.724138,,0.013094353114913016,516.62,0.6039999723434448,-2.285290079439428
517.189655,,0.02285014251038364,517.082,0.5989999771118164,-2.2957939238918494
517.655172,,0.008552012313751647,517.546,0.6240000128746033,-2.2409125665251923
518.1206900000001,,0.008845581455180095,518.016,0.5910000205039978,-2.3123796791501996
518.5862070000001,,0.010097312001949939,518.482,0.6449999809265137,-2.1943040010180943
519.051724,,0.0033930605121161353,518.945,0.5960000157356262,-2.30064127872085
519.517241,,0.016787227648179647,519.41,0.6209999918937683,-2.2457840713192305
519.982759,,0.02012998788064919,519.875,0.6079999804496765,-2.27375326479976
520.448276,,0.012885066225788739,520.341,0.5879999995231628,-2.3170220718148773
520.9137929999999,,0.002315071706354481,520.806,0.6200000047683716,-2.2470601816697875
521.37931,,0.01857124845335769,521.271,0.6019999980926514,-2.286097032423184
521.844828,,0.02244005984749083,521.731,0.6019999980926514,-2.2859902010615527
522.310345,,0.0065338411902103755,522.197,0.5870000123977661,-2.318639203201788
522.7758620000001,,0.01592918314438997,522.666,0.6449999809265137,-2.1923236568398834
523.241379,,0.019938792277546698,523.128,0.6169999837875366,-2.2534460379730454
523.7068969999999,,0.0032334701613203447,523.591,0.5669999718666077,-2.362570335338478
524.172414,,0.03125330895524208,524.061,0.5920000076293945,-2.3083636947385617
524.637931,,0.032579894192971706,524.524,0.6269999742507935,-2.2324301049662996
525.103448,,0.004433858640449413,524.986,0.6660000085830688,-2.1478289748876342
525.568966,,0.022676740489352483,525.452,0.609000027179718,-2.2724132463339317
526.034483,,0.023444752330600758,525.915,0.6370000243186951,-2.2118361480861646
526.5,,0.007250491346861945,526.381,0.6169999837875366,-2.255845593010235
526.9655170000001,,0.0005358236179098463,526.845,0.6629999876022339,-2.156061543007221
527.4310340000001,,0.01026553074448107,527.311,0.6290000081062317,-2.2305530145186574
527.8965519999999,,0.016436394000092815,527.776,0.6190000176429749,-2.2527285479558574
528.362069,,0.0005795235898039846,528.241,0.6470000147819519,-2.1920758174036177
528.827586,,0.026293430584465455,528.706,0.6309999823570251,-2.2272330083975493
529.293103,,0.0336261886724276,529.172,0.675000011920929,-2.131610670510025
529.7586210000001,,0.009598648764263392,529.635,0.6190000176429749,-2.253785446927067
530.224138,,0.022490203053209396,530.105,0.6539999842643738,-2.177630950101306
530.689655,,0.032151196081485305,530.568,0.625,-2.2408350699474826
531.155172,,0.016351409685688413,531.03,0.6460000276565552,-2.195031348589763
531.62069,,0.0012652909845058385,531.498,0.6460000276565552,-2.194905439139855
532.086207,,1.8371922695251676e-05,531.96,0.640999972820282,-2.2056026633725376
532.5517239999999,,0.017406471091163837,532.426,0.6890000104904175,-2.1007664146773957
533.017241,,0.03407718303087073,532.89,0.6679999828338623,-2.1461990028000066
533.482759,,0.03824403461021538,533.356,0.6700000166893005,-2.1414741528101437
533.9482760000001,,0.026770014430430533,533.82,0.6940000057220459,-2.088782015656683
534.413793,,0.0005100485306385863,534.286,0.6790000200271606,-2.121031965088359
534.87931,,0.029557087503188313,534.753,0.6959999799728394,-2.083553273677821
535.344828,,0.04076177939820295,535.218,0.640999972820282,-2.2029397630018352
535.810345,,0.02130996153589362,535.687,0.6790000200271606,-2.119729054236388
536.275862,,0.008834538797999416,536.149,0.7009999752044678,-2.0714066515240943
536.7413789999999,,0.014479201631035703,536.612,0.7089999914169312,-2.0536255538225823
537.206897,,0.015051154376695608,537.075,0.6499999761581421,-2.181865878477314
537.672414,,0.050576163876237305,537.542,0.6790000200271606,-2.118447852611835
538.137931,,0.053962712917427935,538.005,0.6499999761581421,-2.181462726241472
538.6034480000001,,0.022382900924906423,538.471,0.7099999785423279,-2.050653533378479
539.0689659999999,,0.00928015797468318,538.941,0.6700000166893005,-2.1377870175510596
539.5344829999999,,0.012533398289024335,539.407,0.6800000071525574,-2.1160667120953645
540.0,,0.0028865732368394945,539.865,0.6859999895095825,-2.103137952994412
540.465517,,0.00855789574205212,540.33,0.7170000076293945,-2.0358145208933682
540.931034,,0.0035070437314689315,540.798,0.6520000100135803,-2.1777065017892023
541.396552,,0.012656440870291484,541.264,0.6859999895095825,-2.1039699751783507
541.862069,,0.0011485135273836473,541.731,0.7480000257492065,-1.9692772731076795
542.327586,,0.028105227194790115,542.19,0.722000002861023,-2.0263376813413596
542.7931030000001,,0.03724168896304141,542.66,0.765999972820282,-1.9309107587901124
543.258621,,0.014845115319395618,543.123,0.6830000281333923,-2.112177381475407
543.7241379999999,,0.01652455941570988,543.59,0.7379999756813049,-1.992783863667655
544.189655,,0.023556457780964768,544.053,0.6700000166893005,-2.1413449071936723
544.655172,,0.0004045320924729615,544.516,0.6639999747276306,-2.154799914916705
545.12069,,0.02966260506505562,544.986,0.7049999833106995,-2.065817425675994
545.5862070000001,,0.035435664791366825,545.452,0.6790000200271606,-2.122752100357311
546.051724,,0.015506643856331392,545.916,0.6990000009536743,-2.0794076654055935
546.517241,,0.008467074643336722,546.382,0.6850000023841858,-2.1100687977417927
546.982759,,0.017515802065595866,546.846,0.734000027179718,-2.0034007039370207
547.448276,,0.009515797283223623,547.311,0.6539999842643738,-2.1777013694052636
547.9137929999999,,0.007629024744814622,547.776,0.7609999775886536,-1.944517041064267
548.3793099999999,,0.02202156177708186,548.235,0.7490000128746033,-1.9705140210186107
548.844828,,0.019808854018462826,548.702,0.6690000295639038,-2.144585647316601
549.310345,,0.003173764301808914,549.168,0.7490000128746033,-1.9700083385391007
549.775862,,0.030165892231106387,549.631,0.7149999737739563,-2.0437398174548513
550.241379,,0.03515390264341929,550.101,0.6840000152587891,-2.11088876878121
550.706897,,0.011520011064720392,550.564,0.6790000200271606,-2.1213603726324473
551.172414,,0.015354545354626433,551.027,0.7160000205039978,-2.0403091941133664
551.637931,,0.012814464726024764,551.498,0.753000020980835,-1.9592500377616315
552.103448,,0.020512880364398182,551.961,0.6740000247955322,-2.1309194135525016
552.568966,,0.05221097987507033,552.426,0.6869999766349792,-2.1021741093883413
553.034483,,0.05644365407303984,552.886,0.6679999828338623,-2.143180784284178
553.5,,0.04302389173032625,553.352,0.6949999928474426,-2.0840167769428217
553.965517,,0.038200826572130996,553.817,0.6600000262260437,-2.1599865691578173
554.4310340000001,,0.047808166908322576,554.283,0.6660000085830688,-2.1466987306232688
554.896552,,0.05100995796294392,554.749,0.7900000214576721,-1.876401678702828
555.3620689999999,,0.029649984490723074,555.215,0.6830000281333923,-2.1094456080127832
555.827586,,0.0045359417816076475,555.676,0.6690000295639038,-2.139952217718231
556.293103,,0.02090064136632622,556.145,0.6790000200271606,-2.118250426243106
556.758621,,0.007754919793381966,556.606,0.6679999828338623,-2.14237688540881
557.224138,,0.012379562533569822,557.075,0.7039999961853027,-2.064177743818074
557.689655,,0.010392861761968089,557.535,0.6790000200271606,-2.1189392453568248
558.155172,,0.016041858243302804,558.005,0.6759999990463257,-2.1258247160308503
558.6206900000001,,0.04297596217874376,558.471,0.6959999799728394,-2.0826447186692962
559.0862070000001,,0.04848293801731984,558.933,0.675000011920929,-2.1288201679170258
559.5517239999999,,0.03375199805274027,559.399,0.7609999775886536,-1.9418968662996239
560.017241,,0.01600661148591259,559.864,0.722000002861023,-2.0273054425624393
560.482759,,0.008062337917367693,560.33,0.656000018119812,-2.1715259623570216
560.948276,,0.011579120076002512,560.79,0.6949999928474426,-2.0869661504971986
561.413793,,0.02316189582745614,561.256,0.6809999942779541,-2.1178400611846566
561.87931,,0.03495790798446056,561.72,0.7210000157356262,-2.0310199362209436
562.344828,,0.03385103072658402,562.185,0.671999990940094,-2.138042556691297
562.8103450000001,,0.013870018864395364,562.653,0.7099999785423279,-2.055457799786065
563.275862,,0.010618264000419101,563.115,0.6620000004768372,-2.160166231494391
563.7413789999999,,0.014859733841372364,563.583,0.6579999923706055,-2.168940815341507
564.206897,,0.008141694098171658,564.045,0.6539999842643738,-2.177641447974806
564.672414,,0.03397621323089841,564.513,0.6759999990463257,-2.1296234793708084
565.137931,,0.030401897214012708,564.975,0.6449999809265137,-2.1970028047814654
565.603448,,0.004054163179409524,565.441,0.6470000147819519,-2.192420880449594
566.068966,,0.03705966348506884,565.905,0.6579999923706055,-2.168172518503368
566.534483,,0.04274691182611742,566.371,0.6809999942779541,-2.1177291273896803
567.0,,0.030831275423841835,566.835,0.6700000166893005,-2.1413176470976403
567.465517,,0.027572447887971863,567.301,0.6650000214576721,-2.1518034653478
567.931034,,0.03941729506571127,567.768,0.6620000004768372,-2.1579137820520646
568.396552,,0.04644680583455746,568.234,0.6629999876022339,-2.1553040993256984
568.862069,,0.030090887555584495,568.699,0.7089999914169312,-2.054661789978479
569.327586,,0.0002493685401136853,569.164,0.6449999809265137,-2.1936896923538893
569.793103,,0.01582885048940456,569.627,0.6060000061988831,-2.278284471215935
570.2586210000001,,0.00371968484085265,570.09,0.6869999766349792,-2.101486931729212
570.724138,,0.017278322281347944,570.56,0.6729999780654907,-2.131714169272845
571.189655,,0.020752562094895503,571.023,0.6320000290870667,-2.2208259158296983
571.655172,,0.0033078195151003318,571.489,0.675000011920929,-2.1269996831459475
572.12069,,0.015553437841618577,571.954,0.656000018119812,-2.1683218476579733
572.586207,,0.01858439246477762,572.42,0.6700000166893005,-2.137822560135946
573.051724,,0.008489620110571123,572.886,0.6729999780654907,-2.1313621457958196
573.517241,,0.00022583240016632467,573.345,0.6629999876022339,-2.153295268932546
573.982759,,0.0032199752666097433,573.813,0.6700000166893005,-2.138258338629908
574.4482760000001,,0.01741468424307776,574.278,0.6660000085830688,-2.1472473119273836
574.913793,,0.039218979613416194,574.746,0.6650000214576721,-2.1497528700983803
575.37931,,0.06001720903137807,575.205,0.5830000042915344,-2.328773604692935
575.844828,,0.0647973661808592,575.675,0.6299999952316284,-2.2267842264557838
576.310345,,0.046325920964820445,576.138,0.6570000052452087,-2.1683904787544006
576.775862,,0.019689428093535726,576.605,0.609000027179718,-2.273404091205763
577.241379,,0.011577986282583485,577.067,0.652999997138977,-2.1779779301728213
577.706897,,0.030919234323626137,577.535,0.6579999923706055,-2.1675007874140513
578.172414,,0.054909106968943085,577.998,0.7139999866485596,-2.045879507303929
578.6379310000001,,0.052016222704900625,578.464,0.6589999794960022,-2.1660424161425795
579.1034480000001,,0.019512665237509202,578.927,0.6710000038146973,-2.140180428528919
579.5689659999999,,0.012841999860867218,579.393,0.6859999895095825,-2.107719039305458
580.034483,,0.020175949212511788,579.858,0.6330000162124634,-2.2233358317210725
580.5,,0.009855517353328038,580.324,0.6209999918937683,-2.2495557616837654
580.965517,,0.004751425011402074,580.791,0.6420000195503235,-2.2038066032569192
581.431034,,0.011409327917223011,581.256,0.6420000195503235,-2.2037349501449386
581.896552,,0.01509353226827654,581.717,0.6200000047683716,-2.2515215596623173
582.362069,,0.003179611715548761,582.182,0.6259999871253967,-2.238238903125954
582.827586,,0.014872192446582498,582.646,0.6430000066757202,-2.200930014979353
583.2931030000001,,0.017262587687620557,583.115,0.6499999761581421,-2.1853538480119075
583.758621,,0.0018505634812571493,583.576,0.6209999918937683,-2.2481646485775517
584.2241379999999,,0.023716690576388647,584.045,0.6069999933242798,-2.278263590320548
584.689655,,0.028611970143500705,584.505,0.6179999709129333,-2.253876930977542
585.155172,,0.01935471008183289,584.975,0.6539999842643738,-2.1750161208314043
585.6206900000001,,0.015128859672773482,585.441,0.6309999823570251,-2.2246993041779435
586.0862070000001,,0.02723624824031367,585.905,0.7170000076293945,-2.03692443016064
586.551724,,0.04805251776144485,586.371,0.625,-2.2369750624663136
587.017241,,0.06365382159596635,586.834,0.6809999942779541,-2.1146237611087653
587.482759,,0.07008901417185823,587.3,0.6299999952316284,-2.225437102492588
587.948276,,0.07247459122670319,587.766,0.6190000176429749,-2.2491637314951625
588.4137929999999,,0.07464300163301876,588.225,0.6079999804496765,-2.272958671486999
588.87931,,0.07807003074637352,588.698,0.6129999756813049,-2.2619691063631517
589.344828,,0.08604005431814225,589.156,0.6539999842643738,-2.172624342598098
589.810345,,0.09832161850950501,589.624,0.6480000019073486,-2.1857514594904797
590.2758620000001,,0.10286946542878857,590.087,0.6420000195503235,-2.198951994110425
590.741379,,0.08291327215217494,590.557,0.6370000243186951,-2.21004405004841
591.2068969999999,,0.03759740224988608,591.019,0.6579999923706055,-2.164555566570214
591.672414,,0.009274012106726348,591.485,0.597000002861023,-2.297773236729172
592.137931,,0.03107550277408558,591.949,0.6349999904632568,-2.2153534517809392
592.603448,,0.030114647478850627,592.415,0.6499999761581421,-2.1830798901013795
593.068966,,0.0355047178835443,592.879,0.6209999918937683,-2.246691312307953
593.534483,,0.06475282079391119,593.344,0.6449999809265137,-2.194846393279678
594.0,,0.10049917686599594,593.809,0.6480000019073486,-2.1887514211311596
594.4655170000001,,0.11333164509307675,594.275,0.6399999856948853,-2.2066064548801196
594.9310340000001,,0.09848627777026032,594.735,0.6470000147819519,-2.1917538046657152
595.3965519999999,,0.08045718406583063,595.2,0.6600000262260437,-2.163789175773816
595.862069,,0.08162065195709718,595.668,0.6340000033378601,-2.2207409681933297
596.327586,,0.09310162849099998,596.131,0.6600000262260437,-2.1643429754693715
596.793103,,0.08597027408386791,596.601,0.6370000243186951,-2.214631462731044
597.2586210000001,,0.0512616323135003,597.064,0.6209999918937683,-2.2495973636884923
597.724138,,0.01452113199833119,597.527,0.6190000176429749,-2.253987744066927
598.189655,,0.003923096575604044,597.99,0.6639999747276306,-2.15590589742999
598.655172,,0.017377845906484064,598.456,0.6119999885559082,-2.2690775092214053
599.12069,,0.030965300929132293,598.922,0.6449999809265137,-2.196992455868022
599.586207,,0.030187901657062276,599.387,0.6700000166893005,-2.142269747751619
600.0517239999999,,0.021491448326691212,599.853,0.625,-2.2399926405624293
600.517241,,0.01649286381697779,600.318,0.6200000047683716,-2.250520192319561
600.982759,,0.01665848949024621,600.783,0.6209999918937683,-2.2479383723733126
601.448276,,0.0170424419151874,601.249,0.6600000262260437,-2.1625414892569967
601.913793,,0.015481949666918007,601.716,0.6330000162124634,-2.2209209745651246
602.37931,,0.010401276515788779,602.175,0.6240000128746033,-2.2400837798561755
602.844828,,0.0035713387578126215,602.646,0.6579999923706055,-2.165577136954513
603.310345,,0.028014630592002245,603.108,0.6039999723434448,-2.282816821072062
603.775862,,0.05140903881970332,603.576,0.6269999742507935,-2.232338744251153
604.2413789999999,,0.05665725124236894,604.038,0.6449999809265137,-2.192802983805131
604.706897,,0.04124402703379699,604.501,0.6309999823570251,-2.2230417825884317
605.172414,,0.024990658533688894,604.971,0.6349999904632568,-2.2141306050885006
605.637931,,0.029842857534342175,605.437,0.625,-2.2357924462672774
606.1034480000001,,0.052163402789135074,605.901,0.6370000243186951,-2.209599762202705
606.5689659999999,,0.0657620520046936,606.367,0.6169999837875366,-2.2532014344160545
607.0344829999999,,0.055017833563331946,606.831,0.6150000095367432,-2.257664510983562
607.5,,0.03273507273635698,607.297,0.6309999823570251,-2.222986321721915
607.965517,,0.020224108779082525,607.761,0.6309999823570251,-2.2232348925098164
608.431034,,0.020432711306873134,608.22,0.6230000257492065,-2.2409734858707293
608.896552,,0.01816145823790426,608.694,0.628000020980835,-2.2304416949797212
609.362069,,0.0025939834040668757,609.153,0.6470000147819519,-2.189449640598844
609.827586,,0.0172354017415796,609.62,0.621999979019165,-2.2443467504043153
610.293103,,0.023041827896408035,610.082,0.6330000162124634,-2.220828438926657
610.758621,,0.01082778620307035,610.546,0.6129999756813049,-2.264851680347469
611.2241379999999,,0.003984021698031798,611.016,0.5699999928474426,-2.3589749278332555
611.689655,,0.006639009080681926,611.481,0.6499999761581421,-2.1851028740109575
612.155172,,4.3019129252247274e-05,611.944,0.6019999980926514,-2.2900623921460674
612.62069,,0.0026318567607532197,612.41,0.6050000190734863,-2.2838639768455486
613.0862070000001,,0.0037713234306163473,612.875,0.6290000081062317,-2.2318572444769966
613.551724,,0.011652443666114369,613.341,0.6069999933242798,-2.2800024759129545
614.017241,,0.012363207197688355,613.806,0.6079999804496765,-2.277966544314655
614.4827590000001,,0.00608070191487151,614.272,0.6050000190734863,-2.284568758667664
614.948276,,0.002129695713400464,614.731,0.6060000061988831,-2.2823779307895045
615.4137929999999,,0.009728300240829869,615.197,0.6110000014305115,-2.2713938845392225
615.8793099999999,,0.015174036669747247,615.66,0.6019999980926514,-2.290834647627115
616.344828,,0.0144413328100169,616.13,0.6700000166893005,-2.142446712364318
616.810345,,0.006111637246104056,616.59,0.6069999933242798,-2.279394923433036
617.275862,,0.002307167722320396,617.06,0.6060000061988831,-2.2812098573557438
617.741379,,0.0003428154028669601,617.524,0.6460000276565552,-2.193654389364725
618.206897,,0.01500169102910537,617.986,0.5920000076293945,-2.3108579462259384
618.672414,,0.02698291593463806,618.452,0.5899999737739563,-2.314752212087546
619.137931,,0.02057880531770297,618.916,0.5950000286102295,-2.303391013087895
619.603448,,0.0003239500585265157,619.381,0.6019999980926514,-2.2876816845654253
620.068966,,0.014823726293588996,619.846,0.6179999709129333,-2.252386569192808
620.534483,,0.011005999518860271,620.311,0.597000002861023,-2.2977361810554195
621.0,,0.00039659400783159226,620.779,0.6190000176429749,-2.2494509294433747
621.465517,,0.0025662190357727795,621.244,0.5860000252723694,-2.321049344258672
621.9310340000001,,0.005571234831673882,621.709,0.5770000219345093,-2.340428168625757
622.396552,,0.009717337894087253,622.174,0.6330000162124634,-2.2182696697037163
622.862069,,0.0004578176623330047,622.636,0.6269999742507935,-2.2312653173639148
623.327586,,0.01675871879698419,623.106,0.6060000061988831,-2.2770203980730495
623.793103,,0.020714922176902167,623.568,0.4050000011920929,-2.7150170535936513
624.258621,,0.006202580186419291,624.03,0.6060000061988831,-2.2772829663788707
624.724138,,0.011968420982722735,624.498,0.5839999914169312,-2.3254653247422064
625.189655,,0.01506459621740322,624.96,0.6060000061988831,-2.27785357558972
625.655172,,0.001697548814378352,625.426,0.5839999914169312,-2.326159212924538
626.1206900000001,,0.011377766144369094,625.89,0.5960000157356262,-2.300436159086181
626.5862070000001,,0.008562194496797022,626.356,0.597000002861023,-2.298710898773281
627.0517239999999,,0.007392553231874732,626.823,0.5759999752044678,-2.344934841520619
627.5172409999999,,0.020093551532943663,627.29,0.5669999718666077,-2.365020386332958
627.982759,,0.018791345888748655,627.757,0.5920000076293945,-2.3110229245944653
628.448276,,0.006942743421031103,628.215,0.6050000190734863,-2.283145145100853
628.913793,,0.005853399272673034,628.683,0.5910000205039978,-2.3140525023236136
629.37931,,0.01201430994485441,629.146,0.6169999837875366,-2.257762990430677
629.844828,,0.007715451528485486,629.616,0.5979999899864197,-2.2994504890394616
630.3103450000001,,0.0045305108591005986,630.079,0.593999981880188,-2.3083876285415323
630.7758620000001,,0.013967525173078532,630.547,0.6029999852180481,-2.288925332782132
631.2413789999999,,0.008967977429236551,631.009,0.5929999947547913,-2.310776022339848
631.706897,,0.009358078982922041,631.475,0.6050000190734863,-2.284613242217946
632.172414,,0.023531066883197428,631.938,0.5879999995231628,-2.321549032280506
632.637931,,0.016737765036909588,632.403,0.6100000143051147,-2.2734383317062155
633.103448,,0.005409546220125641,632.868,0.6069999933242798,-2.2797200629025505
633.568966,,0.019202270721424476,633.333,0.5889999866485596,-2.318615585579435
634.034483,,0.012120569330047746,633.798,0.5860000252723694,-2.3247760709894183
634.5,,0.0024099731402221244,634.264,0.6039999723434448,-2.2851416198645467
634.9655170000001,,0.004630531659459945,634.731,0.5820000171661377,-2.332622093482246
635.431034,,0.005428956126388071,635.197,0.593999981880188,-2.306011878426935
635.8965519999999,,0.008473869682222338,635.657,0.5910000205039978,-2.31207872060019
636.362069,,0.008417738391589871,636.12,0.6060000061988831,-2.2789413627547046
636.827586,,0.03188176253611901,636.59,0.609000027179718,-2.2719724354760586
637.293103,,0.03521554707828639,637.053,0.6039999723434448,-2.2824704250730448
637.7586210000001,,0.011848935756464236,637.516,0.593999981880188,-2.3039113894012138
638.224138,,0.014944423963577595,637.986,0.5339999794960022,-2.4343467607561653
638.689655,,0.020880105936846857,638.451,0.6359999775886536,-2.2119119194480437
639.155172,,0.00840240782793925,638.915,0.5899999737739563,-2.31199260111786
639.62069,,0.0017531454384151488,639.38,0.5920000076293945,-2.3075772354065065
640.086207,,0.0017783678910387522,639.845,0.5460000038146973,-2.4078195384201293
640.551724,,0.011103763578696019,640.311,0.628000020980835,-2.2292763016840187
641.017241,,0.013639138860049254,640.775,0.6019999980926514,-2.2861036774005132
641.482759,,0.006816462801395014,641.241,0.6050000190734863,-2.2798201337969775
641.9482760000001,,0.004236009200712013,641.705,0.6169999837875366,-2.2539911532870325
642.413793,,0.01528939299630378,642.171,0.5929999947547913,-2.3066459570849145
642.87931,,0.023009660389023027,642.631,0.6340000033378601,-2.2177297271930208
643.344828,,0.022334825457746295,643.102,0.5920000076293945,-2.3096698067435932
643.810345,,0.011954625249765982,643.564,0.6200000047683716,-2.2491199036202496
644.275862,,0.0006268365793662997,644.027,0.5979999899864197,-2.297504430352552
644.7413789999999,,0.0012339339758167115,644.498,0.6039999723434448,-2.2848752493126385
645.206897,,0.015614007676698988,644.96,0.5979999899864197,-2.2983652720188767
645.672414,,0.028177284246942415,645.426,0.5889999866485596,-2.3183545540194648
646.1379310000001,,0.02117520429550698,645.89,0.5960000157356262,-2.3034375824321396
646.6034480000001,,0.0024178700031836685,646.355,0.6240000128746033,-2.2427107030576225
647.0689659999999,,0.01988614394070811,646.82,0.6039999723434448,-2.2864917687879216
647.534483,,0.01629667742910374,647.286,0.597000002861023,-2.3018772060308867
648.0,,0.0015785820858858983,647.746,0.6019999980926514,-2.291042572553242
648.465517,,0.0051452397610503965,648.211,0.5649999976158142,-2.3716339114089013
648.931034,,0.00017075443014820502,648.679,0.5889999866485596,-2.3192519610102695
649.396552,,0.0030839026263027374,649.141,0.6169999837875366,-2.2580819220437234
649.862069,,0.0054141714081028846,649.605,0.5960000157356262,-2.3035961825129476
650.327586,,0.01711513441761466,650.075,0.6019999980926514,-2.2902249551520337
650.7931030000001,,0.015521499937391759,650.535,0.5950000286102295,-2.3051233731788767
651.258621,,0.0007380375895849316,651.005,0.5730000138282776,-2.3526601397368556
651.7241379999999,,0.014998947481476349,651.471,0.6100000143051147,-2.271627189916385
652.189655,,0.01459545215479845,651.934,0.625,-2.238506613573883
652.655172,,0.006221540975779087,652.399,0.6169999837875366,-2.2554891496395104
653.12069,,0.004494818814991233,652.864,0.6179999709129333,-2.2528714330881066
653.5862070000001,,0.012430915427625337,653.33,0.6010000109672546,-2.289490537812725
654.051724,,0.02026046599631145,653.794,0.5540000200271606,-2.391504530396672
654.517241,,0.020425981376307172,654.26,0.5830000042915344,-2.3279896150673403
654.982759,,0.015096064065064281,654.724,0.5889999866485596,-2.314641674995869
655.448276,,0.007684264034100311,655.19,0.597000002861023,-2.297001652699445
655.9137929999999,,0.0027838197837892834,655.653,0.5979999899864197,-2.2946832691486083
656.37931,,0.012874487417453293,656.115,0.6050000190734863,-2.2793676330933272
656.844828,,0.01055996625579342,656.583,0.6079999804496765,-2.272842916382567
657.310345,,0.009556980089968511,657.045,0.5889999866485596,-2.3143241765222013
657.7758620000001,,0.032776312631077435,657.513,0.6010000109672546,-2.288340736913987
658.241379,,0.03705484525581203,657.975,0.6190000176429749,-2.249353525937259
658.7068969999999,,0.01922776276677245,658.441,0.6230000257492065,-2.24092754696194
659.172414,,0.0014094118574751637,658.905,0.6269999742507935,-2.2325525671163016
659.637931,,0.006604620264048976,659.371,0.6019999980926514,-2.287399195793332
660.103448,,0.03084434228255768,659.838,0.6340000033378601,-2.2180927368257626
660.568966,,0.04804743548285657,660.304,0.5920000076293945,-2.3100240903822136
661.034483,,0.04283063270705638,660.768,0.5950000286102295,-2.303922221217598
661.5,,0.027234778799715403,661.234,0.6119999885559082,-2.267312961411742
661.965517,,0.02108778394517113,661.701,0.5929999947547913,-2.309115574562054
662.4310340000001,,0.025853838002570864,662.16,0.609000027179718,-2.2746340539691374
662.8965519999999,,0.024980329497043846,662.628,0.6019999980926514,-2.2902190170910335
663.362069,,0.0065981701769836885,663.09,0.4959999918937683,-2.5214397071110652
663.827586,,0.02031711775699065,663.56,0.6060000061988831,-2.2820152320078253
664.293103,,0.03571918155141035,664.023,0.5960000157356262,-2.303962991235222
664.7586210000001,,0.032505126408535485,664.489,0.6200000047683716,-2.251763935536265
665.224138,,0.02457237335312074,664.955,0.6069999933242798,-2.2800988439744416
665.689655,,0.028982106985582966,665.42,0.6169999837875366,-2.25824808702115
666.155172,,0.04527685016159803,665.88,0.6129999756813049,-2.266823426201026
666.62069,,0.05637556915800531,666.346,0.6320000290870667,-2.2252183814587845
667.086207,,0.04871354298622068,666.813,0.6470000147819519,-2.1922620897974645
667.5517239999999,,0.02784498500524806,667.279,0.6209999918937683,-2.248572302027276
668.017241,,0.011095666478360041,667.746,0.6050000190734863,-2.2830488794685846
668.482759,,0.007761061321046011,668.205,0.6169999837875366,-2.2564888105914895
668.948276,,0.012825178475013873,668.675,0.6600000262260437,-2.162367520453488
669.413793,,0.017516861886595486,669.138,0.5889999866485596,-2.316602354783862
669.87931,,0.017464066528977695,669.605,0.6259999871253967,-2.2355477919707076
670.3448279999999,,0.011635952937528149,670.068,0.5370000004768372,-2.4290230035525946
670.810345,,0.0019317819620464545,670.531,0.6119999885559082,-2.2652339666954537
671.275862,,0.004689111335955346,671.001,0.6079999804496765,-2.2736031480730476
671.7413789999999,,4.060567568566887e-05,671.46,0.5929999947547913,-2.305991810259534
672.206897,,0.014712241705107739,671.931,0.6029999852180481,-2.283977887808948
672.672414,,0.024890195040642823,672.396,0.6179999709129333,-2.2511407576848357
673.137931,,0.01625869949725567,672.861,0.6150000095367432,-2.2575932107563967
673.6034480000001,,0.005589706422313115,673.32,0.6079999804496765,-2.2728368282690874
674.068966,,0.01908452994711639,673.786,0.6129999756813049,-2.262013392684619
674.5344829999999,,0.01319398705750198,674.252,0.6269999742507935,-2.231656413446305
675.0,,7.070066620262856e-05,674.717,0.5929999947547913,-2.305944480674473
675.465517,,0.004220771191234396,675.182,0.6460000276565552,-2.190753497426182
675.931034,,0.00016375208900274978,675.645,0.6039999723434448,-2.2825888961541323
676.396552,,0.00271147332947546,676.115,0.6050000190734863,-2.2807872262835334
676.862069,,0.018585255574270546,676.576,0.6079999804496765,-2.2746628586062205
677.327586,,0.034494961224810154,677.045,0.6370000243186951,-2.2119147817650386
677.793103,,0.031757337530321145,677.506,0.5709999799728394,-2.3561469926903933
678.2586210000001,,0.01075663099724432,677.975,0.6000000238418579,-2.2934038580556866
678.7241379999999,,0.007790031825090033,678.44,0.6129999756813049,-2.265502535912315
679.1896549999999,,0.008332780565789734,678.905,0.5950000286102295,-2.305108917624504
679.655172,,0.0015355806576279416,679.371,0.6079999804496765,-2.2771355378685514
680.12069,,0.0035430533444636278,679.83,0.640999972820282,-2.2055358698885383
680.5862070000001,,0.007581762621925002,680.296,0.6000000238418579,-2.2950932108544277
681.051724,,0.019968281838985174,680.761,0.5920000076293945,-2.3126863741599712
681.517241,,0.021717606891076022,681.227,0.5979999899864197,-2.2997055241473143
681.9827590000001,,0.014290091408593627,681.694,0.5910000205039978,-2.3149713286932236
