Trial: ,32
Threshold: ,0.0
Maximum EMG: ,0.0
Success: ,True

EMG Time,Raw EMG,Filtered EMG,Force Time,Raw Force (V),Filtered Force (N)
0.0,samples,0.0,0.471,0.6299999952316284,-2.22564263827248
0.46551699999999996,time,0.0,0.931,0.593999981880188,-2.303805152804553
0.9310339999999999,value,0.0,1.401,0.6399999856948853,-2.20338325732526
1.396552,,0.0,1.859,0.6449999809265137,-2.1923564038434247
1.862069,,0.0,2.33,0.5929999947547913,-2.3055873528202753
2.327586,,0.0,2.789,0.6000000238418579,-2.290356705008475
2.793103,,0.0,3.26,0.6039999723434448,-2.2817412449687358
3.258621,,0.0,3.719,0.6200000047683716,-2.2470574475856604
3.724138,,0.0,4.184,0.6150000095367432,-2.258195130236969
4.189654999999999,,0.0,4.65,0.6269999742507935,-2.2323578127261
4.655172,,0.0,5.116,0.5989999771118164,-2.293719020889263
5.12069,,0.0,5.582,0.6240000128746033,-2.239653568245369
5.586207,,0.0,6.049,0.6110000014305115,-2.2684059997400796
6.051723999999999,,0.0,6.512,0.593999981880188,-2.3058889820347517
6.517241,,0.0,6.975,0.5299999713897705,-2.445772390528693
6.982759,,0.0,7.445,0.6660000085830688,-2.1499156258662997
7.448276,,0.0,7.912,0.5860000252723694,-2.3246204088427347
7.913793000000001,,0.0,8.37,0.5879999995231628,-2.3206363960916585
8.379309999999998,,0.0,8.835,0.6050000190734863,-2.28392186626833
8.844828000000001,,0.0,9.301,0.6169999837875366,-2.2580385230856357
9.310345,,0.0,9.767,0.6190000176429749,-2.2538698629408853
9.775862,,0.0,10.234,0.6430000066757202,-2.2016921974693378
10.241379,,0.0,10.7,0.6150000095367432,-2.262721141321644
10.706897,,0.0,11.165,0.6190000176429749,-2.2539494929678843
11.172414,,0.0,11.631,0.5899999737739563,-2.3169919862313217
11.637931,,0.0,12.094,0.6209999918937683,-2.2492385252193996
12.103447999999998,,0.0,12.556,0.5929999947547913,-2.3099550068144366
12.568966000000001,,0.0,13.024,0.6209999918937683,-2.248605520278844
13.034483,,0.0,13.486,0.6100000143051147,-2.272172183687385
13.5,,0.0,13.949,0.6000000238418579,-2.2935216893512322
13.965517,,0.0,14.419,0.6010000109672546,-2.2908819118379413
14.431034,,0.0,14.885,0.6449999809265137,-2.1945499941415836
14.896552,,0.0,15.348,0.6190000176429749,-2.250726937973014
15.362069,,0.0,15.814,0.6190000176429749,-2.2502777764755035
15.827586000000002,,0.0,16.279,0.6129999756813049,-2.262934380987651
16.293103,,0.0,16.744,0.6150000095367432,-2.258209079789095
16.758621,,0.0,17.208,0.6069999933242798,-2.2753300599397916
17.224138,,0.0,17.674,0.6269999742507935,-2.2315186245840466
17.689655,,0.0,18.139,0.652999997138977,-2.174711887803639
18.155172,,0.0,18.604,0.6060000061988831,-2.2770284250711574
18.62069,,0.0,19.064,0.6240000128746033,-2.237818635041805
19.086207,,0.0,19.534,0.6039999723434448,-2.28148443575832
19.551724,,0.0,19.994,0.6499999761581421,-2.181443251605558
20.017241000000002,,0.0,20.464,0.6039999723434448,-2.281916191336721
20.482758999999998,,0.0,20.927,0.656000018119812,-2.1689520488825544
20.948276,,0.0,21.39,0.5879999995231628,-2.3174868968940188
21.413793000000002,,0.0,21.856,0.5950000286102295,-2.3026734369599255
21.87931,,0.0,22.32,0.6050000190734863,-2.281361818473792
22.344828,,0.0,22.786,0.652999997138977,-2.17728291574778
22.810344999999998,,0.0,23.253,0.6209999918937683,-2.247500161276918
23.275862,,0.0,23.719,0.6209999918937683,-2.2479892240731143
23.741379,,0.0,24.184,0.6470000147819519,-2.191806416647118
24.206897,,0.0,24.649,0.6019999980926514,-2.2902658405631056
24.672414,,0.0,25.116,0.6100000143051147,-2.2732022582203566
25.137931,,0.0,25.574,0.6150000095367432,-2.262608611024902
25.603448,,0.0,26.042,0.5960000157356262,-2.3042265019628894
26.068966,,0.0,26.504,0.6389999985694885,-2.210684334568592
26.534483,,0.0,26.972,0.6060000061988831,-2.282629914312788
27.0,,0.0,27.434,0.6079999804496765,-2.278231460575958
27.465517,,0.0,27.9,0.6019999980926514,-2.2911720251424903
27.931034,,0.0,28.37,0.6330000162124634,-2.223415585517914
28.396552,,0.0,28.835,0.625,-2.240544931326034
28.862069,,0.0,29.294,0.6039999723434448,-2.285924162430442
29.327586,,0.0,29.76,0.5929999947547913,-2.309456647580363
29.793103000000002,,0.0,30.227,0.5960000157356262,-2.3024419136938885
30.258620999999998,,0.0,30.693,0.5989999771118164,-2.295395995900634
30.724138,,0.0,31.157,0.5979999899864197,-2.297048939335757
31.189655000000002,,0.0,31.622,0.6309999823570251,-2.22462801086264
31.655172000000004,,0.0,32.09,0.6209999918937683,-2.2459046117487538
32.12069,,0.0,32.552,0.6110000014305115,-2.267212970751435
32.586207,,0.0,33.016,0.6110000014305115,-2.2667824791761593
33.051724,,0.0,33.486,0.6370000243186951,-2.2097683002414854
33.517241000000006,,0.0,33.949,0.5960000157356262,-2.298796832413053
33.982759,,0.0,34.412,0.6330000162124634,-2.2179741119089114
34.448276,,0.0,34.878,0.609000027179718,-2.270139574524566
34.913793,,0.0,35.344,0.5669999718666077,-2.36161703281838
35.37931,,0.0,35.81,0.6110000014305115,-2.2658293898086055
35.844828,,0.0,36.275,0.6230000257492065,-2.2398547714748642
36.310345,,0.0,36.734,0.6060000061988831,-2.2771517009360194
36.775862,,0.0,37.206,0.6169999837875366,-2.2535297463557367
37.241378999999995,,0.0,37.664,0.6309999823570251,-2.223444518334791
37.706897000000005,,0.0,38.131,0.6079999804496765,-2.2740291726043718
38.172414,,0.0,38.597,0.6039999723434448,-2.283265522395472
38.637931,,0.0,39.06,0.6129999756813049,-2.264209772016732
39.103448,,0.0,39.53,0.5640000104904175,-2.3715294823954594
39.568965999999996,,0.0,39.991,0.6060000061988831,-2.2805892139688853
40.034483,,0.0,40.454,0.6190000176429749,-2.252808039540652
40.5,,0.0,40.924,0.6370000243186951,-2.2140930347616523
40.965517,,0.0,41.386,0.6019999980926514,-2.2907895430703067
41.431034,,0.0,41.852,0.6349999904632568,-2.219266848133281
41.896552,,0.0,42.317,0.6330000162124634,-2.2239130038357797
42.362069000000005,,0.0,42.782,0.6700000166893005,-2.14349720847885
42.827586000000004,,0.0,43.249,0.6700000166893005,-2.1435887373651483
43.293103,,0.0,43.715,0.6129999756813049,-2.267757659638979
43.758621,,0.0,44.179,0.6449999809265137,-2.197922540257326
44.224138,,0.0,44.645,0.6050000190734863,-2.2848498762734986
44.689655,,0.0,45.105,0.6079999804496765,-2.27800258886834
45.155172,,0.0,45.576,0.6060000061988831,-2.2819656460816597
45.620689999999996,,0.0,46.038,0.6079999804496765,-2.277143487932593
46.086206999999995,,0.0,46.501,0.6209999918937683,-2.2482993878134923
46.551724,,0.0,46.964,0.6669999957084656,-2.1475178915045574
47.017241,,0.0,47.434,0.6209999918937683,-2.2471465722872126
47.482759,,0.0,47.9,0.6069999933242798,-2.2770524649502826
47.948276,,0.0,48.362,0.6069999933242798,-2.276471385317895
48.413793,,0.0,48.828,0.5960000157356262,-2.299888326181948
48.879310000000004,,0.0,49.293,0.593999981880188,-2.3037482746830276
49.344828,,0.0,49.759,0.6299999952316284,-2.2248855686629745
49.810345,,0.0,50.225,0.597000002861023,-2.296428838613349
50.275862,,0.0,50.684,0.6079999804496765,-2.2722024241386904
50.741379,,0.0,51.15,0.5830000042915344,-2.3265072420443134
51.206897,,0.0,51.616,0.6190000176429749,-2.2480198305350534
51.672414,,0.0,52.079,0.6240000128746033,-2.237176984429118
52.137931,,0.0,52.549,0.6269999742507935,-2.2307956859112577
52.603448,,0.0,53.009,0.6029999852180481,-2.2833376762361417
53.068966,,0.0,53.479,0.6240000128746033,-2.2379330583683648
53.534483,,0.0,53.942,0.6290000081062317,-2.2274685256806053
54.0,,0.0,54.404,0.5960000157356262,-2.2998611443109307
54.465517,,0.0,54.87,0.628000020980835,-2.230695291573171
54.931034,,0.0,55.334,0.6060000061988831,-2.2792130445885395
55.396552,,0.0,55.799,0.6150000095367432,-2.2602109469487592
55.862069,,0.0,56.264,0.6119999885559082,-2.2673522660231544
56.327586,,0.0,56.73,0.597000002861023,-2.3006181733399784
56.793102999999995,,0.0,57.197,0.625,-2.240164773436547
57.258621000000005,,0.0,57.662,0.6190000176429749,-2.253730026243042
57.724138,,0.0,58.127,0.6110000014305115,-2.2715815110054405
58.189655,,0.0,58.593,0.6620000004768372,-2.160807546908521
58.655172,,0.0,59.056,0.6179999709129333,-2.2569084944103404
59.120689999999996,,0.0,59.519,0.609000027179718,-2.2766528207152743
59.586207,,0.0,59.99,0.6000000238418579,-2.2962903907589847
60.051724,,0.0,60.452,0.656000018119812,-2.1742071474294664
60.517241,,0.0,60.924,0.6499999761581421,-2.1870920036978427
60.982758999999994,,0.0,61.386,0.5960000157356262,-2.3044494308181065
61.448276,,0.0,61.844,0.6669999957084656,-2.149383106415738
61.913793,,0.0,62.309,0.5979999899864197,-2.299246384003197
62.379310000000004,,0.0,62.775,0.6179999709129333,-2.255143936233223
62.84482800000001,,0.0,63.242,0.578000009059906,-2.341712133130622
63.310345000000005,,0.0,63.708,0.6209999918937683,-2.247422693867427
63.775862000000004,,0.0,64.171,0.5929999947547913,-2.307806016832717
64.241379,,0.0,64.638,0.6000000238418579,-2.291944646607849
64.706897,,0.0,65.101,0.6190000176429749,-2.2499665659039314
65.172414,,0.0,65.571,0.6039999723434448,-2.282107257003378
65.637931,,0.0,66.034,0.6179999709129333,-2.2511283780140072
66.103448,,0.0,66.497,0.6349999904632568,-2.213689205748582
66.56896599999999,,0.0,66.96,0.6039999723434448,-2.280913247407131
67.03448300000001,,0.0,67.43,0.6359999775886536,-2.2109804375253512
67.5,,0.0,67.896,0.6110000014305115,-2.2653354159136834
67.965517,,0.0,68.359,0.6179999709129333,-2.2500824051892527
68.431034,,0.0,68.824,0.6100000143051147,-2.267618274472383
68.896552,,0.0,69.29,0.6169999837875366,-2.2525807890909686
69.362069,,0.0,69.755,0.6169999837875366,-2.252893467276022
69.827586,,0.0,70.22,0.6620000004768372,-2.155256075486537
70.293103,,0.0,70.679,0.6039999723434448,-2.282095945969772
70.75862099999999,,0.0,71.146,0.6169999837875366,-2.2543143701590624
71.22413800000001,,0.0,71.612,0.6179999709129333,-2.252723348324734
71.689655,,0.0,72.075,0.6420000195503235,-2.201051148260803
72.15517200000001,,0.0,72.544,0.6060000061988831,-2.280106698447294
72.62069,,0.0,73.007,0.6000000238418579,-2.293793096380082
73.086207,,0.0,73.469,0.652999997138977,-2.178910552422186
73.551724,,0.0,73.939,0.6079999804496765,-2.27748765746842
74.017241,,0.0,74.401,0.6269999742507935,-2.236566838363077
74.482759,,0.0,74.866,0.515999972820282,-2.478793491840782
74.94827599999999,,0.0,75.33,0.593999981880188,-2.309168349918979
75.41379300000001,,0.0,75.796,0.6129999756813049,-2.267985345013762
75.87931,,0.0,76.261,0.6460000276565552,-2.1961931327944137
76.344828,,0.0,76.726,0.6190000176429749,-2.2550072558837684
76.810345,,0.0,77.194,0.652999997138977,-2.180810646324633
77.275862,,0.0,77.659,0.593999981880188,-2.309118991457676
77.741379,,0.0,78.124,0.5419999957084656,-2.4220766996269534
78.206897,,0.0,78.59,0.6039999723434448,-2.2865802663472965
78.67241399999999,,0.0,79.053,0.652999997138977,-2.179328315373621
79.137931,,0.0,79.516,0.593999981880188,-2.307305881965599
79.603448,,0.0,79.979,0.621999979019165,-2.2456941609215773
80.068966,,0.0,80.449,0.6119999885559082,-2.2668432243796346
80.53448300000001,,0.0,80.92,0.6179999709129333,-2.2531254565056305
81.0,,0.0,81.375,0.6079999804496765,-2.274277636897992
81.465517,,0.0,81.841,0.5979999899864197,-2.29546158713341
81.931034,,0.0,82.308,0.6269999742507935,-2.2317288541237383
82.396552,,0.0,82.774,0.6150000095367432,-2.257387837162538
82.86206899999999,,0.0,83.238,0.5950000286102295,-2.300558839181117
83.327586,,0.0,83.704,0.6370000243186951,-2.2087494219293955
83.79310299999999,,0.0,84.164,0.6169999837875366,-2.2521211912332526
84.258621,,0.0,84.63,0.593999981880188,-2.3021407810423575
84.72413800000001,,0.0,85.097,0.6029999852180481,-2.2825598858055596
85.189655,,0.0,85.56,0.625,-2.234772182457934
85.65517200000001,,0.0,86.027,0.6190000176429749,-2.2480975076572642
86.12069,,0.0,86.489,0.6100000143051147,-2.2680623029070834
86.586207,,0.0,86.957,0.6549999713897705,-2.170472627551246
87.051724,,0.0,87.42,0.6060000061988831,-2.2777542482345594
87.517241,,0.0,87.885,0.625,-2.2369509668453986
87.98275899999999,,0.0,88.355,0.6370000243186951,-2.2114433819865775
88.448276,,0.0,88.821,0.5899999737739563,-2.3145021765704095
88.913793,,0.0,89.279,0.6179999709129333,-2.254168834109498
89.37931,,0.0,89.745,0.6209999918937683,-2.248287528783705
89.844828,,0.0,90.209,0.6069999933242798,-2.279408537256732
90.310345,,0.0,90.675,0.6399999856948853,-2.2080788604747954
90.775862,,0.0,91.142,0.6039999723434448,-2.287003811634895
91.241379,,0.0,91.607,0.5960000157356262,-2.3048396158877957
91.706897,,0.0,92.075,0.5979999899864197,-2.3007902155017708
92.17241399999999,,0.0,92.538,0.6290000081062317,-2.233450517790791
92.63793100000001,,0.0,93.001,0.6200000047683716,-2.2531397271721563
93.103448,,0.0,93.464,0.597000002861023,-2.3032099753697923
93.568966,,0.0,93.934,0.6039999723434448,-2.2878022205276327
94.03448300000001,,0.0,94.397,0.6470000147819519,-2.193847912376396
94.5,,0.0,94.863,0.6079999804496765,-2.2784347460793013
94.965517,,0.0,95.327,0.6330000162124634,-2.2234909722891207
95.431034,,0.0,95.792,0.6060000061988831,-2.2817546950420113
95.896552,,0.0,96.257,0.5950000286102295,-2.3050952099129116
96.36206899999999,,0.0,96.723,0.6100000143051147,-2.2717457507640697
96.827586,,0.0,97.187,0.6119999885559082,-2.2666935938266697
97.293103,,0.0,97.653,0.5960000157356262,-2.3008530556029037
97.758621,,0.0,98.119,0.5929999947547913,-2.3067083289596626
98.224138,,0.0,98.585,0.5989999771118164,-2.2929952005790604
98.689655,,0.0,99.046,0.593999981880188,-2.303306396936846
99.155172,,0.0,99.516,0.6110000014305115,-2.2657643698732937
99.62069,,0.0,99.979,0.6150000095367432,-2.2566370841751895
100.086207,,0.0,100.442,0.6069999933242798,-2.2737586424971945
100.551724,,0.0,100.907,0.6019999980926514,-2.28445941460756
101.017241,,0.0,101.371,0.593999981880188,-2.3018182750855556
101.482759,,0.0,101.837,0.656000018119812,-2.166795579966009
101.948276,,0.0,102.302,0.6119999885559082,-2.262831405860037
102.413793,,0.0,102.767,0.6119999885559082,-2.2631238597909378
102.87931,,0.0,103.234,0.6489999890327454,-2.182915315046887
103.344828,,0.0,103.7,0.6000000238418579,-2.290167371491842
103.810345,,0.0,104.165,0.6259999871253967,-2.2341036863275248
104.275862,,0.0,104.631,0.6039999723434448,-2.2826809778199033
104.741379,,0.0,105.094,0.6499999761581421,-2.183156032793743
105.206897,,0.0,105.556,0.5509999990463257,-2.399560805012711
105.672414,,0.0,106.024,0.5960000157356262,-2.302245949342628
106.13793100000001,,0.0,106.486,0.625,-2.2397729069335925
106.603448,,0.0,106.949,0.6179999709129333,-2.2556910519471463
107.068966,,0.0,107.419,0.6039999723434448,-2.2867987839393455
107.534483,,0.0,107.885,0.6370000243186951,-2.2154301402144103
108.0,,0.0,108.348,0.6119999885559082,-2.2703265375779127
108.46551699999999,,0.0,108.814,0.6019999980926514,-2.292433140565652
108.931034,,0.0,109.279,0.6269999742507935,-2.2381671522089337
109.396552,,0.0,109.745,0.6420000195503235,-2.205559792170786
109.862069,,0.0,110.209,0.6309999823570251,-2.2294661084659215
110.32758600000001,,0.0,110.674,0.6499999761581421,-2.1878824773893877
110.793103,,0.0,111.139,0.6629999876022339,-2.159244809273045
111.258621,,0.0,111.604,0.597000002861023,-2.30260412603755
111.724138,,0.0,112.068,0.6190000176429749,-2.254140688343946
112.189655,,0.0,112.531,0.609000027179718,-2.2753090432156857
112.655172,,0.0,112.994,0.5929999947547913,-2.30948333098406
113.12069,,0.0,113.464,0.5849999785423279,-2.3261840153888382
113.586207,,0.0,113.927,0.6620000004768372,-2.157676348782593
114.051724,,0.0,114.39,0.6169999837875366,-2.254961900777206
114.51724100000001,,0.0,114.855,0.6179999709129333,-2.2520508056220265
114.982759,,0.0,115.32,0.625,-2.2361121582109633
115.448276,,0.0,115.786,0.5960000157356262,-2.298670874013336
115.913793,,0.0,116.253,0.5960000157356262,-2.298135030543819
116.37931,,0.0,116.718,0.6019999980926514,-2.284630713424215
116.84482799999999,,0.0,117.182,0.5960000157356262,-2.297386952852996
117.310345,,0.0,117.648,0.5419999957084656,-2.414846402393715
117.77586199999999,,0.0,118.109,0.6309999823570251,-2.2208934780478784
118.241379,,0.0,118.578,0.5540000200271606,-2.388731696618452
118.70689700000001,,0.0,119.046,0.4390000104904175,-2.639495213511453
119.172414,,0.0,119.508,0.6060000061988831,-2.276012127892476
119.63793100000001,,0.0,119.972,0.5879999995231628,-2.3156969751691925
120.103448,,0.0,120.434,0.6169999837875366,-2.2530855178666584
120.568966,,0.0,120.9,0.6209999918937683,-2.245021884596636
121.034483,,0.0,121.37,0.6119999885559082,-2.2653416380124716
121.5,,0.0,121.835,0.6499999761581421,-2.1833033512348625
121.96551699999999,,0.0,122.294,0.5960000157356262,-2.30171576209411
122.431034,,0.0,122.76,0.6000000238418579,-2.2937593825631777
122.896552,,0.0,123.228,0.6129999756813049,-2.2661654422419795
123.362069,,0.0,123.693,0.5960000157356262,-2.3038783888540366
123.827586,,0.0,124.161,0.609000027179718,-2.2761589909763074
124.293103,,0.0,124.619,0.6179999709129333,-2.2570626489028984
124.758621,,0.0,125.09,0.6060000061988831,-2.2836101152862325
125.22413800000001,,0.0,125.552,0.593999981880188,-2.31003834182806
125.68965500000002,,0.0,126.02,0.6159999966621399,-2.262264729793
126.15517200000001,,0.0,126.482,0.5929999947547913,-2.312397870347567
126.62069000000001,,0.0,126.95,0.593999981880188,-2.310110796369378
127.086207,,0.0,127.412,0.6460000276565552,-2.19658271599978
127.55172400000001,,0.0,127.878,0.6119999885559082,-2.2702950091136347
128.017241,,0.0,128.344,0.628000020980835,-2.2349623108722962
128.48275900000002,,0.0,128.809,0.625,-2.2409265325734236
128.948276,,0.0,129.275,0.6399999856948853,-2.2075948165080344
129.413793,,0.0,129.74,0.5879999995231628,-2.320173018240878
129.87931,,0.0,130.205,0.5960000157356262,-2.3019963349926598
130.344828,,0.0,130.67,0.6039999723434448,-2.2838075181948314
130.81034499999998,,0.0,131.135,0.6060000061988831,-2.278701128841363
131.275862,,0.0,131.601,0.5540000200271606,-2.391276351420764
131.741379,,0.0,132.064,0.6340000033378601,-2.216326784149909
132.206897,,0.0,132.526,0.6079999804496765,-2.272389450162676
132.67241399999997,,0.0,132.99,0.6039999723434448,-2.280614484079423
133.13793099999998,,0.0,133.46,0.6140000224113464,-2.258446294935734
133.60344800000001,,0.0,133.924,0.6349999904632568,-2.2124319624635955
134.06896600000002,,0.0,134.386,0.6079999804496765,-2.2711189648635806
134.53448300000002,,0.0,134.851,0.6190000176429749,-2.2471478314390283
135.0,,0.0,135.316,0.6060000061988831,-2.275595368429854
135.465517,,0.0,135.782,0.6150000095367432,-2.256239678647649
135.931034,,0.0,136.25,0.6330000162124634,-2.217394898394401
136.396552,,0.0,136.715,0.5429999828338623,-2.413952401362619
136.862069,,0.0,137.18,0.6150000095367432,-2.257663517842965
137.327586,,0.0,137.645,0.6069999933242798,-2.27574293621443
137.793103,,0.0,138.108,0.6240000128746033,-2.2394108052400092
138.258621,,0.0,138.571,0.6110000014305115,-2.2684709392035467
138.724138,,0.0,139.038,0.6269999742507935,-2.2343601127275843
139.189655,,0.0,139.501,0.597000002861023,-2.300454060722058
139.655172,,0.0,139.964,0.609000027179718,-2.275009814841227
140.12069,,0.0,140.434,0.6050000190734863,-2.2843678156119553
140.586207,,0.0,140.9,0.5889999866485596,-2.3197939553742795
141.05172399999998,,0.0,141.362,0.6370000243186951,-2.2156930819547322
141.51724099999998,,0.0,141.828,0.593999981880188,-2.3097409652359375
141.982759,,0.0,142.293,0.6209999918937683,-2.2511638611597915
142.44827600000002,,0.0,142.759,0.6119999885559082,-2.2708912540045096
142.913793,,0.0,143.223,0.6129999756813049,-2.2687015618845536
143.37931,,0.0,143.689,0.652999997138977,-2.1814137575876655
143.844828,,0.0,144.154,0.6449999809265137,-2.198573682705981
144.310345,,0.0,144.62,0.6079999804496765,-2.2787956773570905
144.77586200000002,,0.0,145.083,0.593999981880188,-2.3088040525560944
145.241379,,0.0,145.545,0.6570000052452087,-2.17096720071811
145.706897,,0.0,146.016,0.6460000276565552,-2.194277500795539
146.172414,,0.0,146.478,0.6140000224113464,-2.2632868786887204
146.637931,,0.0,146.939,0.6320000290870667,-2.223334300810038
147.103448,,0.0,147.408,0.6169999837875366,-2.2552709710231045
147.568966,,0.0,147.874,0.6269999742507935,-2.232758211673418
148.034483,,0.0,148.338,0.6060000061988831,-2.2778232355464407
148.5,,0.0,148.803,0.6230000257492065,-2.240160930835414
148.965517,,0.0,149.268,0.5839999914169312,-2.3245842318481684
149.43103399999998,,0.0,149.733,0.609000027179718,-2.269672377597695
149.89655199999999,,0.0,150.201,0.6029999852180481,-2.2824108805064913
150.362069,,0.0,150.659,0.5960000157356262,-2.297449880596418
150.82758600000003,,0.0,151.131,0.5929999947547913,-2.3039030410641526
151.293103,,0.0,151.59,0.5720000267028809,-2.3497032081293305
151.758621,,0.0,152.06,0.5929999947547913,-2.3041301391365168
152.224138,,0.0,152.523,0.6349999904632568,-2.212928005720375
152.68965500000002,,0.0,152.987,0.6179999709129333,-2.250377290855913
153.155172,,0.0,153.449,0.6079999804496765,-2.2726737809488715
153.62069,,0.0,153.92,0.6069999933242798,-2.2754446675707234
154.086207,,0.0,154.382,0.6470000147819519,-2.188953871982832
154.551724,,0.0,154.848,0.5360000133514404,-2.4314820735283744
155.017241,,0.0,155.313,0.5879999995231628,-2.3189139156547087
155.482759,,0.0,155.778,0.609000027179718,-2.2738843552207646
155.948276,,0.0,156.245,0.6169999837875366,-2.257153436429638
156.413793,,0.0,156.711,0.6060000061988831,-2.2817704860978263
156.87931,,0.0,157.176,0.6299999952316284,-2.230068225428311
157.34482799999998,,0.0,157.635,0.5960000157356262,-2.3046427624250176
157.81034499999998,,0.0,158.105,0.6190000176429749,-2.2549345981567637
158.275862,,0.0,158.568,0.5540000200271606,-2.396836663442319
158.741379,,0.0,159.031,0.6190000176429749,-2.255395553429433
159.20689700000003,,0.0,159.501,0.6060000061988831,-2.283764384112445
159.672414,,0.0,159.964,0.6060000061988831,-2.2836842408583458
160.137931,,0.0,160.427,0.5899999737739563,-2.3183394945904845
160.60344800000001,,0.0,160.892,0.6460000276565552,-2.196015046296812
161.06896600000002,,0.0,161.355,0.6000000238418579,-2.2958056233863333
161.534483,,0.0,161.82,0.6060000061988831,-2.282213445780509
162.0,,0.0,162.287,0.6190000176429749,-2.253294651592189
162.465517,,0.0,162.752,0.6290000081062317,-2.230854015552812
162.931034,,0.0,163.219,0.6380000114440918,-2.2105541173013545
163.396552,,0.0,163.685,0.7039999961853027,-2.0660535229154826
163.862069,,0.0,164.15,0.6209999918937683,-2.246175321645303
164.327586,,0.0,164.616,0.6060000061988831,-2.2781771895239027
164.793103,,0.0,165.079,0.6079999804496765,-2.273193966645964
165.258621,,0.0,165.542,0.5960000157356262,-2.298783808865839
165.72413799999998,,0.0,166.005,0.6389999985694885,-2.2046372318232694
166.189655,,0.0,166.475,0.6029999852180481,-2.2827069706588334
166.655172,,0.0,166.938,0.6000000238418579,-2.288996069172729
167.12069,,0.0,167.401,0.6119999885559082,-2.2627286252597236
167.58620699999997,,0.0,167.866,0.5929999947547913,-2.3041258377797513
168.051724,,0.0,168.331,0.6119999885559082,-2.2628607209723293
168.517241,,0.0,168.796,0.6539999842643738,-2.1716073660021933
168.98275900000002,,0.0,169.261,0.6119999885559082,-2.2634717906225057
169.44827600000002,,0.0,169.727,0.6119999885559082,-2.263933226669236
169.913793,,0.0,170.194,0.6200000047683716,-2.247051420002804
170.37931,,0.0,170.659,0.6169999837875366,-2.2542029623005564
170.844828,,0.0,171.124,0.6190000176429749,-2.250509452483708
171.310345,,0.0,171.59,0.6060000061988831,-2.2795230943095133
171.775862,,0.0,172.053,0.6620000004768372,-2.15821459962706
172.241379,,0.0,172.516,0.6000000238418579,-2.293968507059214
172.706897,,0.0,172.979,0.6060000061988831,-2.281535899646651
173.172414,,0.0,173.449,0.6010000109672546,-2.293010755523541
173.637931,,0.0,173.915,0.652999997138977,-2.1802257649608316
174.103448,,0.0,174.378,0.6779999732971191,-2.1261692533925585
174.568966,,0.0,174.844,0.6069999933242798,-2.281154559326016
175.034483,,0.0,175.308,0.6079999804496765,-2.2791617262551243
175.5,,0.0,175.774,0.6190000176429749,-2.2552623910630687
175.96551699999998,,0.0,176.238,0.6420000195503235,-2.205096862423215
176.43103399999998,,0.0,176.703,0.578000009059906,-2.344353665365163
176.896552,,0.0,177.168,0.5950000286102295,-2.307027249224141
177.36206900000002,,0.0,177.634,0.6420000195503235,-2.204238011811416
177.827586,,0.0,178.094,0.6119999885559082,-2.269112586090229
178.293103,,0.0,178.564,0.6389999985694885,-2.2097271626246062
178.758621,,0.0,179.027,0.5929999947547913,-2.3093246723870458
179.224138,,0.0,179.489,0.6119999885559082,-2.2672721674389624
179.68965500000002,,0.0,179.957,0.6100000143051147,-2.270954537867434
180.155172,,0.0,180.42,0.6010000109672546,-2.2898921129082446
180.62069,,0.0,180.885,0.6230000257492065,-2.241317262055211
181.086207,,0.0,181.349,0.6520000100135803,-2.1775367779820565
181.551724,,0.0,181.814,0.6039999723434448,-2.2815754320131583
182.01724099999998,,0.0,182.279,0.5929999947547913,-2.305085334613081
182.482759,,0.0,182.745,0.6290000081062317,-2.226295006097715
182.948276,,0.0,183.212,0.593999981880188,-2.3022957635460157
183.413793,,0.0,183.677,0.6039999723434448,-2.2803723278282972
183.87931,,0.0,184.142,0.5950000286102295,-2.2999626175587737
184.34482799999998,,0.0,184.608,0.5960000157356262,-2.297886430271233
184.81034499999998,,0.0,185.071,0.6039999723434448,-2.2806759818359668
185.27586200000002,,0.0,185.541,0.625,-2.235251115455918
185.74137900000002,,0.0,186.001,0.621999979019165,-2.242210490517244
186.206897,,0.0,186.464,0.6100000143051147,-2.2688603270149397
186.672414,,0.0,186.931,0.6100000143051147,-2.2694333754562424
187.137931,,0.0,187.394,0.6549999713897705,-2.1720152263369132
187.60344800000001,,0.0,187.861,0.6190000176429749,-2.251094561236021
188.06896600000002,,0.0,188.327,0.6460000276565552,-2.1929255867935415
188.534483,,0.0,188.793,0.6539999842643738,-2.176136420290616
189.0,,0.0,189.257,0.6060000061988831,-2.2813168300925524
189.465517,,0.0,189.723,0.6150000095367432,-2.262262228778895
189.931034,,0.0,190.19,0.6190000176429749,-2.254032130193929
190.39655199999999,,0.0,190.649,0.6110000014305115,-2.271862011026001
190.862069,,0.0,191.116,0.6100000143051147,-2.2743453791824
191.327586,,0.0,191.582,0.6079999804496765,-2.2789025771094886
191.793103,,0.0,192.045,0.628000020980835,-2.2354181968321503
192.25862099999998,,0.0,192.516,0.5960000157356262,-2.3051100010163186
192.72413799999998,,0.0,192.979,0.6069999933242798,-2.281008007699225
193.189655,,0.0,193.441,0.621999979019165,-2.2480840208538293
193.655172,,0.0,193.907,0.6140000224113464,-2.265168818362922
194.12069000000002,,0.0,194.371,0.6079999804496765,-2.2778077016334404
194.586207,,0.0,194.837,0.6539999842643738,-2.1770812830246298
195.051724,,0.0,195.304,0.5950000286102295,-2.305053188279754
195.517241,,0.0,195.77,0.6079999804496765,-2.2761219390077256
195.98275900000002,,0.0,196.235,0.593999981880188,-2.30599364339822
196.448276,,0.0,196.701,0.6150000095367432,-2.259611812756545
196.913793,,0.0,197.161,0.6330000162124634,-2.219784129734283
197.37931,,0.0,197.626,0.6039999723434448,-2.282389844407072
197.844828,,0.0,198.09,0.6100000143051147,-2.268798006283182
198.310345,,0.0,198.56,0.6230000257492065,-2.240027283083287
198.775862,,0.0,199.02,0.6159999966621399,-2.254914625390176
199.241379,,0.0,199.49,0.5839999914169312,-2.3243649243229925
199.706897,,0.0,199.953,0.640999972820282,-2.2000206025665965
200.172414,,0.0,200.416,0.6129999756813049,-2.2609703008933044
200.63793099999998,,0.0,200.881,0.6320000290870667,-2.21963322394257
201.103448,,0.0,201.345,0.6100000143051147,-2.267728901554005
201.568966,,0.0,201.81,0.6019999980926514,-2.285426644522119
202.034483,,0.0,202.275,0.6019999980926514,-2.2857903427771205
202.5,,0.0,202.74,0.5929999947547913,-2.305845728676591
202.965517,,0.0,203.205,0.6010000109672546,-2.288933759239233
203.431034,,0.0,203.671,0.6499999761581421,-2.1827494723245002
203.896552,,0.0,204.138,0.5730000138282776,-2.3511083883280133
204.36206900000002,,0.0,204.604,0.6570000052452087,-2.1687197381265735
204.827586,,0.0,205.064,0.6000000238418579,-2.2935152930056413
205.293103,,0.0,205.534,0.593999981880188,-2.307175994020839
205.758621,,0.0,205.997,0.5910000205039978,-2.3142595725215274
206.224138,,0.0,206.46,0.6290000081062317,-2.2319599895942046
206.689655,,0.0,206.924,0.4779999852180481,-2.561352629706628
207.155172,,0.0,207.393,0.6069999933242798,-2.280640373905947
207.62069,,0.0,207.859,0.6100000143051147,-2.2743422556076656
208.086207,,0.0,208.323,0.5400000214576721,-2.426981131508492
208.551724,,0.0,208.788,0.6299999952316284,-2.230928348952701
209.01724099999998,,0.0,209.253,0.6169999837875366,-2.2591658105103423
209.482759,,0.0,209.719,0.5669999718666077,-2.36790501464366
209.948276,,0.0,210.184,0.6190000176429749,-2.254320751285787
210.413793,,0.0,210.649,0.6449999809265137,-2.197288150819365
210.87930999999998,,0.0,211.116,0.6060000061988831,-2.2817852149042768
211.344828,,0.0,211.574,0.5989999771118164,-2.2964992134646804
211.810345,,0.0,212.042,0.6269999742507935,-2.234911528308255
212.27586200000002,,0.0,212.504,0.5669999718666077,-2.36501489375544
212.741379,,0.0,212.975,0.6069999933242798,-2.2772437632527076
213.206897,,0.0,213.437,0.6690000295639038,-2.1415511531123386
213.672414,,0.0,213.903,0.5419999957084656,-2.4176511880909395
214.137931,,0.0,214.366,0.6060000061988831,-2.2776781089411617
214.60344800000001,,0.0,214.832,0.6449999809265137,-2.192236821232428
215.068966,,0.0,215.297,0.6290000081062317,-2.2266994258929063
215.534483,,0.0,215.763,0.593999981880188,-2.302648051619272
216.0,,0.0,216.227,0.6050000190734863,-2.2784815325873007
216.465517,,0.0,216.693,0.6119999885559082,-2.2631393553698564
216.93103399999998,,0.0,217.157,0.5979999899864197,-2.293661274288386
217.39655199999999,,0.0,217.622,0.6060000061988831,-2.276365209984891
217.862069,,0.0,218.09,0.6029999852180481,-2.283142688523368
218.327586,,0.0,218.552,0.6010000109672546,-2.2878422374931002
218.793103,,0.0,219.016,0.5879999995231628,-2.3165974691965294
219.25862099999998,,0.0,219.486,0.6230000257492065,-2.2408541285209145
219.724138,,0.0,219.949,0.6309999823570251,-2.2239937897142825
220.18965500000002,,0.0,220.412,0.6169999837875366,-2.255104227617614
220.65517200000002,,0.0,220.877,0.6460000276565552,-2.19255375337732
221.12069,,0.0,221.344,0.6179999709129333,-2.2541873143375604
221.586207,,0.0,221.81,0.6370000243186951,-2.2134050768576983
222.051724,,0.0,222.269,0.6510000228881836,-2.1834773207389198
222.517241,,0.0,222.734,0.6060000061988831,-2.282032839557098
222.98275900000002,,0.0,223.201,0.6129999756813049,-2.2672265354724686
223.448276,,0.0,223.666,0.6069999933242798,-2.2806571097464765
223.913793,,0.0,224.131,0.6330000162124634,-2.2242736580846443
224.37931,,0.0,224.596,0.671999990940094,-2.139460705384524
224.844828,,0.0,225.064,0.5929999947547913,-2.311615736028928
225.31034499999998,,0.0,225.527,0.6190000176429749,-2.2549003910106946
225.775862,,0.0,225.99,0.6579999923706055,-2.1697525213399365
226.241379,,0.0,226.46,0.6150000095367432,-2.2631481465565124
226.706897,,0.0,226.92,0.6000000238418579,-2.2954461513429427
227.172414,,0.0,227.39,0.6100000143051147,-2.273195763361411
227.63793099999998,,0.0,227.855,0.6449999809265137,-2.196410857792371
228.103448,,0.0,228.319,0.6069999933242798,-2.278614892952458
228.56896600000002,,0.0,228.784,0.6110000014305115,-2.2692824405851177
229.03448300000002,,0.0,229.249,0.6079999804496765,-2.2751874626246082
229.5,,0.0,229.715,0.609000027179718,-2.272384499269817
229.965517,,0.0,230.175,0.6060000061988831,-2.2783227559602333
230.431034,,0.0,230.641,0.6600000262260437,-2.1601222670880946
230.896552,,0.0,231.109,0.6190000176429749,-2.2489540762619074
231.362069,,0.0,231.571,0.5899999737739563,-2.3117193328111973
231.827586,,0.0,232.034,0.6060000061988831,-2.2765370419408413
232.293103,,0.0,232.504,0.5929999947547913,-2.304637897802479
232.758621,,0.0,232.968,0.6499999761581421,-2.1803416162676243
233.224138,,0.0,233.43,0.6050000190734863,-2.2783781997318635
233.689655,,0.0,233.896,0.5989999771118164,-2.2915592137594527
234.155172,,0.0,234.366,0.6330000162124634,-2.217702627387916
234.62069,,0.0,234.824,0.6460000276565552,-2.189698005389903
235.086207,,0.0,235.291,0.6050000190734863,-2.2794303987078304
235.55172399999998,,0.0,235.756,0.6499999761581421,-2.1818766000000727
236.01724099999998,,0.0,236.223,0.6190000176429749,-2.2499619825327306
236.482759,,0.0,236.688,0.6039999723434448,-2.283234657171059
236.94827600000002,,0.0,237.153,0.6140000224113464,-2.26206878472944
237.413793,,0.0,237.619,0.6480000019073486,-2.1886231990789597
237.87931,,0.0,238.082,0.6200000047683716,-2.250240901301488
238.344828,,0.0,238.545,0.6140000224113464,-2.2638966264392626
238.810345,,0.0,239.012,0.5709999799728394,-2.358114117446487
239.27586200000002,,0.0,239.474,0.6359999775886536,-2.2169727209073513
239.741379,,0.0,239.942,0.6110000014305115,-2.271829029623255
240.206897,,0.0,240.405,0.6069999933242798,-2.280840575309113
240.672414,,0.0,240.871,0.6039999723434448,-2.2875715548363877
241.137931,,0.0,241.335,0.6209999918937683,-2.2506211324643566
241.603448,,0.0,241.801,0.6000000238418579,-2.2963479574947816
242.068966,,0.0,242.267,0.6060000061988831,-2.2831409160283553
242.534483,,0.0,242.733,0.6110000014305115,-2.272006166043902
243.0,,0.0,243.198,0.6000000238418579,-2.295630681007209
243.465517,,0.0,243.665,0.6209999918937683,-2.2494498600420836
243.93103399999998,,0.0,244.124,0.6019999980926514,-2.2903392663347173
244.39655199999999,,0.0,244.59,0.6060000061988831,-2.2810599520435293
244.862069,,0.0,245.057,0.5960000157356262,-2.3022398554537786
245.327586,,0.0,245.52,0.6359999775886536,-2.2144639329126465
245.793103,,0.0,245.99,0.6169999837875366,-2.2552234145073307
246.258621,,0.0,246.453,0.6600000262260437,-2.160920750718208
246.724138,,0.0,246.923,0.6460000276565552,-2.1908338585020157
247.18965500000002,,0.0,247.379,0.5770000219345093,-2.3406249480352512
247.655172,,0.0,247.844,0.6439999938011169,-2.194190659252347
248.12069,,0.0,248.309,0.6159999966621399,-2.2548129998875135
248.586207,,0.0,248.775,0.515999972820282,-2.4723970455060287
249.051724,,0.0,249.242,0.6370000243186951,-2.2086094543082857
249.517241,,0.0,249.708,0.6200000047683716,-2.2455888759838314
249.982759,,0.0,250.175,0.5920000076293945,-2.30664757236359
250.44827600000002,,0.0,250.634,0.6190000176429749,-2.247994034761266
250.913793,,0.0,251.101,0.6499999761581421,-2.1807333106388276
251.37931000000003,,0.0,251.571,0.5989999771118164,-2.292219833199964
251.844828,,0.0,252.034,0.5989999771118164,-2.2926831274735266
252.31034499999998,,0.0,252.497,0.5929999947547913,-2.3062928946015617
252.77586200000002,,0.0,252.965,0.6169999837875366,-2.2546009059970977
253.241379,,0.0,253.427,0.5979999899864197,-2.2966294223637367
253.706897,,0.0,253.892,0.6460000276565552,-2.192706492170476
254.172414,,0.0,254.355,0.5479999780654907,-2.406864578032969
254.63793099999998,,0.0,254.821,0.6370000243186951,-2.2135937226563094
255.10344800000001,,0.0,255.286,0.5680000185966492,-2.364508155975372
255.56896600000002,,0.0,255.752,0.652999997138977,-2.17984991939096
256.03448299999997,,0.0,256.217,0.6449999809265137,-2.1977268079222667
256.5,,0.0,256.682,0.5239999890327454,-2.4616984461489047
256.965517,,0.0,257.149,0.6520000100135803,-2.1830847159839655
257.431034,,0.0,257.615,0.6119999885559082,-2.2703724251486888
257.896552,,0.0,258.079,0.6579999923706055,-2.1701779907954366
258.362069,,0.0,258.541,0.593999981880188,-2.3095159610792493
258.827586,,0.0,259.005,0.6169999837875366,-2.259196256271031
259.29310300000003,,0.0,259.474,0.6100000143051147,-2.2741276890004682
259.758621,,0.0,259.935,0.6399999856948853,-2.208350064350685
260.224138,,0.0,260.404,0.6119999885559082,-2.268847396580518
260.689655,,0.0,260.87,0.6240000128746033,-2.24212812860201
261.155172,,0.0,261.334,0.6209999918937683,-2.248036306132744
261.62068999999997,,0.0,261.8,0.6060000061988831,-2.2800557376549233
262.086207,,0.0,262.264,0.5929999947547913,-2.307707159129442
262.551724,,0.0,262.729,0.6330000162124634,-2.219900546972821
263.017241,,0.0,263.194,0.5929999947547913,-2.306416800683382
263.482759,,0.0,263.659,0.6460000276565552,-2.1903691009726622
263.94827599999996,,0.0,264.124,0.6370000243186951,-2.209465615481919
264.413793,,0.0,264.59,0.5879999995231628,-2.315792620689108
264.87931,,0.0,265.053,0.6349999904632568,-2.2130685822967413
265.34482799999995,,0.0,265.516,0.6060000061988831,-2.2760314606506027
265.810345,,0.0,265.979,0.6100000143051147,-2.2672158604156447
266.27586199999996,,0.0,266.449,0.5929999947547913,-2.3042730810831356
266.741379,,0.0,266.92,0.6150000095367432,-2.2564838269451557
267.206897,,0.0,267.375,0.6129999756813049,-2.261098508611808
267.672414,,0.0,267.841,0.6119999885559082,-2.263642467641785
268.137931,,0.0,268.304,0.6200000047683716,-2.246675192442813
268.603448,,0.0,268.77,0.6100000143051147,-2.2690057245393778
269.06896600000005,,0.0,269.234,0.6230000257492065,-2.241292367558586
269.53448299999997,,0.0,269.7,0.6169999837875366,-2.255019193555449
270.0,,0.0,270.164,0.5960000157356262,-2.3014510926360563
270.465517,,0.0,270.63,0.6299999952316284,-2.2280616922678353
270.931034,,0.0,271.097,0.593999981880188,-2.307160156080062
271.396552,,0.0,271.56,0.6010000109672546,-2.29253846748622
271.86206899999996,,0.0,272.027,0.593999981880188,-2.308360375397416
272.327586,,0.0,272.489,0.6039999723434448,-2.2870692495698215
272.793103,,0.0,272.957,0.5789999961853027,-2.3419390908230944
273.258621,,0.0,273.42,0.6420000195503235,-2.204982558784174
273.724138,,0.0,273.885,0.6060000061988831,-2.2835960744843256
274.18965499999996,,0.0,274.356,0.6349999904632568,-2.2204745351388007
274.655172,,0.0,274.814,0.6299999952316284,-2.2313015722281775
275.12069,,0.0,275.279,0.6489999890327454,-2.1897166211794805
275.586207,,0.0,275.745,0.625,-2.241694689814615
276.051724,,0.0,276.211,0.6179999709129333,-2.2565272024465663
276.517241,,0.0,276.677,0.6470000147819519,-2.1928328351581543
276.98275900000004,,0.0,277.145,0.6000000238418579,-2.2946366404743093
277.448276,,0.0,277.604,0.5960000157356262,-2.3026993680819365
277.913793,,0.0,278.072,0.597000002861023,-2.2998313414376756
278.37931,,0.0,278.534,0.6359999775886536,-2.2141583309968698
278.844828,,0.0,279.001,0.5929999947547913,-2.3071398688231306
279.31034500000004,,0.0,279.464,0.6179999709129333,-2.2520014519429323
279.77586199999996,,0.0,279.935,0.6039999723434448,-2.281879969127764
280.241379,,0.0,280.397,0.6110000014305115,-2.2660762743700107
280.706897,,0.0,280.863,0.6060000061988831,-2.27650371154116
281.172414,,0.0,281.327,0.5210000276565552,-2.461326945662414
281.637931,,0.0,281.792,0.6629999876022339,-2.1517130851267754
282.10344799999996,,0.0,282.257,0.640999972820282,-2.199518393950084
282.568966,,0.0,282.723,0.593999981880188,-2.3019137927927034
283.034483,,0.0,283.19,0.6169999837875366,-2.25192965287629
283.5,,0.0,283.649,0.5989999771118164,-2.291392659110491
283.965517,,0.0,284.12,0.5979999899864197,-2.2939337223103053
284.431034,,0.0,284.579,0.6050000190734863,-2.2791496260835875
284.89655200000004,,0.0,285.049,0.6499999761581421,-2.181665356620727
285.362069,,0.0,285.512,0.5989999771118164,-2.293401341215052
285.827586,,0.0,285.975,0.6549999713897705,-2.172072241167352
286.293103,,0.0,286.445,0.6000000238418579,-2.2926020703197154
286.758621,,0.0,286.911,0.6150000095367432,-2.260634130108309
287.22413800000004,,0.0,287.376,0.6330000162124634,-2.2221154070995133
287.689655,,0.0,287.834,0.6539999842643738,-2.1770226703199897
288.155172,,0.0,288.301,0.5950000286102295,-2.306162728656211
288.62069,,0.0,288.767,0.6420000195503235,-2.2042890967775977
289.086207,,0.0,289.232,0.6700000166893005,-2.143715090089134
289.55172400000004,,0.0,289.698,0.5680000185966492,-2.3662572242904094
290.01724099999996,,0.0,290.164,0.6110000014305115,-2.2727793852450096
290.482759,,0.0,290.63,0.6240000128746033,-2.2445386317921017
290.948276,,0.0,291.093,0.6169999837875366,-2.2597447557582395
291.413793,,0.0,291.556,0.652999997138977,-2.181143270740524
291.87931,,0.0,292.024,0.6370000243186951,-2.2157102167631777
292.344828,,0.0,292.486,0.6019999980926514,-2.2915599681963332
292.81034500000004,,0.0,292.949,0.6010000109672546,-2.2932381540797944
293.275862,,0.0,293.419,0.6060000061988831,-2.2817633409619793
293.74137900000005,,0.0,293.885,0.6240000128746033,-2.2419026081657334
294.206897,,0.0,294.348,0.6460000276565552,-2.193282808031582
294.672414,,0.0,294.813,0.5429999828338623,-2.4169722079545557
295.13793100000004,,0.0,295.279,0.593999981880188,-2.3051522332262877
295.603448,,0.0,295.745,0.6620000004768372,-2.156318796074981
296.068966,,0.0,296.205,0.6420000195503235,-2.19924839634985
296.534483,,0.0,296.67,0.6039999723434448,-2.2814560833086475
297.0,,0.0,297.135,0.6240000128746033,-2.2373838801368198
297.46551700000003,,0.0,297.6,0.5649999976158142,-2.365523850272303
297.931034,,0.0,298.068,0.6019999980926514,-2.2846259988010593
298.396552,,0.0,298.53,0.6340000033378601,-2.2147421162764216
298.862069,,0.0,298.994,0.6970000267028809,-2.0774430116553755
299.327586,,0.0,299.464,0.6060000061988831,-2.2757791677246058
299.79310300000003,,0.0,299.927,0.6000000238418579,-2.2890533030255056
300.258621,,0.0,300.39,0.6489999890327454,-2.182620001874478
300.724138,,0.0,300.855,0.6069999933242798,-2.274551114607582
301.189655,,0.0,301.32,0.6539999842643738,-2.1726765093522173
301.65517200000005,,0.0,301.785,0.6200000047683716,-2.2473500328666343
302.12069,,0.0,302.25,0.6359999775886536,-2.2131503835145265
302.586207,,0.0,302.716,0.6309999823570251,-2.224741247995992
303.05172400000004,,0.0,303.183,0.6209999918937683,-2.2472427739832708
303.517241,,0.0,303.648,0.6449999809265137,-2.195665547782223
303.982759,,0.0,304.109,0.6240000128746033,-2.2421003533612653
304.448276,,0.0,304.579,0.6240000128746033,-2.24273560856022
304.913793,,0.0,305.042,0.6000000238418579,-2.295591501209698
305.37931000000003,,0.0,305.504,0.6169999837875366,-2.2590387916673604
305.844828,,0.0,305.972,0.6209999918937683,-2.2507088488755556
306.310345,,0.0,306.434,0.6029999852180481,-2.290197342331876
306.775862,,0.0,306.9,0.6610000133514404,-2.1639872992360716
307.241379,,0.0,307.37,0.6010000109672546,-2.294731086198533
307.70689699999997,,0.0,307.836,0.6549999713897705,-2.176981168399567
308.172414,,0.0,308.294,0.6209999918937683,-2.250827120940406
308.637931,,0.0,308.759,0.6050000190734863,-2.2853396147161615
309.103448,,0.0,309.224,0.6499999761581421,-2.1868477805824
309.568966,,0.0,309.69,0.6140000224113464,-2.2647325773252267
310.034483,,0.0,310.156,0.675000011920929,-2.1312109022255097
310.5,,0.0,310.622,0.6029999852180481,-2.287390987547607
310.96551700000003,,0.0,311.09,0.6060000061988831,-2.2801363029160253
311.431034,,0.0,311.552,0.6060000061988831,-2.279405183070408
311.896552,,0.0,312.02,0.6079999804496765,-2.2743270011019527
312.362069,,0.0,312.482,0.6200000047683716,-2.2474944912387094
312.827586,,0.0,312.945,0.6340000033378601,-2.216357671641882
313.29310300000003,,0.0,313.416,0.4650000035762787,-2.583988795528556
313.758621,,0.0,313.874,0.6119999885559082,-2.263262660064467
314.224138,,0.0,314.345,0.6119999885559082,-2.262905783281917
314.689655,,0.0,314.81,0.6389999985694885,-2.203840871940667
315.155172,,0.0,315.275,0.5820000171661377,-2.327905413080349
315.62068999999997,,0.0,315.74,0.6449999809265137,-2.1906591385131917
316.086207,,0.0,316.206,0.5809999704360962,-2.330227823651304
316.551724,,0.0,316.664,0.5979999899864197,-2.2934491040765965
317.017241,,0.0,317.131,0.6209999918937683,-2.2437138834622896
317.482759,,0.0,317.597,0.6169999837875366,-2.252904872470263
317.94827599999996,,0.0,318.06,0.5839999914169312,-2.3253649041865097
318.413793,,0.0,318.53,0.6190000176429749,-2.249748192066228
318.87931000000003,,0.0,318.994,0.6449999809265137,-2.193790061020359
319.344828,,0.0,319.456,0.6169999837875366,-2.2555072007585393
319.810345,,0.0,319.92,0.6169999837875366,-2.2562290110866163
320.275862,,0.0,320.39,0.6179999709129333,-2.254757363206155
320.741379,,0.0,320.855,0.5929999947547913,-2.309894405068058
321.20689699999997,,0.0,321.319,0.6079999804496765,-2.2778295020415245
321.672414,,0.0,321.785,0.640999972820282,-2.2064732615627474
322.137931,,0.0,322.25,0.6299999952316284,-2.230884044924208
322.603448,,0.0,322.716,0.6209999918937683,-2.2508304567008928
323.068966,,0.0,323.175,0.6079999804496765,-2.2793748606232325
323.53448299999997,,0.0,323.641,0.6060000061988831,-2.283831434959268
324.0,,0.0,324.109,0.6179999709129333,-2.2576616250054506
324.465517,,0.0,324.571,0.6100000143051147,-2.274939864759471
324.931034,,0.0,325.034,0.6069999933242798,-2.2812051140606284
325.396552,,0.0,325.504,0.6449999809265137,-2.1980338087344777
325.86206899999996,,0.0,325.968,0.5899999737739563,-2.317376465406316
326.327586,,0.0,326.431,0.6370000243186951,-2.2144117682261997
326.793103,,0.0,326.896,0.6230000257492065,-2.2442768401022932
327.258621,,0.0,327.359,0.6309999823570251,-2.2261628972770806
327.724138,,0.0,327.825,0.6150000095367432,-2.260308941582175
328.189655,,0.0,328.29,0.6190000176429749,-2.250876946660563
328.655172,,0.0,328.755,0.6179999709129333,-2.252355505804017
329.12068999999997,,0.0,329.221,0.640999972820282,-2.2015846696344146
329.586207,,0.0,329.686,0.6269999742507935,-2.2314819589250203
330.051724,,0.0,330.153,0.6169999837875366,-2.2527416304144636
330.517241,,0.0,330.619,0.5960000157356262,-2.2980606673086226
330.982759,,0.0,331.082,0.5910000205039978,-2.3086300336017604
331.44827599999996,,0.0,331.545,0.6190000176429749,-2.2474226254776504
331.913793,,0.0,332.016,0.6179999709129333,-2.2495200525854746
332.37931,,0.0,332.478,0.6060000061988831,-2.275708463222968
332.844828,,0.0,332.946,0.5960000157356262,-2.297664781370962
333.310345,,0.0,333.408,0.6060000061988831,-2.2761683114503932
333.77586199999996,,0.0,333.874,0.6069999933242798,-2.27439050184658
334.241379,,0.0,334.337,0.6060000061988831,-2.2770679641995115
334.706897,,0.0,334.803,0.6370000243186951,-2.2101105060180015
335.17241399999995,,0.0,335.267,0.6420000195503235,-2.199860503364257
335.637931,,0.0,335.733,0.6140000224113464,-2.2615482142450993
336.103448,,0.0,336.198,0.7009999752044678,-2.0727117957312005
336.56896600000005,,0.0,336.664,0.6060000061988831,-2.2803870949351492
337.034483,,0.0,337.124,0.6579999923706055,-2.167778176896317
337.5,,0.0,337.589,0.5989999771118164,-2.2969566206114487
337.965517,,0.0,338.057,0.6010000109672546,-2.2931764462904463
338.431034,,0.0,338.519,0.6019999980926514,-2.29149761158758
338.89655200000004,,0.0,338.99,0.6039999723434448,-2.2875474739681803
339.36206899999996,,0.0,339.453,0.5989999771118164,-2.298742792454386
339.827586,,0.0,339.92,0.6179999709129333,-2.257536177351468
340.293103,,0.0,340.382,0.5989999771118164,-2.298997901819658
340.758621,,0.0,340.848,0.6100000143051147,-2.274977926546925
341.224138,,0.0,341.312,0.6190000176429749,-2.2551946628601214
341.68965499999996,,0.0,341.778,0.6579999923706055,-2.1699354520731178
342.155172,,0.0,342.243,0.6570000052452087,-2.1717129780360827
342.62069,,0.0,342.708,0.5830000042915344,-2.3324358664766476
343.086207,,0.0,343.176,0.628000020980835,-2.233820718798381
343.551724,,0.0,343.634,0.6370000243186951,-2.213575545428623
344.01724099999996,,0.0,344.105,0.6259999871253967,-2.2368606983376806
344.48275900000004,,0.0,344.567,0.5979999899864197,-2.297161795624088
344.948276,,0.0,345.035,0.6169999837875366,-2.2550678988449406
345.413793,,0.0,345.497,0.6209999918937683,-2.245676473291626
345.87931,,0.0,345.96,0.6060000061988831,-2.2777227023311903
346.344828,,0.0,346.43,0.6200000047683716,-2.2466511301852177
346.81034500000004,,0.0,346.896,0.5680000185966492,-2.35945156431299
347.275862,,0.0,347.358,0.640999972820282,-2.200017405976119
347.741379,,0.0,347.824,0.625,-2.2345897557321925
348.206897,,0.0,348.29,0.6010000109672546,-2.2867065191935785
348.672414,,0.0,348.756,0.6520000100135803,-2.1755451292722565
349.13793100000004,,0.0,349.215,0.6190000176429749,-2.247511321903302
349.60344799999996,,0.0,349.681,0.5989999771118164,-2.2912746055226485
350.068966,,0.0,350.146,0.628000020980835,-2.2283981989126627
350.534483,,0.0,350.612,0.656000018119812,-2.1678041655766562
351.0,,0.0,351.075,0.6100000143051147,-2.2685204744788203
351.465517,,0.0,351.545,0.6290000081062317,-2.22770041319142
351.93103399999995,,0.0,352.009,0.6050000190734863,-2.280621049344732
352.396552,,0.0,352.471,0.6290000081062317,-2.229006085633429
352.862069,,0.0,352.935,0.6110000014305115,-2.2689131860227763
353.32758600000005,,0.0,353.404,0.6290000081062317,-2.230386413648041
353.793103,,0.0,353.87,0.5929999947547913,-2.3094835310904056
354.258621,,0.0,354.334,0.6110000014305115,-2.270890638665106
354.72413800000004,,0.0,354.8,0.6499999761581421,-2.1864834738580963
355.189655,,0.0,355.264,0.6330000162124634,-2.2239991902106007
355.655172,,0.0,355.73,0.6129999756813049,-2.267955358136919
356.12069,,0.0,356.195,0.5720000267028809,-2.357557462468398
356.586207,,0.0,356.66,0.6449999809265137,-2.1986803598765916
357.05172400000004,,0.0,357.12,0.6019999980926514,-2.292406853556857
357.517241,,0.0,357.586,0.5979999899864197,-2.30104545692488
357.982759,,0.0,358.053,0.6290000081062317,-2.2333133396251266
358.448276,,0.0,358.516,0.6039999723434448,-2.287473036474387
358.913793,,0.0,358.979,0.6449999809265137,-2.197738052864234
359.37931000000003,,0.0,359.449,0.6449999809265137,-2.19723542928572
359.844828,,0.0,359.915,0.5950000286102295,-2.305588440011111
360.310345,,0.0,360.378,0.597000002861023,-2.3005947253634176
360.775862,,0.0,360.844,0.5669999718666077,-2.365281590387847
361.241379,,0.0,361.309,0.621999979019165,-2.2447675818412924
361.706897,,0.0,361.774,0.6079999804496765,-2.2745845086635903
362.172414,,0.0,362.239,0.6190000176429749,-2.2499593578721586
362.63793100000004,,0.0,362.705,0.6230000257492065,-2.2406289007648783
363.103448,,0.0,363.164,0.6489999890327454,-2.1834302505967518
363.568966,,0.0,363.63,0.5960000157356262,-2.2984235835617874
364.034483,,0.0,364.094,0.6470000147819519,-2.18693136107005
364.5,,0.0,364.563,0.6069999933242798,-2.273801694469233
364.96551700000003,,0.0,365.031,0.6069999933242798,-2.2736404887219615
365.431034,,0.0,365.493,0.597000002861023,-2.2953861867757994
365.896552,,0.0,365.957,0.5929999947547913,-2.3041822340468614
366.362069,,0.0,366.419,0.6230000257492065,-2.239023664283833
366.827586,,0.0,366.885,0.6129999756813049,-2.261123804916914
367.29310300000003,,0.0,367.355,0.6269999742507935,-2.2310388130484746
367.758621,,0.0,367.821,0.6019999980926514,-2.2860110877250515
368.224138,,0.0,368.279,0.6190000176429749,-2.249555030622877
368.689655,,0.0,368.744,0.6069999933242798,-2.2763371547357543
369.155172,,0.0,369.216,0.6330000162124634,-2.220367923860091
369.62068999999997,,0.0,369.674,0.6370000243186951,-2.212344978592417
370.086207,,0.0,370.139,0.6759999990463257,-2.128062899225573
370.55172400000004,,0.0,370.605,0.6100000143051147,-2.27251128855704
371.017241,,0.0,371.075,0.652999997138977,-2.1794403821760047
371.482759,,0.0,371.537,0.6029999852180481,-2.288919342464155
371.948276,,0.0,372.005,0.6190000176429749,-2.2545271395364295
372.413793,,0.0,372.467,0.6000000238418579,-2.296294139468898
372.87931000000003,,0.0,372.931,0.6570000052452087,-2.172378381177491
373.344828,,0.0,373.401,0.6449999809265137,-2.198674363964882
373.810345,,0.0,373.859,0.6190000176429749,-2.2553515786024274
374.275862,,0.0,374.331,0.5960000157356262,-2.3053739701594815
374.741379,,0.0,374.789,0.6449999809265137,-2.1984178915199397
375.20689699999997,,0.0,375.26,0.5929999947547913,-2.3113952666175606
375.672414,,0.0,375.719,0.6029999852180481,-2.289196791832537
376.137931,,0.0,376.184,0.6069999933242798,-2.279983546655949
376.603448,,0.0,376.649,0.6570000052452087,-2.1704795935877135
377.068966,,0.0,377.117,0.6650000214576721,-2.1524212222342407
377.53448299999997,,0.0,377.583,0.6000000238418579,-2.2933656192114373
378.0,,0.0,378.045,0.5960000157356262,-2.3013963872455943
378.465517,,0.0,378.516,0.5929999947547913,-2.307254623006169
378.931034,,0.0,378.979,0.6240000128746033,-2.239064864885226
379.396552,,0.0,379.441,0.6060000061988831,-2.2776739967125756
379.862069,,0.0,379.907,0.6449999809265137,-2.1921627854367656
380.327586,,0.0,380.371,0.6169999837875366,-2.2526993745430377
380.79310300000003,,0.0,380.837,0.6050000190734863,-2.2784703947142404
381.258621,,0.0,381.302,0.6100000143051147,-2.2673094140151466
381.724138,,0.0,381.767,0.6359999775886536,-2.2105093619706984
382.189655,,0.0,382.234,0.6079999804496765,-2.2714728242133924
382.655172,,0.0,382.7,0.5809999704360962,-2.3303763544219103
383.12068999999997,,0.0,383.165,0.5920000076293945,-2.3066086086478785
383.586207,,0.0,383.631,0.6200000047683716,-2.245914865357205
384.051724,,0.0,384.093,0.6169999837875366,-2.2528595437540164
384.517241,,0.0,384.556,0.6169999837875366,-2.253355550418474
384.982759,,0.0,385.024,0.6010000109672546,-2.2887824253574443
385.44827599999996,,0.0,385.486,0.6129999756813049,-2.2632628615310155
385.913793,,0.0,385.949,0.6100000143051147,-2.2704594079739064
386.37931,,0.0,386.419,0.6370000243186951,-2.2123123922561283
386.84482799999995,,0.0,386.885,0.5960000157356262,-2.3023087258122232
387.310345,,0.0,387.348,0.6240000128746033,-2.241953599321553
387.775862,,0.0,387.814,0.5879999995231628,-2.3209882481127977
388.241379,,0.0,388.279,0.6179999709129333,-2.25617034191663
388.70689699999997,,0.0,388.745,0.6100000143051147,-2.2740625838735373
389.172414,,0.0,389.205,0.6349999904632568,-2.2199665068514323
389.637931,,0.0,389.67,0.5929999947547913,-2.3117357248554677
390.103448,,0.0,390.136,0.6039999723434448,-2.2879254197656635
390.56896600000005,,0.0,390.602,0.6629999876022339,-2.1594234053113093
391.03448299999997,,0.0,391.064,0.5929999947547913,-2.311848568817544
391.5,,0.0,391.534,0.5929999947547913,-2.3116538244305076
391.965517,,0.0,391.997,0.6010000109672546,-2.2939225894272663
392.431034,,0.0,392.46,0.6079999804496765,-2.278271670860929
392.896552,,0.0,392.931,0.5960000157356262,-2.3039285178265017
393.36206899999996,,0.0,393.393,0.5809999704360962,-2.3360504318020845
393.827586,,0.0,393.859,0.6299999952316284,-2.2286843239555045
394.293103,,0.0,394.324,0.6489999890327454,-2.1866400039728076
394.75862099999995,,0.0,394.79,0.6200000047683716,-2.24915157874699
395.224138,,0.0,395.249,0.6129999756813049,-2.263734851544465
395.68965499999996,,0.0,395.715,0.6269999742507935,-2.2325890666294756
396.155172,,0.0,396.18,0.6499999761581421,-2.181876780736684
396.62069,,0.0,396.645,0.5929999947547913,-2.3055160042726626
397.086207,,0.0,397.12,0.5929999947547913,-2.3050501066863522
397.551724,,0.0,397.578,0.5960000157356262,-2.2981412305695685
398.017241,,0.0,398.039,0.6660000085830688,-2.1453658080722438
398.48275900000004,,0.0,398.508,0.6119999885559082,-2.2628523195232484
398.94827599999996,,0.0,398.972,0.6370000243186951,-2.2083399611006342
399.413793,,0.0,399.434,0.5950000286102295,-2.2999140339214454
399.87931,,0.0,399.9,0.6000000238418579,-2.2892074145800754
400.344828,,0.0,400.37,0.5989999771118164,-2.2916835967331033
400.810345,,0.0,400.836,0.6309999823570251,-2.2223653957395797
401.27586199999996,,0.0,401.301,0.6110000014305115,-2.2664251790328485
401.741379,,0.0,401.759,0.6150000095367432,-2.2582709579231675
402.206897,,0.0,402.224,0.6079999804496765,-2.2741388591311664
402.672414,,0.0,402.69,0.6269999742507935,-2.233399815369741
403.137931,,0.0,403.157,0.6060000061988831,-2.2798245498309773
403.60344799999996,,0.0,403.622,0.6579999923706055,-2.1672048895465177
404.068966,,0.0,404.09,0.6259999871253967,-2.237567353490443
404.534483,,0.0,404.553,0.6050000190734863,-2.283921259162006
405.0,,0.0,405.016,0.6320000290870667,-2.225639370182484
405.465517,,0.0,405.486,0.5989999771118164,-2.297999506651176
405.931034,,0.0,405.946,0.6809999942779541,-2.119722909624835
406.39655200000004,,0.0,406.416,0.6069999933242798,-2.2812113984362625
406.862069,,0.0,406.874,0.6110000014305115,-2.2726541045409525
407.327586,,0.0,407.345,0.6000000238418579,-2.29666216508
407.793103,,0.0,407.81,0.6299999952316284,-2.23122990296759
408.258621,,0.0,408.275,0.6119999885559082,-2.2702586018386084
408.72413800000004,,0.0,408.74,0.6449999809265137,-2.198067215598941
409.18965499999996,,0.0,409.205,0.6050000190734863,-2.284816982653315
409.655172,,0.0,409.671,0.6259999871253967,-2.238581665046051
410.12069,,0.0,410.135,0.5789999961853027,-2.340422278602448
410.586207,,0.0,410.601,0.640999972820282,-2.204735089679219
411.05172400000004,,0.0,411.064,0.6150000095367432,-2.260731290493999
411.51724099999996,,0.0,411.526,0.628000020980835,-2.2317417605122305
411.982759,,0.0,411.99,0.6060000061988831,-2.2790070980373085
412.448276,,0.0,412.46,0.640999972820282,-2.202111559144292
412.913793,,0.0,412.924,0.6140000224113464,-2.260333201302347
413.37931,,0.0,413.386,0.6240000128746033,-2.2380044109697232
413.844828,,0.0,413.852,0.6190000176429749,-2.2484314095005242
414.31034500000004,,0.0,414.316,0.6140000224113464,-2.258948684842087
414.775862,,0.0,414.782,0.6129999756813049,-2.26085342580667
415.241379,,0.0,415.25,0.6050000190734863,-2.278119031523484
415.706897,,0.0,415.715,0.6150000095367432,-2.2562846433523114
416.172414,,0.0,416.176,0.593999981880188,-2.302105583267019
416.63793100000004,,0.0,416.641,0.6190000176429749,-2.247823665360465
417.103448,,0.0,417.105,0.6150000095367432,-2.2568316963127795
417.568966,,0.0,417.575,0.6019999980926514,-2.2855475700976395
418.034483,,0.0,418.038,0.6039999723434448,-2.2816722656720225
418.5,,0.0,418.501,0.5929999947547913,-2.306193519064695
418.96551700000003,,0.0,418.964,0.6150000095367432,-2.258876599781732
419.43103399999995,,0.0,419.434,0.6359999775886536,-2.2137759583830863
419.896552,,0.0,419.9,0.6499999761581421,-2.1839420450484743
420.362069,,0.0,420.362,0.6060000061988831,-2.280465624107883
420.827586,,0.0,420.828,0.6019999980926514,-2.2898206155849956
421.293103,,0.0,421.293,0.6190000176429749,-2.253382511498803
421.758621,,0.0,421.759,0.6150000095367432,-2.2626361148555327
422.22413800000004,,0.0,422.223,0.6579999923706055,-2.169415994627099
422.689655,,0.0,422.689,0.6079999804496765,-2.2787185212946706
423.15517200000005,,0.0,423.149,0.6209999918937683,-2.250664131536977
423.62069,,0.0,423.615,0.6480000019073486,-2.191998684835105
424.086207,,0.0,424.079,0.5799999833106995,-2.3401904251612224
424.55172400000004,,0.0,424.549,0.6129999756813049,-2.2682243143869405
425.017241,,0.0,425.012,0.6620000004768372,-2.1612869198560007
425.482759,,0.0,425.475,0.5950000286102295,-2.306964518459652
425.948276,,0.0,425.945,0.6000000238418579,-2.2956816292676603
426.413793,,0.0,426.408,0.6019999980926514,-2.290849878863933
426.87931000000003,,0.0,426.873,0.6209999918937683,-2.248910107615699
427.344828,,0.0,427.337,0.621999979019165,-2.2461308614214417
427.810345,,0.0,427.802,0.6060000061988831,-2.280351466820573
428.275862,,0.0,428.269,0.6240000128746033,-2.240480455559291
428.741379,,0.0,428.734,0.6019999980926514,-2.287757680683524
429.20689699999997,,0.0,429.201,0.6169999837875366,-2.254446981960389
429.672414,,0.0,429.659,0.5849999785423279,-2.323574297142932
430.137931,,0.0,430.124,0.6159999966621399,-2.2555061898618267
430.603448,,0.0,430.59,0.6019999980926514,-2.2855523947112077
431.068966,,0.0,431.06,0.6110000014305115,-2.265578026364013
431.534483,,0.0,431.523,0.6029999852180481,-2.282740014139245
432.0,,0.0,431.986,0.6010000109672546,-2.2869372850731806
432.46551700000003,,0.0,432.449,0.6370000243186951,-2.208457308916404
432.931034,,0.0,432.915,0.5830000042915344,-2.326168155969584
433.396552,,0.0,433.386,0.6349999904632568,-2.213052718116402
433.862069,,0.0,433.844,0.593999981880188,-2.302656567708547
434.327586,,0.0,434.309,0.5979999899864197,-2.2943179745992244
434.79310300000003,,0.0,434.774,0.6179999709129333,-2.2512066090767764
435.258621,,0.0,435.242,0.6290000081062317,-2.2277734352332943
435.724138,,0.0,435.708,0.6039999723434448,-2.282825813834859
436.189655,,0.0,436.172,0.593999981880188,-2.3052355908274187
436.655172,,0.0,436.638,0.6449999809265137,-2.1947661243817405
437.12068999999997,,0.0,437.101,0.6209999918937683,-2.247693092128656
437.586207,,0.0,437.564,0.6060000061988831,-2.2809910403004587
438.051724,,0.0,438.034,0.6209999918937683,-2.248890672693948
438.517241,,0.0,438.497,0.6190000176429749,-2.2537708594475414
438.982759,,0.0,438.96,0.625,-2.24114971671811
439.448276,,0.0,439.43,0.6489999890327454,-2.1892267045551144
439.913793,,0.0,439.896,0.5960000157356262,-2.304962753352174
440.37931000000003,,0.0,440.359,0.6010000109672546,-2.2942340965357584
440.844828,,0.0,440.824,0.6290000081062317,-2.2332890465844355
441.310345,,0.0,441.29,0.6169999837875366,-2.2593802240685137
441.775862,,0.0,441.756,0.6179999709129333,-2.2570409238576317
442.241379,,0.0,442.216,0.6460000276565552,-2.1957746925135737
442.70689699999997,,0.0,442.681,0.5960000157356262,-2.3043480569412913
443.172414,,0.0,443.146,0.6309999823570251,-2.2276528069439894
443.637931,,0.0,443.612,0.6039999723434448,-2.2859639036380623
444.103448,,0.0,444.075,0.6480000019073486,-2.1895360304812583
444.568966,,0.0,444.545,0.6110000014305115,-2.2695407106742915
445.03448299999997,,0.0,445.005,0.6209999918937683,-2.247129415817855
445.5,,0.0,445.476,0.640999972820282,-2.2029308996396844
445.965517,,0.0,445.938,0.6119999885559082,-2.265503745312033
446.431034,,0.0,446.4,0.6309999823570251,-2.2235376623385905
446.896552,,0.0,446.866,0.6119999885559082,-2.2644136798749277
447.36206899999996,,0.0,447.33,0.6060000061988831,-2.2770365925654747
447.827586,,0.0,447.796,0.6660000085830688,-2.145950813101966
448.29310300000003,,0.0,448.26,0.5960000157356262,-2.298181539840528
448.758621,,0.0,448.726,0.6449999809265137,-2.1912538436454763
449.224138,,0.0,449.191,0.6320000290870667,-2.2195077049629113
449.689655,,0.0,449.657,0.5879999995231628,-2.31540760131604
450.155172,,0.0,450.123,0.6539999842643738,-2.1717630727612875
450.62068999999997,,0.0,450.589,0.6100000143051147,-2.2678714695986164
451.086207,,0.0,451.049,0.6320000290870667,-2.2202830334458517
451.551724,,0.0,451.519,0.5989999771118164,-2.292604628799895
452.017241,,0.0,451.983,0.6290000081062317,-2.227742643193317
452.482759,,0.0,452.445,0.6060000061988831,-2.2784054885193146
452.94827599999996,,0.0,452.911,0.6330000162124634,-2.2201752336473675
453.413793,,0.0,453.377,0.6420000195503235,-2.2011814040224507
453.87931,,0.0,453.842,0.6179999709129333,-2.254084953412711
454.344828,,0.0,454.309,0.6110000014305115,-2.2699355054020103
454.810345,,0.0,454.775,0.6060000061988831,-2.2813958492647557
455.27586199999996,,0.0,455.235,0.6079999804496765,-2.2775560448553644
455.741379,,0.0,455.7,0.6340000033378601,-2.221362918681402
456.206897,,0.0,456.168,0.550000011920929,-2.404742644959242
456.672414,,0.0,456.633,0.6389999985694885,-2.211127321592884
457.137931,,0.0,457.095,0.6570000052452087,-2.1720966313579093
457.603448,,0.0,457.565,0.597000002861023,-2.302894424275294
458.06896600000005,,0.0,458.027,0.6259999871253967,-2.2396853475468466
458.53448299999997,,0.0,458.49,0.6060000061988831,-2.2831242300572567
459.0,,0.0,458.96,0.6299999952316284,-2.2306006943018684
459.465517,,0.0,459.423,0.6079999804496765,-2.2782001684911592
459.931034,,0.0,459.888,0.6190000176429749,-2.2538194276475982
460.39655200000004,,0.0,460.351,0.6140000224113464,-2.264225119495567
460.86206899999996,,0.0,460.817,0.6539999842643738,-2.176533611819159
461.327586,,0.0,461.283,0.6299999952316284,-2.2282329913190178
461.793103,,0.0,461.749,0.5389999747276306,-2.4258790180393563
462.258621,,0.0,462.216,0.6240000128746033,-2.2400804472541345
462.724138,,0.0,462.674,0.593999981880188,-2.3048420067496678
463.18965499999996,,0.0,463.139,0.6309999823570251,-2.2236660719426404
463.655172,,0.0,463.605,0.6190000176429749,-2.2492922745373893
464.12069,,0.0,464.075,0.6209999918937683,-2.244481109532666
464.58620699999994,,0.0,464.538,0.6370000243186951,-2.2092457354123165
465.051724,,0.0,465.001,0.6150000095367432,-2.256887189724965
465.517241,,0.0,465.464,0.6000000238418579,-2.2893755447662367
465.98275900000004,,0.0,465.935,0.5989999771118164,-2.2914671661856993
466.448276,,0.0,466.397,0.6159999966621399,-2.254449747264597
466.913793,,0.0,466.863,0.6019999980926514,-2.2850762641395908
467.37931,,0.0,467.327,0.6169999837875366,-2.252623826929245
467.844828,,0.0,467.792,0.6060000061988831,-2.276911013636173
468.31034500000004,,0.0,468.257,0.6100000143051147,-2.2686035996601284
468.77586199999996,,0.0,468.723,0.6269999742507935,-2.232046365651199
469.241379,,0.0,469.191,0.6240000128746033,-2.239119308313415
469.706897,,0.0,469.649,0.6179999709129333,-2.252769454004487
470.172414,,0.0,470.116,0.5979999899864197,-2.296944899895644
470.63793100000004,,0.0,470.582,0.6150000095367432,-2.2605171031370954
471.10344799999996,,0.0,471.049,0.6330000162124634,-2.221898558540324
471.568966,,0.0,471.512,0.6050000190734863,-2.2834673641889345
472.034483,,0.0,471.975,0.6460000276565552,-2.1946617968675595
472.5,,0.0,472.445,0.6060000061988831,-2.28226353264007
472.965517,,0.0,472.911,0.625,-2.241248363217978
473.43103399999995,,0.0,473.369,0.6539999842643738,-2.1783583815396366
473.89655200000004,,0.0,473.834,0.6169999837875366,-2.2591615435269534
474.362069,,0.0,474.302,0.6660000085830688,-2.1524974648233446
474.827586,,0.0,474.767,0.6110000014305115,-2.2723070584645484
475.293103,,0.0,475.234,0.6600000262260437,-2.165432134510399
475.758621,,0.0,475.7,0.6129999756813049,-2.26760679197245
476.22413800000004,,0.0,476.164,0.6499999761581421,-2.1866810289189145
476.689655,,0.0,476.63,0.6060000061988831,-2.2821421352083524
477.155172,,0.0,477.09,0.6439999938011169,-2.198882978004176
477.62069,,0.0,477.56,0.6290000081062317,-2.231035129256659
478.086207,,0.0,478.023,0.6340000033378601,-2.2195731229390856
478.55172400000004,,0.0,478.486,0.5979999899864197,-2.297412579293191
479.01724099999996,,0.0,478.953,0.6470000147819519,-2.1900618368374345
479.482759,,0.0,479.415,0.593999981880188,-2.3049463244315858
479.948276,,0.0,479.881,0.6209999918937683,-2.245569742524249
480.413793,,0.0,480.345,0.6010000109672546,-2.2886374758942494
480.87931000000003,,0.0,480.81,0.609000027179718,-2.2707659233622106
481.344828,,0.0,481.275,0.6179999709129333,-2.25079166569826
481.810345,,0.0,481.741,0.6200000047683716,-2.246153659234449
482.275862,,0.0,482.208,0.5929999947547913,-2.304790749195988
482.74137900000005,,0.0,482.674,0.6370000243186951,-2.208843115723136
483.206897,,0.0,483.139,0.656000018119812,-2.167461873830566
483.672414,,0.0,483.605,0.6000000238418579,-2.289578034889928
484.13793100000004,,0.0,484.068,0.6100000143051147,-2.2679998939695856
484.603448,,0.0,484.53,0.5960000157356262,-2.2988001123681134
485.068966,,0.0,484.998,0.6190000176429749,-2.2490716493250633
485.534483,,0.0,485.46,0.6200000047683716,-2.2473424377122986
486.0,,0.0,485.927,0.6060000061988831,-2.2783478536563235
486.46551700000003,,0.0,486.39,0.6449999809265137,-2.193924219836828
486.931034,,0.0,486.856,0.625,-2.2380627801076707
487.396552,,0.0,487.32,0.6240000128746033,-2.2408119949969456
487.862069,,0.0,487.785,0.6129999756813049,-2.2653363168323652
488.327586,,0.0,488.25,0.6079999804496765,-2.2767610259534536
488.79310300000003,,0.0,488.716,0.5929999947547913,-2.3099294944766124
489.258621,,0.0,489.183,0.6119999885559082,-2.268967082963979
489.724138,,0.0,489.648,0.6069999933242798,-2.280222334018273
490.189655,,0.0,490.109,0.6230000257492065,-2.2456449415564324
490.655172,,0.0,490.579,0.6579999923706055,-2.169583122096859
491.12069,,0.0,491.041,0.6000000238418579,-2.296039416986201
491.586207,,0.0,491.504,0.6010000109672546,-2.2938584493833982
492.05172400000004,,0.0,491.972,0.6190000176429749,-2.2545445468726233
492.517241,,0.0,492.434,0.6320000290870667,-2.226030424236292
492.982759,,0.0,492.9,0.6200000047683716,-2.2518946757777236
493.448276,,0.0,493.37,0.6200000047683716,-2.251536099840049
493.913793,,0.0,493.829,0.6320000290870667,-2.224965784779725
494.37931000000003,,0.0,494.294,0.6190000176429749,-2.252806766468618
494.844828,,0.0,494.759,0.6169999837875366,-2.2566426410411955
495.310345,,0.0,495.224,0.6269999742507935,-2.234310632134972
495.775862,,0.0,495.69,0.6179999709129333,-2.2533652378954656
496.241379,,0.0,496.157,0.6100000143051147,-2.270250351443213
496.70689699999997,,0.0,496.623,0.6159999966621399,-2.2566604376789914
497.172414,,0.0,497.09,0.640999972820282,-2.201717044179861
497.637931,,0.0,497.552,0.6100000143051147,-2.2688324066993872
498.103448,,0.0,498.02,0.5960000157356262,-2.2989787961763697
498.568966,,0.0,498.482,0.6150000095367432,-2.2573088787944466
499.03448299999997,,0.0,498.95,0.6079999804496765,-2.2723706004707083
499.5,,0.0,499.413,0.6460000276565552,-2.1894841107860086
499.96551700000003,,0.0,499.878,0.6079999804496765,-2.272268267458349
500.431034,,0.0,500.344,0.6079999804496765,-2.2723571798995743
500.89655200000004,,0.0,500.81,0.6060000061988831,-2.2768945272307266
501.362069,,0.0,501.275,0.5920000076293945,-2.307661417829492
501.827586,,0.0,501.741,0.6169999837875366,-2.253538428750899
502.293103,,0.0,502.205,0.6039999723434448,-2.282270314521018
502.758621,,0.0,502.664,0.6119999885559082,-2.265303922745667
503.224138,,0.0,503.131,0.6140000224113464,-2.261448470567755
503.68965499999996,,0.0,503.597,0.6179999709129333,-2.2532593355237984
504.15517200000005,,0.0,504.06,0.6119999885559082,-2.2668639163184365
504.62068999999997,,0.0,504.531,0.6370000243186951,-2.2129212713034105
505.08620699999994,,0.0,504.994,0.6439999938011169,-2.1981686993434364
505.55172400000004,,0.0,505.456,0.6190000176429749,-2.253091920412102
506.017241,,0.0,505.924,0.5239999890327454,-2.460468924386726
506.48275899999993,,0.0,506.386,0.597000002861023,-2.3017717446964494
506.948276,,0.0,506.852,0.5649999976158142,-2.3717612975134834
507.413793,,0.0,507.319,0.6079999804496765,-2.278271730036317
507.87931,,0.0,507.785,0.6179999709129333,-2.2565903131958294
508.344828,,0.0,508.25,0.6190000176429749,-2.254425185587851
508.810345,,0.0,508.716,0.6039999723434448,-2.287027077752122
509.27586199999996,,0.0,509.175,0.6309999823570251,-2.228036640166644
509.74137900000005,,0.0,509.641,0.6039999723434448,-2.2866094253797336
510.20689699999997,,0.0,510.109,0.6190000176429749,-2.2536029934790784
510.67241399999995,,0.0,510.571,0.6150000095367432,-2.2619253150604997
511.13793100000004,,0.0,511.034,0.6119999885559082,-2.268015324551625
511.603448,,0.0,511.504,0.652999997138977,-2.178204119759176
512.0689659999999,,0.0,511.965,0.5929999947547913,-2.308410478926336
512.534483,,0.0,512.434,0.6019999980926514,-2.288280989964387
513.0,,0.0,512.9,0.6100000143051147,-2.270337632648812
513.465517,,0.0,513.362,0.6190000176429749,-2.2502381469818786
513.931034,,0.0,513.828,0.6449999809265137,-2.193138117676261
514.396552,,0.0,514.293,0.6169999837875366,-2.2537346106747416
514.862069,,0.0,514.759,0.625,-2.235961919207382
515.327586,,0.0,515.223,0.6060000061988831,-2.277085934967617
515.793103,,0.0,515.689,0.6209999918937683,-2.2442174738944565
516.258621,,0.0,516.153,0.6169999837875366,-2.2528303693515634
516.724138,,0.0,516.619,0.5950000286102295,-2.300749099370311
517.189655,,0.0,517.079,0.5529999732971191,-2.3923331578179767
517.655172,,0.0,517.549,0.6209999918937683,-2.244355788372956
518.1206900000001,,0.0,518.012,0.6259999871253967,-2.2337161672732573
518.5862070000001,,0.0,518.475,0.5929999947547913,-2.3059391053246845
519.051724,,0.0,518.946,0.6190000176429749,-2.2496860040046345
519.517241,,0.0,519.408,0.6679999828338623,-2.1433749126138646
519.982759,,0.0,519.874,0.6259999871253967,-2.2353564024353725
520.448276,,0.0,520.338,0.6629999876022339,-2.1552454868552857
520.9137929999999,,0.0,520.804,0.6869999766349792,-2.1034616777293778
521.37931,,0.0,521.268,0.6570000052452087,-2.1693132743357295
521.844828,,0.0,521.733,0.6019999980926514,-2.289606653878514
522.310345,,0.0,522.198,0.6230000257492065,-2.244286511372277
522.7758620000001,,0.0,522.664,0.6240000128746033,-2.2424908932959933
523.241379,,0.0,523.124,0.6269999742507935,-2.2362778167238084
523.7068969999999,,0.0,523.59,0.6159999966621399,-2.260496212486757
524.172414,,0.0,524.06,0.6100000143051147,-2.273745116842764
524.637931,,0.0,524.523,0.6069999933242798,-2.280377430665654
525.103448,,0.0,524.986,0.6000000238418579,-2.295641289490464
525.568966,,0.0,525.449,0.6190000176429749,-2.2541772381656298
526.034483,,0.0,525.92,0.6039999723434448,-2.2867062367991347
526.5,,0.0,526.382,0.6190000176429749,-2.2537990508055263
526.9655170000001,,0.0,526.848,0.6690000295639038,-2.1445684008897827
527.4310340000001,,0.0,527.313,0.6700000166893005,-2.142027649859633
527.8965519999999,,0.0,527.779,0.6259999871253967,-2.2374730025033367
528.362069,,0.0,528.245,0.6380000114440918,-2.2108747366541577
528.827586,,0.0,528.711,0.6489999890327454,-2.186430022108967
529.293103,,0.0,529.176,0.6370000243186951,-2.2120830231905133
529.7586210000001,,0.0,529.634,0.6570000052452087,-2.168022992922627
530.224138,,0.0,530.105,0.6470000147819519,-2.1893404032684436
530.689655,,0.0,530.568,0.6290000081062317,-2.2281196032960127
531.155172,,0.0,531.031,0.6579999923706055,-2.164548399043332
531.62069,,0.0,531.5,0.6359999775886536,-2.2121458660034223
532.086207,,0.0,531.961,0.7120000123977661,-2.046302091075698
532.5517239999999,,0.0,532.43,0.6370000243186951,-2.2095079580116703
533.017241,,0.0,532.896,0.6349999904632568,-2.2137534373721754
533.482759,,0.0,533.358,0.722000002861023,-2.0241832975742606
533.9482760000001,,0.0,533.824,0.6399999856948853,-2.202888507364009
534.413793,,0.0,534.291,0.652999997138977,-2.1747052536750897
534.87931,,0.0,534.749,0.6449999809265137,-2.192354189123234
535.344828,,0.0,535.216,0.6330000162124634,-2.218791954790648
535.810345,,0.0,535.681,0.6489999890327454,-2.1842936083726974
536.275862,,0.0,536.146,0.640999972820282,-2.2021377682940324
536.7413789999999,,0.0,536.611,0.6660000085830688,-2.1481284040497517
537.206897,,0.0,537.08,0.7239999771118164,-2.0222501349447275
537.672414,,0.0,537.542,0.6990000009536743,-2.077209288406366
538.137931,,0.0,538.005,0.6880000233650208,-2.1016623052260006
538.6034480000001,,0.0,538.474,0.7089999914169312,-2.0563795662328066
539.0689659999999,,0.0,538.935,0.6700000166893005,-2.1417828064261375
539.5344829999999,,0.0,539.405,0.6890000104904175,-2.1007794505073694
540.0,,0.0,539.864,0.6890000104904175,-2.1011139286032656
540.465517,,0.0,540.331,0.656000018119812,-2.1732777952520137
540.931034,,0.0,540.797,0.7020000219345093,-2.073254915688758
541.396552,,0.0,541.261,0.6600000262260437,-2.1648737469173893
541.862069,,0.0,541.727,0.6669999957084656,-2.1496567190476292
542.327586,,0.0,542.193,0.6660000085830688,-2.1517863467955123
542.7931030000001,,0.0,542.659,0.6809999942779541,-2.1189763725578814
543.258621,,0.0,543.124,0.6990000009536743,-2.0795521781226802
543.7241379999999,,0.0,543.59,0.6990000009536743,-2.0792707452578276
544.189655,,0.0,544.053,0.6489999890327454,-2.187857883325897
544.655172,,0.0,544.516,0.6840000152587891,-2.111207372813426
545.12069,,0.0,544.979,0.6809999942779541,-2.1173047804963088
545.5862070000001,,0.0,545.449,0.7580000162124634,-1.949080349782818
546.051724,,0.0,545.915,0.7039999961853027,-2.06624139191768
546.517241,,0.0,546.378,0.7039999961853027,-2.06575280269169
546.982759,,0.0,546.844,0.6869999766349792,-2.102314795082756
547.448276,,0.0,547.309,0.6700000166893005,-2.138905439799046
547.9137929999999,,0.0,547.775,0.7020000219345093,-2.068784945745317
548.3793099999999,,0.0,548.235,0.7689999938011169,-1.9224644406293467
548.844828,,0.0,548.701,0.7300000190734863,-2.007141546411816
549.310345,,0.0,549.168,0.7369999885559082,-1.991670820485248
549.775862,,0.0,549.633,0.6449999809265137,-2.191965354904234
550.241379,,0.0,550.094,0.7580000162124634,-1.9457215353656256
550.706897,,0.0,550.564,0.6700000166893005,-2.1374723072998227
551.172414,,0.0,551.027,0.7490000128746033,-1.965473848910559
551.637931,,0.0,551.49,0.6940000057220459,-2.0854962038288978
552.103448,,0.0,551.96,0.6800000071525574,-2.116271014630491
552.568966,,0.0,552.423,0.722000002861023,-2.0251114297800306
553.034483,,0.0,552.888,0.7020000219345093,-2.069086981084468
553.5,,0.0,553.351,0.6949999928474426,-2.0847873197469298
553.965517,,0.0,553.817,0.7149999737739563,-2.041698108762878
554.4310340000001,,0.0,554.282,0.6949999928474426,-2.0857740658666435
554.896552,,0.0,554.748,0.7480000257492065,-1.9708121392489997
555.3620689999999,,0.0,555.213,0.7400000095367432,-1.988734727679708
555.827586,,0.0,555.679,0.675000011920929,-2.1308127198452254
556.293103,,0.0,556.145,0.7490000128746033,-1.9700180230182236
556.758621,,0.0,556.604,0.7570000290870667,-1.9529590808512236
557.224138,,0.0,557.072,0.718999981880188,-2.036050850938231
557.689655,,0.0,557.534,0.722000002861023,-2.0297425739746777
558.155172,,0.0,558.005,0.7739999890327454,-1.9165979706815812
558.6206900000001,,0.0,558.467,0.6579999923706055,-2.1693795408440057
559.0862070000001,,0.0,558.935,0.675000011920929,-2.1323150883562523
559.5517239999999,,0.0,559.398,0.7039999961853027,-2.069022947784338
560.017241,,0.0,559.863,0.6660000085830688,-2.151618674134677
560.482759,,0.0,560.331,0.7200000286102295,-2.033702420017703
560.948276,,0.0,560.789,0.7049999833106995,-2.066043541903397
561.413793,,0.0,561.26,0.6909999847412109,-2.096145931017516
561.87931,,0.0,561.726,0.6460000276565552,-2.1937395873306893
562.344828,,0.0,562.19,0.6830000281333923,-2.1126515202916702
562.8103450000001,,0.0,562.649,0.7020000219345093,-2.0707595403737367
563.275862,,0.0,563.116,0.7099999785423279,-2.0528260546194894
563.7413789999999,,0.0,563.582,0.6740000247955322,-2.1307609141186976
564.206897,,0.0,564.045,0.6859999895095825,-2.1041442399391324
564.672414,,0.0,564.515,0.7170000076293945,-2.036170063057572
565.137931,,0.0,564.979,0.652999997138977,-2.1752172003213035
565.603448,,0.0,565.441,0.7480000257492065,-1.9679200431344728
566.068966,,0.0,565.907,0.6010000109672546,-2.2879271732126596
566.534483,,0.0,566.371,0.6990000009536743,-2.0742458039100122
567.0,,0.0,566.837,0.640999972820282,-2.2005197158854313
567.465517,,0.0,567.302,0.6359999775886536,-2.2114141927879944
567.931034,,0.0,567.767,0.6690000295639038,-2.139609582435351
568.396552,,0.0,568.234,0.5950000286102295,-2.301007763506719
568.862069,,0.0,568.7,0.6520000100135803,-2.177085857758128
569.327586,,0.0,569.161,0.640999972820282,-2.201386612914038
569.793103,,0.0,569.627,0.6629999876022339,-2.1538550524011635
570.2586210000001,,0.0,570.09,0.6470000147819519,-2.1891629530405416
570.724138,,0.0,570.56,0.625,-2.2375806501935993
571.189655,,0.0,571.02,0.5640000104904175,-2.370990932672445
571.655172,,0.0,571.489,0.5659999847412109,-2.367158779975303
572.12069,,0.0,571.95,0.6539999842643738,-2.175958444355114
572.586207,,0.0,572.419,0.7170000076293945,-2.039199403092212
573.051724,,0.0,572.885,0.6690000295639038,-2.144227130400562
573.517241,,0.0,573.348,0.6299999952316284,-2.229591299339242
573.982759,,0.0,573.815,0.6579999923706055,-2.1689197931484476
574.4482760000001,,0.0,574.279,0.6340000033378601,-2.221461982860874
574.913793,,0.0,574.745,0.6179999709129333,-2.2564919898978233
575.37931,,0.0,575.205,0.6489999890327454,-2.189037564896983
575.844828,,0.0,575.671,0.6489999890327454,-2.1890301077905723
576.310345,,0.0,576.135,0.5920000076293945,-2.3131151577477915
576.775862,,0.0,576.601,0.6359999775886536,-2.2170705895777694
577.241379,,0.0,577.064,0.656000018119812,-2.1732319269542595
577.706897,,0.0,577.533,0.6740000247955322,-2.1336752581237697
578.172414,,0.0,577.994,0.6650000214576721,-2.152876270696005
578.6379310000001,,0.0,578.464,0.6370000243186951,-2.213418719454924
579.1034480000001,,0.0,578.927,0.652999997138977,-2.178062820776994
579.5689659999999,,0.0,579.39,0.6420000195503235,-2.201507927703383
580.034483,,0.0,579.856,0.6460000276565552,-2.192266945193538
580.5,,0.0,580.32,0.6470000147819519,-2.189571810209042
580.965517,,0.0,580.786,0.6700000166893005,-2.138971574313109
581.431034,,0.0,581.253,0.6069999933242798,-2.275775888094993
581.896552,,0.0,581.718,0.6370000243186951,-2.210021634385125
582.362069,,0.0,582.183,0.6499999761581421,-2.1813724919364
582.827586,,0.0,582.648,0.6620000004768372,-2.154978519663398
583.2931030000001,,0.0,583.109,0.6209999918937683,-2.24413748277159
583.758621,,0.0,583.578,0.6370000243186951,-2.209203926065594
584.2241379999999,,0.0,584.039,0.5929999947547913,-2.3050833330479836
584.689655,,0.0,584.508,0.6449999809265137,-2.1919059998312496
585.155172,,0.0,584.972,0.6190000176429749,-2.248752618927863
585.6206900000001,,0.0,585.434,0.6200000047683716,-2.246858867730752
586.0862070000001,,0.0,585.9,0.6449999809265137,-2.1927516526853634
586.551724,,0.0,586.37,0.6389999985694885,-2.2062444851248046
587.017241,,0.0,586.836,0.6340000033378601,-2.217607413249639
587.482759,,0.0,587.294,0.6079999804496765,-2.2747569071155223
587.948276,,0.0,587.759,0.6439999938011169,-2.1968496280579455
588.4137929999999,,0.0,588.224,0.6460000276565552,-2.19301872636196
588.87931,,0.0,588.69,0.6169999837875366,-2.2567118977274547
589.344828,,0.0,589.157,0.6470000147819519,-2.1918349686540015
589.810345,,0.0,589.622,0.6079999804496765,-2.277240535706305
590.2758620000001,,0.0,590.086,0.6179999709129333,-2.2558349285442802
590.741379,,0.0,590.549,0.6399999856948853,-2.208216306153755
591.2068969999999,,0.0,591.02,0.5989999771118164,-2.2977735485005986
591.672414,,0.0,591.482,0.6150000095367432,-2.263062201011668
592.137931,,0.0,591.946,0.6150000095367432,-2.2631193818809785
592.603448,,0.0,592.415,0.6439999938011169,-2.199903152022665
593.068966,,0.0,592.874,0.6069999933242798,-2.280385748613451
593.534483,,0.0,593.345,0.6129999756813049,-2.2670990827707724
594.0,,0.0,593.811,0.6169999837875366,-2.2580892475384893
594.4655170000001,,0.0,594.275,0.6330000162124634,-2.2228636505467447
594.9310340000001,,0.0,594.74,0.625,-2.2398645851574295
595.3965519999999,,0.0,595.205,0.6480000019073486,-2.1892789693277654
595.862069,,0.0,595.671,0.6060000061988831,-2.2802719752517633
596.327586,,0.0,596.134,0.5929999947547913,-2.308067806802358
596.793103,,0.0,596.6,0.6039999723434448,-2.283577078062906
597.2586210000001,,0.0,597.064,0.6010000109672546,-2.2896044393742203
597.724138,,0.0,597.526,0.6150000095367432,-2.2586273159738552
598.189655,,0.0,597.99,0.6100000143051147,-2.2690912683266857
598.655172,,0.0,598.46,0.6209999918937683,-2.244756575538561
599.12069,,0.0,598.923,0.5830000042915344,-2.327247062756424
599.586207,,0.0,599.386,0.5929999947547913,-2.3052440567895185
600.0517239999999,,0.0,599.852,0.6320000290870667,-2.2201479541817917
600.517241,,0.0,600.317,0.6190000176429749,-2.248432001525108
600.982759,,0.0,600.782,0.6830000281333923,-2.109049960971304
601.448276,,0.0,601.249,0.656000018119812,-2.168011745722991
601.913793,,0.0,601.716,0.6039999723434448,-2.281523155240075
602.37931,,0.0,602.175,0.6190000176429749,-2.2491436996784566
602.844828,,0.0,602.641,0.6190000176429749,-2.2495142648388087
603.310345,,0.0,603.109,0.597000002861023,-2.2978742352840777
603.775862,,0.0,603.571,0.5929999947547913,-2.307065431765787
604.2413789999999,,0.0,604.038,0.6269999742507935,-2.2335002864233457
604.706897,,0.0,604.501,0.6169999837875366,-2.2558113435069598
605.172414,,0.0,604.964,0.6499999761581421,-2.1844392470679344
605.637931,,0.0,605.434,0.6129999756813049,-2.2655548972486423
606.1034480000001,,0.0,605.9,0.6460000276565552,-2.194131951044598
606.5689659999999,,0.0,606.362,0.6000000238418579,-2.294775219164483
607.0344829999999,,0.0,606.828,0.5789999961853027,-2.3408935696387916
607.5,,0.0,607.294,0.5960000157356262,-2.3041544508109713
607.965517,,0.0,607.76,0.6209999918937683,-2.249907566506305
608.431034,,0.0,608.22,0.6019999980926514,-2.291434709104313
608.896552,,0.0,608.685,0.6079999804496765,-2.278405037546246
609.362069,,0.0,609.15,0.6079999804496765,-2.278355178546742
609.827586,,0.0,609.616,0.6190000176429749,-2.2542489943340214
610.293103,,0.0,610.079,0.5830000042915344,-2.3324526393288205
610.758621,,0.0,610.549,0.6060000061988831,-2.2820365621634218
611.2241379999999,,0.0,611.012,0.5789999961853027,-2.340483024743955
611.689655,,0.0,611.475,0.597000002861023,-2.3008317749709692
612.155172,,0.0,611.945,0.6330000162124634,-2.22191854764627
612.62069,,0.0,612.408,0.5920000076293945,-2.310728631568108
613.0862070000001,,0.0,612.874,0.5830000042915344,-2.32980575091042
613.551724,,0.0,613.338,0.5839999914169312,-2.327097359235056
614.017241,,0.0,613.803,0.5950000286102295,-2.3026192894359947
614.4827590000001,,0.0,614.268,0.5830000042915344,-2.328282541852872
614.948276,,0.0,614.733,0.5889999866485596,-2.314777059787498
615.4137929999999,,0.0,615.197,0.5960000157356262,-2.2991528354831954
615.8793099999999,,0.0,615.663,0.5879999995231628,-2.316279607695401
616.344828,,0.0,616.127,0.5910000205039978,-2.3095216716131484
616.810345,,0.0,616.593,0.5879999995231628,-2.315923153224634
617.275862,,0.0,617.061,0.5419999957084656,-2.416099047022727
617.741379,,0.0,617.523,0.6019999980926514,-2.2854326595194343
618.206897,,0.0,617.986,0.5910000205039978,-2.3095421618296244
618.672414,,0.0,618.449,0.6100000143051147,-2.268378696121976
619.137931,,0.0,618.92,0.5720000267028809,-2.3514779259177243
619.603448,,0.0,619.382,0.6190000176429749,-2.249462611327922
620.068966,,0.0,619.848,0.5830000042915344,-2.328333960530174
620.534483,,0.0,620.312,0.6129999756813049,-2.2634599491864598
621.0,,0.0,620.778,0.5929999947547913,-2.307549095591182
621.465517,,0.0,621.245,0.5799999833106995,-2.3364034897550616
621.9310340000001,,0.0,621.711,0.5839999914169312,-2.3282213280271224
622.396552,,0.0,622.176,0.5789999961853027,-2.3396316906626407
622.862069,,0.0,622.634,0.5789999961853027,-2.340117986829911
623.327586,,0.0,623.105,0.5950000286102295,-2.3057000561328977
623.793103,,0.0,623.568,0.5789999961853027,-2.3409395850581833
624.258621,,0.0,624.031,0.5820000171661377,-2.334713823592246
624.724138,,0.0,624.501,0.5540000200271606,-2.395946580432277
625.189655,,0.0,624.961,0.6060000061988831,-2.2828006427216443
625.655172,,0.0,625.43,0.5490000247955322,-2.407035667594974
626.1206900000001,,0.0,625.896,0.6069999933242798,-2.280632635820755
626.5862070000001,,0.0,626.358,0.5770000219345093,-2.345857520466452
627.0517239999999,,0.0,626.824,0.574999988079071,-2.3499911262187596
627.5172409999999,,0.0,627.291,0.5979999899864197,-2.299575873351351
627.982759,,0.0,627.756,0.5680000185966492,-2.3645551500564754
628.448276,,0.0,628.216,0.5820000171661377,-2.3336117821362676
628.913793,,0.0,628.682,0.6079999804496765,-2.276475260844524
629.37931,,0.0,629.149,0.5929999947547913,-2.308627548088811
629.844828,,0.0,629.615,0.5669999718666077,-2.364725769032939
630.3103450000001,,0.0,630.075,0.5699999928474426,-2.3576414713109313
630.7758620000001,,0.0,630.545,0.5789999961853027,-2.33750050638202
631.2413789999999,,0.0,631.008,0.597000002861023,-2.297782299724604
631.706897,,0.0,631.471,0.5979999899864197,-2.2951461920922007
632.172414,,0.0,631.935,0.6129999756813049,-2.262067345051426
632.637931,,0.0,632.405,0.5950000286102295,-2.300954185681729
633.103448,,0.0,632.87,0.5410000085830688,-2.418354631059543
633.568966,,0.0,633.334,0.574999988079071,-2.344125553618899
634.034483,,0.0,633.8,0.5519999861717224,-2.394176241911606
634.5,,0.0,634.265,0.5910000205039978,-2.3092489475337485
634.9655170000001,,0.0,634.731,0.5669999718666077,-2.3616735491688927
635.431034,,0.0,635.19,0.5669999718666077,-2.3619035324025104
635.8965519999999,,0.0,635.656,0.5669999718666077,-2.3622202672064088
636.362069,,0.0,636.123,0.5669999718666077,-2.362614306099823
636.827586,,0.0,636.589,0.6019999980926514,-2.286820367527296
637.293103,,0.0,637.049,0.5979999899864197,-2.296043542616573
637.7586210000001,,0.0,637.519,0.5789999961853027,-2.337980628421709
638.224138,,0.0,637.979,0.5730000138282776,-2.3516139418509003
638.689655,,0.0,638.449,0.5920000076293945,-2.3107829880514066
639.155172,,0.0,638.92,0.6190000176429749,-2.252506513843049
639.62069,,0.0,639.375,0.6190000176429749,-2.2530193233399896
640.086207,,0.0,639.84,0.5809999704360962,-2.336271303931691
640.551724,,0.0,640.307,0.5720000267028809,-2.3562802055626966
641.017241,,0.0,640.772,0.628000020980835,-2.2346028673536646
641.482759,,0.0,641.239,0.5989999771118164,-2.2980253206854426
641.9482760000001,,0.0,641.704,0.5709999799728394,-2.3591767940936936
642.413793,,0.0,642.164,0.5860000252723694,-2.3265508206118084
642.87931,,0.0,642.63,0.5830000042915344,-2.3330436001864587
643.344828,,0.0,643.094,0.6029999852180481,-2.2893310699936027
643.810345,,0.0,643.564,0.6019999980926514,-2.29127720665762
644.275862,,0.0,644.027,0.5830000042915344,-2.332353131936928
644.7413789999999,,0.0,644.489,0.5860000252723694,-2.325423077783644
645.206897,,0.0,644.957,0.5809999704360962,-2.3358589129469545
645.672414,,0.0,645.419,0.574999988079071,-2.348423775385337
646.1379310000001,,0.0,645.885,0.6019999980926514,-2.289058818918115
646.6034480000001,,0.0,646.355,0.5669999718666077,-2.3647518113908914
647.0689659999999,,0.0,646.814,0.6050000190734863,-2.2814017875516366
647.534483,,0.0,647.279,0.6060000061988831,-2.278676545478372
648.0,,0.0,647.745,0.578000009059906,-2.3391629644896814
648.465517,,0.0,648.213,0.5830000042915344,-2.327801343744565
648.931034,,0.0,648.679,0.5920000076293945,-2.3077867937748415
649.396552,,0.0,649.146,0.5950000286102295,-2.300917593782915
649.862069,,0.0,649.604,0.5809999704360962,-2.3311691718104504
650.327586,,0.0,650.072,0.5809999704360962,-2.331011160178391
650.7931030000001,,0.0,650.534,0.5830000042915344,-2.3265924566815293
651.258621,,0.0,651.005,0.5910000205039978,-2.3092002603327937
651.7241379999999,,0.0,651.467,0.6010000109672546,-2.287547602934754
652.189655,,0.0,651.935,0.6000000238418579,-2.2899523494256093
652.655172,,0.0,652.398,0.5929999947547913,-2.3055146504841777
653.12069,,0.0,652.863,0.6140000224113464,-2.260150823248081
653.5862070000001,,0.0,653.33,0.5809999704360962,-2.332498808651824
654.051724,,0.0,653.789,0.5669999718666077,-2.363504537412795
654.517241,,0.0,654.26,0.5289999842643738,-2.446836784691674
654.982759,,0.0,654.726,0.6200000047683716,-2.2491458660600427
655.448276,,0.0,655.19,0.6039999723434448,-2.2845736424929535
655.9137929999999,,0.0,655.649,0.5929999947547913,-2.309093059285637
656.37931,,0.0,656.116,0.5460000038146973,-2.4120137276359714
656.844828,,0.0,656.582,0.6000000238418579,-2.2948457365386856
657.310345,,0.0,657.05,0.5920000076293945,-2.3126934617845354
657.7758620000001,,0.0,657.513,0.5989999771118164,-2.297787262022788
658.241379,,0.0,657.975,0.6079999804496765,-2.2784386710663194
658.7068969999999,,0.0,658.445,0.5809999704360962,-2.3374285583905117
659.172414,,0.0,658.911,0.5759999752044678,-2.3483910180879786
659.637931,,0.0,659.369,0.593999981880188,-2.309145583230509
660.103448,,0.0,659.835,0.6140000224113464,-2.2654436365463435
660.568966,,0.0,660.301,0.5929999947547913,-2.3109704051182556
661.034483,,0.0,660.767,0.5839999914169312,-2.3302645732711644
661.5,,0.0,661.231,0.6069999933242798,-2.279762918174063
661.965517,,0.0,661.697,0.5879999995231628,-2.3206969757010554
662.4310340000001,,0.0,662.164,0.5920000076293945,-2.311468650170199
662.8965519999999,,0.0,662.63,0.597000002861023,-2.3000239006522687
663.362069,,0.0,663.09,0.6079999804496765,-2.2754857185753723
663.827586,,0.0,663.56,0.6060000061988831,-2.279265208821521
664.293103,,0.0,664.023,0.6119999885559082,-2.2656282611000296
664.7586210000001,,0.0,664.486,0.6179999709129333,-2.2520209123140824
665.224138,,0.0,664.949,0.5979999899864197,-2.29510439818747
665.689655,,0.0,665.419,0.6190000176429749,-2.248924580264952
666.155172,,0.0,665.884,0.5929999947547913,-2.3052160326612854
666.62069,,0.0,666.347,0.5820000171661377,-2.3289140822006953
667.086207,,0.0,666.813,0.6259999871253967,-2.2328814296015422
667.5517239999999,,0.0,667.279,0.593999981880188,-2.302525610447642
668.017241,,0.0,667.744,0.6140000224113464,-2.2589819559358975
668.482759,,0.0,668.208,0.6050000190734863,-2.278720650483424
668.948276,,0.0,668.674,0.5899999737739563,-2.311629294007232
669.413793,,0.0,669.139,0.6000000238418579,-2.290163296905121
669.87931,,0.0,669.605,0.5979999899864197,-2.294923474715898
670.3448279999999,,0.0,670.068,0.5929999947547913,-2.306289608206068
670.810345,,0.0,670.53,0.5920000076293945,-2.3089971849762843
671.275862,,0.0,670.998,0.6069999933242798,-2.2768862947542323
671.7413789999999,,0.0,671.46,0.6179999709129333,-2.253511812670512
672.206897,,0.0,671.931,0.6069999933242798,-2.2780708000610757
672.672414,,0.0,672.393,0.5929999947547913,-2.3091513825672494
673.137931,,0.0,672.859,0.6340000033378601,-2.2203740596003394
673.6034480000001,,0.0,673.324,0.6200000047683716,-2.2513724727056914
674.068966,,0.0,673.789,0.5839999914169312,-2.3302363673585322
674.5344829999999,,0.0,674.25,0.6340000033378601,-2.2216589010162235
675.0,,0.0,674.715,0.5920000076293945,-2.3134283249886103
675.465517,,0.0,675.18,0.6190000176429749,-2.254773937176774
675.931034,,0.0,675.645,0.6499999761581421,-2.1873019320902705
676.396552,,0.0,676.119,0.6129999756813049,-2.2678717190156625
676.862069,,0.0,676.578,0.5960000157356262,-2.304764413935765
677.327586,,0.0,677.046,0.6050000190734863,-2.2849137690252452
677.793103,,0.0,677.508,0.6000000238418579,-2.2954730626077926
678.2586210000001,,0.0,677.969,0.6060000061988831,-2.281986108915778
678.7241379999999,,0.0,678.438,0.5889999866485596,-2.3185396807758747
679.1896549999999,,0.0,678.903,0.5989999771118164,-2.2962162626831564
679.655172,,0.0,679.366,0.5929999947547913,-2.3087140438494878
680.12069,,0.0,679.832,0.5870000123977661,-2.321192220214406
680.5862070000001,,0.0,680.297,0.5789999961853027,-2.3380266116587647
681.051724,,0.0,680.763,0.6019999980926514,-2.28733963947425
681.517241,,0.0,681.228,0.597000002861023,-2.297688478336055
681.9827590000001,,0.0,681.694,0.5989999771118164,-2.292836634866382
682.448276,,0.0,682.154,0.5720000267028809,-2.3512307166462385
682.9137929999999,,0.0,682.619,0.6190000176429749,-2.2484832049669428
683.3793099999999,,0.0,683.09,0.5260000228881836,-2.4508359571028153
683.844828,,0.0,683.552,0.609000027179718,-2.2698447639185675
684.310345,,0.0,684.02,0.5929999947547913,-2.304642031146957
684.775862,,0.0,684.482,0.6079999804496765,-2.272003757085667
685.241379,,0.0,684.946,0.6349999904632568,-2.2133221732308828
685.706897,,0.0,685.415,0.5870000123977661,-2.31813508665984
686.172414,,0.0,685.874,0.5950000286102295,-2.3010334796640524
686.637931,,0.0,686.345,0.6060000061988831,-2.277476395129748
687.103448,,0.0,686.81,0.6019999980926514,-2.286666673186947
687.5689659999999,,0.0,687.275,0.5920000076293945,-2.308982328184107
688.034483,,0.0,687.741,0.5809999704360962,-2.3335150404111142
688.5,,0.0,688.206,0.6399999856948853,-2.205562962687716
688.965517,,0.0,688.664,0.5519999861717224,-2.397875115455779
689.4310340000001,,0.0,689.131,0.597000002861023,-2.300413256858469
689.896552,,0.0,689.597,0.5910000205039978,-2.3140315992422122
690.362069,,0.0,690.064,0.5849999785423279,-2.327602196060239
690.827586,,0.0,690.526,0.5879999995231628,-2.3215021700521126
691.293103,,0.0,690.994,0.5879999995231628,-2.321862301668674
691.758621,,0.0,691.457,0.6190000176429749,-2.2545968568292913
692.224138,,0.0,691.92,0.5860000252723694,-2.32666871695479
692.689655,,0.0,692.39,0.6190000176429749,-2.2548481207202817
693.155172,,0.0,692.855,0.5989999771118164,-2.2983917883748006
693.6206900000001,,0.0,693.314,0.6200000047683716,-2.252507035957212
694.0862070000001,,0.0,693.78,0.5929999947547913,-2.311097948792673
694.551724,,0.0,694.245,0.6399999856948853,-2.2083759833955816
695.0172409999999,,0.0,694.711,0.593999981880188,-2.308185004682265
695.482759,,0.0,695.176,0.6140000224113464,-2.2641325690687495
695.948276,,0.0,695.641,0.6039999723434448,-2.285384156693602
696.4137929999999,,0.0,696.113,0.48399999737739563,-2.5462498403148586
696.87931,,0.0,696.571,0.5920000076293945,-2.310366344253696
697.344828,,0.0,697.034,0.6169999837875366,-2.2553090709455113
697.8103450000001,,0.0,697.504,0.5929999947547913,-2.307018988509651
698.2758620000001,,0.0,697.964,0.5989999771118164,-2.2934005646483624
698.741379,,0.0,698.435,0.6190000176429749,-2.2493282266341477
699.206897,,0.0,698.901,0.5879999995231628,-2.316429122050166
699.672414,,0.0,699.363,0.5960000157356262,-2.298638386542583
700.137931,,0.0,699.829,0.6399999856948853,-2.2025024692127397
700.603448,,0.0,700.294,0.6420000195503235,-2.1979622479010423
701.068966,,0.0,700.759,0.6060000061988831,-2.2763087481241566
701.534483,,0.0,701.224,0.6010000109672546,-2.2872191745148305
702.0,,0.0,701.69,0.5830000042915344,-2.326555064943478
702.4655170000001,,0.0,702.149,0.5669999718666077,-2.361634384331668
702.931034,,0.0,702.615,0.625,-2.2355875854510403
703.3965519999999,,0.0,703.083,0.6449999809265137,-2.1924120387245902
703.862069,,0.0,703.545,0.6209999918937683,-2.2451662866888205
704.327586,,0.0,704.013,0.6060000061988831,-2.2783689458539054
704.793103,,0.0,704.475,0.6039999723434448,-2.28329107298058
705.2586210000001,,0.0,704.945,0.6290000081062317,-2.229414433433896
705.724138,,0.0,705.408,0.5920000076293945,-2.3106212877078574
706.189655,,0.0,705.874,0.5929999947547913,-2.3090297709668928
706.6551720000001,,0.0,706.337,0.6060000061988831,-2.281267546672137
707.12069,,0.0,706.803,0.6079999804496765,-2.277426329189048
707.586207,,0.0,707.267,0.593999981880188,-2.3083836291852435
708.051724,,0.0,707.733,0.5929999947547913,-2.3109453598441347
708.517241,,0.0,708.198,0.6060000061988831,-2.2829212879162575
708.982759,,0.0,708.664,0.628000020980835,-2.2351945851094683
709.4482760000001,,0.0,709.124,0.6190000176429749,-2.2549040013972896
709.913793,,0.0,709.589,0.6190000176429749,-2.2549001449985164
710.37931,,0.0,710.057,0.6000000238418579,-2.2961855912665063
710.844828,,0.0,710.52,0.6269999742507935,-2.2371515216788422
711.310345,,0.0,710.99,0.6190000176429749,-2.2542738030282132
711.775862,,0.0,711.452,0.6209999918937683,-2.2495223554702357
712.2413789999999,,0.0,711.92,0.6439999938011169,-2.1989431664972274
712.706897,,0.0,712.383,0.6179999709129333,-2.2550554259708546
713.172414,,0.0,712.849,0.6119999885559082,-2.267548837506824
713.637931,,0.0,713.316,0.6259999871253967,-2.236441401703916
714.1034480000001,,0.0,713.774,0.5929999947547913,-2.307721065571616
714.5689659999999,,0.0,714.239,0.5929999947547913,-2.3071155168004194
715.034483,,0.0,714.704,0.6079999804496765,-2.2738591074682435
715.5,,0.0,715.172,0.6349999904632568,-2.2145040751890925
715.965517,,0.0,715.637,0.5849999785423279,-2.322966045004495
716.431034,,0.0,716.101,0.5989999771118164,-2.292070794590922
716.896552,,0.0,716.57,0.5770000219345093,-2.339695974514147
717.362069,,0.0,717.031,0.4959999918937683,-2.51596211407327
717.827586,,0.0,717.494,0.5979999899864197,-2.2936435369185224
718.2931030000001,,0.0,717.964,0.5960000157356262,-2.2980130480571077
718.758621,,0.0,718.427,0.6029999852180481,-2.2828808930561397
719.2241379999999,,0.0,718.893,0.6110000014305115,-2.2656718544726755
719.689655,,0.0,719.355,0.6169999837875366,-2.2529146482546287
720.155172,,0.0,719.821,0.6069999933242798,-2.2751003720660763
720.62069,,0.0,720.286,0.593999981880188,-2.3038950246969687
721.0862070000001,,0.0,720.752,0.5059999823570251,-2.4961492642335714
721.551724,,0.0,721.219,0.628000020980835,-2.23093305760954
722.017241,,0.0,721.685,0.5920000076293945,-2.309969640465274
722.482759,,0.0,722.144,0.593999981880188,-2.3062242870005636
722.948276,,0.0,722.609,0.5889999866485596,-2.3177182324021928
723.4137929999999,,0.0,723.079,0.5839999914169312,-2.32918302792259
723.87931,,0.0,723.541,0.6000000238418579,-2.2948496481915095
724.344828,,0.0,724.005,0.6309999823570251,-2.227773241477238
724.810345,,0.0,724.475,0.5680000185966492,-2.365412049179832
725.2758620000001,,0.0,724.938,0.5920000076293945,-2.3134206472874848
725.741379,,0.0,725.401,0.5960000157356262,-2.304905727815882
726.2068969999999,,0.0,725.866,0.6039999723434448,-2.2875732013843075
726.672414,,0.0,726.331,0.5920000076293945,-2.3137074430675004
727.137931,,0.0,726.797,0.6169999837875366,-2.2591260351388214
727.603448,,0.0,727.264,0.5870000123977661,-2.324267993027595
728.068966,,0.0,727.73,0.6309999823570251,-2.2280944307054384
728.534483,,0.0,728.193,0.5929999947547913,-2.3104837394824025
729.0,,0.0,728.659,0.6079999804496765,-2.277331077683542
729.465517,,0.0,729.12,0.5950000286102295,-2.305121802875326
729.9310340000001,,0.0,729.585,0.652999997138977,-2.178185407853427
730.3965519999999,,0.0,730.053,0.6399999856948853,-2.2059058376119394
730.8620689999999,,0.0,730.516,0.6039999723434448,-2.2837265753042373
731.327586,,0.0,730.979,0.5709999799728394,-2.3550237169310444
731.793103,,0.0,731.449,0.5659999847412109,-2.3653514917567287
732.2586210000001,,0.0,731.915,0.6190000176429749,-2.2493674809784645
732.724138,,0.0,732.378,0.5839999914169312,-2.325169125965349
733.189655,,0.0,732.844,0.6000000238418579,-2.2899376167970824
733.655172,,0.0,733.309,0.5830000042915344,-2.326691339479519
734.12069,,0.0,733.775,0.6169999837875366,-2.2524317882023217
734.586207,,0.0,734.235,0.6079999804496765,-2.271956579265459
735.0517239999999,,0.0,734.701,0.5789999961853027,-2.3351592905735497
735.517241,,0.0,735.165,0.5830000042915344,-2.3265718030762605
735.982759,,0.0,735.631,0.5950000286102295,-2.3006562722718407
736.448276,,0.0,736.101,0.5979999899864197,-2.2944420163777695
736.913793,,0.0,736.563,0.5630000233650208,-2.3710997198199806
737.37931,,0.0,737.031,0.5720000267028809,-2.351968730601981
737.844828,,0.0,737.493,0.6060000061988831,-2.27842811639149
738.310345,,0.0,737.957,0.6029999852180481,-2.285536029411536
738.775862,,0.0,738.419,0.628000020980835,-2.2316613587321052
739.2413789999999,,0.0,738.885,0.5870000123977661,-2.3215789293734614
739.706897,,0.0,739.356,0.6330000162124634,-2.2219372368579857
740.172414,,0.0,739.814,0.6129999756813049,-2.2660515154503647
740.637931,,0.0,740.279,0.6349999904632568,-2.218610446624749
741.1034480000001,,0.0,740.744,0.5849999785423279,-2.327965960202819
741.568966,,0.0,741.216,0.5929999947547913,-2.3108822233673116
742.034483,,0.0,741.674,0.6029999852180481,-2.289353965462439
742.5,,0.0,742.139,0.5839999914169312,-2.3309115589647615
742.965517,,0.0,742.604,0.6159999966621399,-2.261258454858915
743.431034,,0.0,743.075,0.5960000157356262,-2.3047935096952754
743.896552,,0.0,743.538,0.593999981880188,-2.30901320884542
744.362069,,0.0,744.006,0.6060000061988831,-2.2826367738882882
744.827586,,0.0,744.467,0.6119999885559082,-2.2692444026718492
745.293103,,0.0,744.931,0.5910000205039978,-2.3145976545920783
745.7586210000001,,0.0,745.401,0.6430000066757202,-2.200844040838508
746.2241379999999,,0.0,745.859,0.6150000095367432,-2.261330228503165
746.6896549999999,,0.0,746.324,0.6370000243186951,-2.2128475670554733
747.155172,,0.0,746.789,0.6010000109672546,-2.290707810520463
747.62069,,0.0,747.257,0.6240000128746033,-2.240027127594407
748.086207,,0.0,747.722,0.5910000205039978,-2.311368315167238
748.551724,,0.0,748.19,0.5950000286102295,-2.3021348092701985
749.017241,,0.0,748.649,0.5929999947547913,-2.306025020949666
749.4827590000001,,0.0,749.116,0.6039999723434448,-2.2816584952626338
749.9482760000001,,0.0,749.582,0.5889999866485596,-2.314014491484366
750.4137929999999,,0.0,750.046,0.6370000243186951,-2.209202330875716
750.8793099999999,,0.0,750.516,0.5860000252723694,-2.320169652387584
751.344828,,0.0,750.979,0.5759999752044678,-2.3419107885519983
751.810345,,0.0,751.441,0.6100000143051147,-2.2678911049378523
752.275862,,0.0,751.907,0.5929999947547913,-2.305079636731512
752.741379,,0.0,752.371,0.6019999980926514,-2.2857148486740315
753.206897,,0.0,752.836,0.6100000143051147,-2.2686121138264017
753.672414,,0.0,753.302,0.5540000200271606,-2.3910164135264442
754.1379310000001,,0.0,753.767,0.6269999742507935,-2.2324363279244737
754.603448,,0.0,754.234,0.5989999771118164,-2.2939451607106185
755.0689659999999,,0.0,754.7,0.6330000162124634,-2.220406187889043
755.534483,,0.0,755.164,0.5929999947547913,-2.30809917566546
756.0,,0.0,755.63,0.5979999899864197,-2.297748476344762
756.465517,,0.0,756.09,0.49900001287460327,-2.5139584590946886
756.931034,,0.0,756.561,0.6050000190734863,-2.2835120849747756
757.396552,,0.0,757.023,0.597000002861023,-2.3013813753225656
757.862069,,0.0,757.487,0.5989999771118164,-2.2973985306699323
758.3275860000001,,0.0,757.949,0.5929999947547913,-2.3107678691664137
758.793103,,0.0,758.419,0.5640000104904175,-2.3741609652348776
759.258621,,0.0,758.885,0.6190000176429749,-2.2544562189433783
759.724138,,0.0,759.348,0.621999979019165,-2.247944980943146
760.189655,,0.0,759.813,0.6100000143051147,-2.274015642050629
760.655172,,0.0,760.279,0.5960000157356262,-2.304349342020387
761.1206900000001,,0.0,760.745,0.640999972820282,-2.206054068943632
761.5862070000001,,0.0,761.205,0.5920000076293945,-2.3124708341492135
762.051724,,0.0,761.67,0.5789999961853027,-2.340387723752176
762.517241,,0.0,762.135,0.6060000061988831,-2.281103981682436
762.982759,,0.0,762.6,0.5830000042915344,-2.3307125009108454
763.448276,,0.0,763.064,0.6010000109672546,-2.290972080779967
763.9137929999999,,0.0,763.534,0.6100000143051147,-2.2708313809347533
764.37931,,0.0,763.994,0.6019999980926514,-2.287735868621607
764.844828,,0.0,764.464,0.6069999933242798,-2.276342480289613
765.310345,,0.0,764.927,0.5920000076293945,-2.3085624773003164
765.7758620000001,,0.0,765.39,0.5929999947547913,-2.3059793115885685
766.241379,,0.0,765.855,0.6050000190734863,-2.2794985792684734
766.706897,,0.0,766.319,0.5960000157356262,-2.298847180509037
767.172414,,0.0,766.785,0.6060000061988831,-2.2768868209653093
767.637931,,0.0,767.249,0.6200000047683716,-2.246301823868178
768.103448,,0.0,767.715,0.5929999947547913,-2.305133484155468
768.568966,,0.0,768.179,0.625,-2.235516343040171
769.034483,,0.0,768.644,0.609000027179718,-2.270561972516773
769.5,,0.0,769.117,0.5849999785423279,-2.3231188592312657
769.9655170000001,,0.0,769.575,0.6169999837875366,-2.2537450246469355
770.4310340000001,,0.0,770.045,0.5979999899864197,-2.295544628717159
770.8965519999999,,0.0,770.508,0.5950000286102295,-2.3025353262976544
771.362069,,0.0,770.969,0.6060000061988831,-2.2790604240288435
771.827586,,0.0,771.438,0.5360000133514404,-2.4320768278408362
772.293103,,0.0,771.904,0.5920000076293945,-2.3105894377092
772.7586210000001,,0.0,772.367,0.5920000076293945,-2.311095220631189
773.224138,,0.0,772.833,0.6399999856948853,-2.2069967625763427
773.689655,,0.0,773.297,0.5230000019073486,-2.462331577915725
774.155172,,0.0,773.763,0.6100000143051147,-2.273166431537334
774.62069,,0.0,774.228,0.597000002861023,-2.3017980554307655
775.086207,,0.0,774.693,0.5929999947547913,-2.310742867651436
775.551724,,0.0,775.16,0.6240000128746033,-2.243348593528299
776.017241,,0.0,775.626,0.593999981880188,-2.3087608126380017
776.482759,,0.0,776.086,0.640999972820282,-2.2063239850946523
776.9482760000001,,0.0,776.549,0.6019999980926514,-2.2911589836264743
777.413793,,0.0,777.019,0.628000020980835,-2.2342944536058624
777.87931,,0.0,777.482,0.6349999904632568,-2.218743985631194
778.344828,,0.0,777.945,0.6349999904632568,-2.218372766835759
778.810345,,0.0,778.416,0.5920000076293945,-2.3116250871835318
779.275862,,0.0,778.874,0.5929999947547913,-2.308974237260194
779.7413789999999,,0.0,779.345,0.5929999947547913,-2.3084755030952033
780.206897,,0.0,779.81,0.5799999833106995,-2.3362891175072646
780.672414,,0.0,780.275,0.5789999961853027,-2.3379656702841753
781.137931,,0.0,780.741,0.6370000243186951,-2.211123933274729
781.6034480000001,,0.0,781.206,0.6100000143051147,-2.2695031493451188
782.0689659999999,,0.0,781.664,0.6269999742507935,-2.23207125909364
782.5344829999999,,0.0,782.131,0.5979999899864197,-2.2949194204217394
783.0,,0.0,782.597,0.6330000162124634,-2.2184069129310275
783.465517,,0.0,783.06,0.5979999899864197,-2.2944808898665094
783.931034,,0.0,783.53,0.5690000057220459,-2.3575705243971368
784.396552,,0.0,783.994,0.6230000257492065,-2.239923315901744
784.862069,,0.0,784.456,0.6179999709129333,-2.250905961079259
785.327586,,0.0,784.92,0.6010000109672546,-2.288117917567337
785.7931030000001,,0.0,785.39,0.621999979019165,-2.2426215409471655
786.258621,,0.0,785.856,0.5920000076293945,-2.3083079848194226
786.7241379999999,,0.0,786.32,0.597000002861023,-2.2978035403398787
787.189655,,0.0,786.779,0.5960000157356262,-2.300420424006781
787.655172,,0.0,787.245,0.6119999885559082,-2.2660352104934396
788.12069,,0.0,787.711,0.593999981880188,-2.3057432745198816
788.5862070000001,,0.0,788.178,0.5929999947547913,-2.308417950403011
789.051724,,0.0,788.644,0.5920000076293945,-2.311080665735758
789.517241,,0.0,789.105,0.5709999799728394,-2.3572892950692492
789.982759,,0.0,789.575,0.6539999842643738,-2.1768756575273116
790.448276,,0.0,790.035,0.6230000257492065,-2.2447697741528883
790.9137929999999,,0.0,790.505,0.5960000157356262,-2.3038799205139413
791.3793099999999,,0.0,790.968,0.5989999771118164,-2.2975535906827704
791.844828,,0.0,791.43,0.6039999723434448,-2.286786530693164
792.310345,,0.0,791.896,0.6200000047683716,-2.2519664533493295
792.7758620000001,,0.0,792.359,0.5960000157356262,-2.3042033110110105
793.241379,,0.0,792.825,0.5669999718666077,-2.3672474408109414
793.7068969999999,,0.0,793.289,0.6140000224113464,-2.2646331915331337
794.172414,,0.0,793.755,0.6290000081062317,-2.2316607112916165
794.637931,,0.0,794.22,0.625,-2.240015640670641
795.103448,,0.0,794.685,0.6190000176429749,-2.2526726697783714
795.568966,,0.0,795.149,0.6240000128746033,-2.2413232656694486
796.034483,,0.0,795.615,0.5690000057220459,-2.360667381167525
796.5,,0.0,796.086,0.597000002861023,-2.2991753528463925
796.965517,,0.0,796.548,0.6019999980926514,-2.2877998637841745
797.4310340000001,,0.0,797.009,0.6169999837875366,-2.254660174560424
797.8965519999999,,0.0,797.479,0.5839999914169312,-2.326132740814609
798.3620689999999,,0.0,797.939,0.5929999947547913,-2.3061536469624233
798.827586,,0.0,798.408,0.6230000257492065,-2.2404861346326794
799.293103,,0.0,798.874,0.6150000095367432,-2.2576794061302987
799.758621,,0.0,799.337,0.5929999947547913,-2.3054534630336976
800.224138,,0.0,799.803,0.6179999709129333,-2.250916187426916
800.689655,,0.0,800.267,0.5870000123977661,-2.318470535316988
801.155172,,0.0,800.733,0.6200000047683716,-2.2466782732185813
801.62069,,0.0,801.198,0.6050000190734863,-2.279544119531416
802.086207,,0.0,801.664,0.6150000095367432,-2.258020387594205
802.5517239999999,,0.0,802.131,0.6309999823570251,-2.2234923939369224
803.017241,,0.0,802.589,0.6370000243186951,-2.2108066692428268
803.482759,,0.0,803.057,0.6449999809265137,-2.1938065604251076
803.948276,,0.0,803.519,0.6370000243186951,-2.2116932815107315
804.413793,,0.0,803.987,0.6370000243186951,-2.2121649996145862
804.87931,,0.0,804.45,0.5989999771118164,-2.295425374530912
805.344828,,0.0,804.92,0.6019999980926514,-2.2893471955707883
805.810345,,0.0,805.382,0.6100000143051147,-2.2723478461773596
806.275862,,0.0,805.848,0.5879999995231628,-2.320666438916775
806.7413789999999,,0.0,806.312,0.6069999933242798,-2.2796066900578467
807.206897,,0.0,806.778,0.6129999756813049,-2.2668045553309137
807.672414,,0.0,807.243,0.6330000162124634,-2.2234267170010122
808.137931,,0.0,807.708,0.6190000176429749,-2.2540416558382006
808.603448,,0.0,808.175,0.5649999976158142,-2.3717187136215836
809.068966,,0.0,808.641,0.6200000047683716,-2.2518393000324015
809.534483,,0.0,809.101,0.6050000190734863,-2.28438254121014
810.0,,0.0,809.571,0.6190000176429749,-2.2536657463775107
810.465517,,0.0,810.031,0.5979999899864197,-2.29912943898914
810.931034,,0.0,810.501,0.5929999947547913,-2.3096721118030987
811.396552,,0.0,810.964,0.5830000042915344,-2.331057330250211
811.862069,,0.0,811.427,0.6240000128746033,-2.241293150381821
812.327586,,0.0,811.893,0.6079999804496765,-2.275686641776339
812.793103,,0.0,812.355,0.6079999804496765,-2.275210825230735
813.2586210000001,,0.0,812.821,0.5929999947547913,-2.307419565452509
813.724138,,0.0,813.287,0.6060000061988831,-2.2786462836226975
814.1896549999999,,0.0,813.752,0.5950000286102295,-2.302195062036306
814.655172,,0.0,814.216,0.6000000238418579,-2.290933353068143
815.12069,,0.0,814.682,0.5910000205039978,-2.310232508049249
815.586207,,0.0,815.149,0.5950000286102295,-2.3012789943259855
816.051724,,0.0,815.615,0.6169999837875366,-2.2531869420752635
816.517241,,0.0,816.075,0.5879999995231628,-2.3162877327420985
816.982759,,0.0,816.545,0.5199999809265137,-2.464442320435078
817.4482760000001,,0.0,817.008,0.5920000076293945,-2.3076738621236723
817.913793,,0.0,817.471,0.5870000123977661,-2.3187449854906648
818.3793099999999,,0.0,817.938,0.597000002861023,-2.2972128134042094
818.844828,,0.0,818.401,0.5830000042915344,-2.3280363652734257
819.310345,,0.0,818.867,0.640999972820282,-2.20205426472791
819.775862,,0.0,819.331,0.6010000109672546,-2.2896233112597124
820.241379,,0.0,819.796,0.6150000095367432,-2.259575685310187
820.706897,,0.0,820.26,0.6079999804496765,-2.2752959765256198
821.172414,,0.0,820.726,0.6140000224113464,-2.262694880151229
821.6379310000001,,0.0,821.191,0.6150000095367432,-2.260973347487496
822.1034480000001,,0.0,821.656,0.6119999885559082,-2.2679381205761837
822.5689659999999,,0.0,822.124,0.5799999833106995,-2.338042597581032
823.034483,,0.0,822.59,0.6100000143051147,-2.2730181956908417
823.5,,0.0,823.053,0.625,-2.2406097959606432
823.965517,,0.0,823.515,0.6039999723434448,-2.286559787326186
824.431034,,0.0,823.984,0.5929999947547913,-2.3106447719133487
824.896552,,0.0,824.447,0.6169999837875366,-2.2583954409981977
825.362069,,0.0,824.914,0.5920000076293945,-2.3128169208890625
825.827586,,0.0,825.379,0.5879999995231628,-2.3214060500317513
826.293103,,0.0,825.844,0.6079999804496765,-2.277631186276441
826.758621,,0.0,826.31,0.6330000162124634,-2.2228918733376286
827.224138,,0.0,826.775,0.5899999737739563,-2.316238022495474
827.689655,,0.0,827.234,0.5809999704360962,-2.3354591854805373
828.155172,,0.0,827.7,0.640999972820282,-2.20431502736533
828.6206900000001,,0.0,828.165,0.6330000162124634,-2.2212919748273543
829.0862070000001,,0.0,828.631,0.6169999837875366,-2.255685156921965
829.551724,,0.0,829.094,0.5889999866485596,-2.3162249971010436
830.017241,,0.0,829.564,0.6359999775886536,-2.2133842840581943
830.482759,,0.0,830.027,0.5669999718666077,-2.3632991556420215
830.948276,,0.0,830.49,0.5960000157356262,-2.299752797491227
831.4137929999999,,0.0,830.961,0.6060000061988831,-2.2776589528527036
831.87931,,0.0,831.423,0.574999988079071,-2.3449571182893214
832.344828,,0.0,831.889,0.5870000123977661,-2.3186488643405188
832.810345,,0.0,832.351,0.6359999775886536,-2.2118105440464433
833.2758620000001,,0.0,832.817,0.5989999771118164,-2.292416910783059
833.741379,,0.0,833.282,0.5860000252723694,-2.3208171418470207
834.2068969999999,,0.0,833.748,0.6060000061988831,-2.2774017840058978
834.672414,,0.0,834.213,0.6169999837875366,-2.2536680540395033
835.137931,,0.0,834.678,0.6079999804496765,-2.273572900805558
835.603448,,0.0,835.145,0.5839999914169312,-2.3262140942459024
836.068966,,0.0,835.604,0.6100000143051147,-2.2699686734813973
836.534483,,0.0,836.072,0.6190000176429749,-2.250792728680947
837.0,,0.0,836.534,0.5929999947547913,-2.307887844087626
837.4655170000001,,0.0,837.005,0.5979999899864197,-2.2974494665641743
837.9310340000001,,0.0,837.467,0.628000020980835,-2.232534753364077
838.3965519999999,,0.0,837.931,0.6179999709129333,-2.2547410452863232
838.862069,,0.0,838.401,0.6060000061988831,-2.281266115363756
839.327586,,0.0,838.866,0.6579999923706055,-2.1683071129545604
839.793103,,0.0,839.33,0.5979999899864197,-2.299295284328769
840.2586210000001,,0.0,839.796,0.6019999980926514,-2.290781291555894
840.724138,,0.0,840.26,0.5910000205039978,-2.314873527335698
841.189655,,0.0,840.719,0.6370000243186951,-2.214705048073364
841.655172,,0.0,841.186,0.6129999756813049,-2.2669620270959743
842.12069,,0.0,841.652,0.5680000185966492,-2.364892478285678
842.586207,,0.0,842.116,0.5799999833106995,-2.338567749156386
843.0517239999999,,0.0,842.582,0.5920000076293945,-2.3121766407424307
843.517241,,0.0,843.049,0.6069999933242798,-2.279190402337294
843.982759,,0.0,843.512,0.5950000286102295,-2.304977504676988
844.4482760000001,,0.0,843.979,0.6159999966621399,-2.2588303059286847
844.913793,,0.0,844.441,0.5929999947547913,-2.3085169306161792
845.37931,,0.0,844.907,0.6209999918937683,-2.2470789977985146
845.844828,,0.0,845.371,0.5929999947547913,-2.3076455487056626
846.310345,,0.0,845.837,0.6489999890327454,-2.1852188523060154
846.775862,,0.0,846.301,0.6209999918937683,-2.2458241294013175
847.2413789999999,,0.0,846.766,0.6299999952316284,-2.225857129879349
847.706897,,0.0,847.231,0.6060000061988831,-2.2778352237096544
848.172414,,0.0,847.696,0.6169999837875366,-2.2536206323482886
848.637931,,0.0,848.161,0.6010000109672546,-2.2882976355551357
849.1034480000001,,0.0,848.627,0.5899999737739563,-2.3121560201966247
849.5689659999999,,0.0,849.09,0.6140000224113464,-2.2598395893164773
850.0344829999999,,0.0,849.559,0.5929999947547913,-2.305641191370751
850.5,,0.0,850.02,0.640999972820282,-2.2011924309251865
850.965517,,0.0,850.489,0.597000002861023,-2.297251101407886
851.431034,,0.0,850.953,0.5989999771118164,-2.2931582506116777
851.896552,,0.0,851.416,0.6060000061988831,-2.2782304817492696
852.362069,,0.0,851.881,0.6079999804496765,-2.274243939706965
852.827586,,0.0,852.345,0.5640000104904175,-2.3705118507170764
853.2931030000001,,0.0,852.811,0.5910000205039978,-2.3121205715116355
853.758621,,0.0,853.275,0.6179999709129333,-2.2537398090904146
854.2241379999999,,0.0,853.741,0.5960000157356262,-2.3021077984353804
854.689655,,0.0,854.206,0.6209999918937683,-2.2480604379865876
855.155172,,0.0,854.672,0.6000000238418579,-2.2941983401128825
855.62069,,0.0,855.139,0.6200000047683716,-2.2509668821586866
856.0862070000001,,0.0,855.604,0.5920000076293945,-2.312254983727077
856.551724,,0.0,856.067,0.5929999947547913,-2.310298296114358
857.017241,,0.0,856.53,0.6259999871253967,-2.238553631270401
857.482759,,0.0,856.998,0.6010000109672546,-2.293093776508067
857.948276,,0.0,857.46,0.6019999980926514,-2.2909102997140987
858.4137929999999,,0.0,857.931,0.6460000276565552,-2.1949657736731165
858.8793099999999,,0.0,858.393,0.5879999995231628,-2.321166686527563
859.344828,,0.0,858.858,0.5950000286102295,-2.305684768442863
859.810345,,0.0,859.324,0.5929999947547913,-2.309748615370133
860.275862,,0.0,859.789,0.5879999995231628,-2.320295531737151
860.741379,,0.0,860.254,0.5920000076293945,-2.3111929858146785
861.206897,,0.0,860.719,0.6330000162124634,-2.221450307495184
861.672414,,0.0,861.179,0.6179999709129333,-2.253693942499743
862.137931,,0.0,861.644,0.6119999885559082,-2.266325224478202
862.603448,,0.0,862.117,0.6060000061988831,-2.2789668056808754
863.068966,,0.0,862.575,0.48399999737739563,-2.5443584117681084
863.534483,,0.0,863.045,0.6000000238418579,-2.291273414212679
