Trial: ,33
Threshold: ,0.0
Maximum EMG: ,0.0
Success: ,True

EMG Time,Raw EMG,Filtered EMG,Force Time,Raw Force (V),Filtered Force (N)
0.0,samples,0.0,0.466,0.5379999876022339,-2.42769111123575
0.46551699999999996,time,0.0,0.93,0.492000013589859,-2.527634760518486
0.9310339999999999,value,0.0,1.396,0.5210000276565552,-2.4641960425081875
1.396552,,0.0,1.861,0.5289999842643738,-2.4465328970707696
1.862069,,0.0,2.326,0.6000000238418579,-2.2916434309648865
2.327586,,0.0,2.79,0.503000020980835,-2.502801155749627
2.793103,,0.0,3.26,0.5180000066757202,-2.4699914950733213
3.258621,,0.0,3.723,0.5180000066757202,-2.469908085941113
3.724138,,0.0,4.185,0.47200000286102295,-2.570092190485627
4.189654999999999,,0.0,4.651,0.5270000100135803,-2.450283962766531
4.655172,,0.0,5.115,0.5049999952316284,-2.4982815383749335
5.12069,,0.0,5.581,0.5090000033378601,-2.48968137494907
5.586207,,0.0,6.048,0.527999997138977,-2.4484448266283976
6.051723999999999,,0.0,6.514,0.527999997138977,-2.4486400124420147
6.517241,,0.0,6.979,0.531000018119812,-2.4423299413389725
6.982759,,0.0,7.445,0.5230000019073486,-2.4600086888106985
7.448276,,0.0,7.905,0.5130000114440918,-2.4820608384084255
7.913793000000001,,0.0,8.37,0.515999972820282,-2.4757989477620415
8.379309999999998,,0.0,8.838,0.46399998664855957,-2.589363425167386
8.844828000000001,,0.0,9.3,0.515999972820282,-2.476341534789618
9.310345,,0.0,9.764,0.5049999952316284,-2.5005583826697313
9.775862,,0.0,10.233,0.5130000114440918,-2.483356195045318
10.241379,,0.0,10.697,0.5199999809265137,-2.468300685920333
10.706897,,0.0,11.159,0.5199999809265137,-2.468457059605884
11.172414,,0.0,11.625,0.5049999952316284,-2.5012498209489493
11.637931,,0.0,12.089,0.527999997138977,-2.4512072572495476
12.103447999999998,,0.0,12.554,0.5210000276565552,-2.466474969569667
12.568966000000001,,0.0,13.019,0.5199999809265137,-2.4686212262349674
13.034483,,0.0,13.485,0.5199999809265137,-2.468540320161439
13.5,,0.0,13.95,0.515999972820282,-2.477128398747647
13.965517,,0.0,14.415,0.5049999952316284,-2.5009258132934846
14.431034,,0.0,14.882,0.5210000276565552,-2.4658641432011077
14.896552,,0.0,15.348,0.4790000021457672,-2.5571356382259034
15.362069,,0.0,15.812,0.5109999775886536,-2.4871665366025337
15.827586000000002,,0.0,16.274,0.5120000243186951,-2.4847224142556783
16.293103,,0.0,16.742,0.5109999775886536,-2.486630542224612
16.758621,,0.0,17.204,0.5,-2.510328481384506
17.224138,,0.0,17.671,0.5090000033378601,-2.490465567514472
17.689655,,0.0,18.134,0.5130000114440918,-2.4815157192346966
18.155172,,0.0,18.599,0.5270000100135803,-2.4508059463461667
18.62069,,0.0,19.064,0.5460000038146973,-2.409234988937874
19.086207,,0.0,19.53,0.531000018119812,-2.4417748963634853
19.551724,,0.0,19.996,0.5170000195503235,-2.472177849768342
20.017241000000002,,0.0,20.462,0.5170000195503235,-2.472125278450855
20.482758999999998,,0.0,20.926,0.515999972820282,-2.4742989725168956
20.948276,,0.0,21.392,0.5289999842643738,-2.446018943216375
21.413793000000002,,0.0,21.858,0.5059999823570251,-2.496216470681999
21.87931,,0.0,22.324,0.527999997138977,-2.448418364383298
22.344828,,0.0,22.787,0.5289999842643738,-2.446411049139546
22.810344999999998,,0.0,23.256,0.5040000081062317,-2.5010823216170497
23.275862,,0.0,23.719,0.5299999713897705,-2.4446704510922728
23.741379,,0.0,24.181,0.5040000081062317,-2.5015687380280265
24.206897,,0.0,24.647,0.5139999985694885,-2.4800486949602134
24.672414,,0.0,25.11,0.5289999842643738,-2.4476398517617675
25.137931,,0.0,25.576,0.5139999985694885,-2.4805859007995066
25.603448,,0.0,26.041,0.49399998784065247,-2.5244130289077207
26.068966,,0.0,26.506,0.5270000100135803,-2.452751874688853
26.534483,,0.0,26.971,0.5419999957084656,-2.4202781461384664
27.0,,0.0,27.437,0.5509999990463257,-2.400840081288017
27.465517,,0.0,27.904,0.5239999890327454,-2.459791780659772
27.931034,,0.0,28.37,0.5299999713897705,-2.4468031819537424
28.396552,,0.0,28.83,0.5239999890327454,-2.4599112509436583
28.862069,,0.0,29.3,0.5220000147819519,-2.4642567457112268
29.327586,,0.0,29.763,0.5339999794960022,-2.43805373209912
29.793103000000002,,0.0,30.226,0.5299999713897705,-2.446663097750651
30.258620999999998,,0.0,30.69,0.527999997138977,-2.4508724937606576
30.724138,,0.0,31.159,0.503000020980835,-2.505153577785996
31.189655000000002,,0.0,31.625,0.5329999923706055,-2.4395781186757937
31.655172000000004,,0.0,32.089,0.5249999761581421,-2.456766683408293
32.12069,,0.0,32.554,0.5049999952316284,-2.500082044900267
32.586207,,0.0,33.019,0.5180000066757202,-2.4714938372383077
33.051724,,0.0,33.485,0.5180000066757202,-2.471228143725516
33.517241000000006,,0.0,33.945,0.5090000033378601,-2.4905785618433507
33.982759,,0.0,34.411,0.5260000228881836,-2.453300327650111
34.448276,,0.0,34.876,0.5230000019073486,-2.4596184938746535
34.913793,,0.0,35.342,0.5410000085830688,-2.420214468951501
35.37931,,0.0,35.804,0.503000020980835,-2.5028501844252666
35.844828,,0.0,36.274,0.5019999742507935,-2.504917200436013
36.310345,,0.0,36.734,0.5270000100135803,-2.450384014863333
36.775862,,0.0,37.204,0.5170000195503235,-2.4721496937159433
37.241378999999995,,0.0,37.667,0.5120000243186951,-2.4830687287947755
37.706897000000005,,0.0,38.13,0.5199999809265137,-2.4657112962743946
38.172414,,0.0,38.596,0.5070000290870667,-2.4941488188905603
38.637931,,0.0,39.06,0.527999997138977,-2.4485521628221063
39.103448,,0.0,39.526,0.5080000162124634,-2.49231458862957
39.568965999999996,,0.0,39.993,0.5080000162124634,-2.492532955823101
40.034483,,0.0,40.459,0.5049999952316284,-2.499309691313924
40.5,,0.0,40.923,0.5210000276565552,-2.4647065240345643
40.965517,,0.0,41.388,0.5239999890327454,-2.45843181729035
41.431034,,0.0,41.852,0.46399998664855957,-2.5894102654528877
41.896552,,0.0,42.315,0.49399998784065247,-2.524302046950274
42.362069000000005,,0.0,42.783,0.5009999871253967,-2.5092864446530245
42.827586000000004,,0.0,43.245,0.527999997138977,-2.450672706486312
43.293103,,0.0,43.716,0.5170000195503235,-2.474814866490899
43.758621,,0.0,44.178,0.5299999713897705,-2.4466308987077205
44.224138,,0.0,44.644,0.5299999713897705,-2.4467259342551366
44.689655,,0.0,45.107,0.4830000102519989,-2.5491717688484967
45.155172,,0.0,45.572,0.5170000195503235,-2.475101106624625
45.620689999999996,,0.0,46.038,0.5080000162124634,-2.494666177199833
46.086206999999995,,0.0,46.503,0.5289999842643738,-2.448826373276525
46.551724,,0.0,46.967,0.5289999842643738,-2.448694952245797
47.017241,,0.0,47.432,0.5299999713897705,-2.446345606601995
47.482759,,0.0,47.898,0.515999972820282,-2.476642457493386
47.948276,,0.0,48.363,0.5170000195503235,-2.4742330999103412
48.413793,,0.0,48.824,0.531000018119812,-2.4434824940283133
48.879310000000004,,0.0,49.293,0.5139999985694885,-2.480259012580333
49.344828,,0.0,49.756,0.5379999876022339,-2.427708225326093
49.810345,,0.0,50.219,0.5059999823570251,-2.4971676646809065
50.275862,,0.0,50.69,0.503000020980835,-2.5034612027317755
50.741379,,0.0,51.152,0.5360000133514404,-2.4313464120218846
51.206897,,0.0,51.618,0.5109999775886536,-2.48562263182584
51.672414,,0.0,52.081,0.5260000228881836,-2.4527881433101655
52.137931,,0.0,52.547,0.5170000195503235,-2.4722818121937005
52.603448,,0.0,53.011,0.5130000114440918,-2.480926490173758
53.068966,,0.0,53.477,0.5130000114440918,-2.4809033232342035
53.534483,,0.0,53.942,0.503000020980835,-2.5027143406317895
54.0,,0.0,54.408,0.5230000019073486,-2.4592127761726292
54.465517,,0.0,54.875,0.5230000019073486,-2.4593280177837236
54.931034,,0.0,55.34,0.515999972820282,-2.47473366116844
55.396552,,0.0,55.801,0.5199999809265137,-2.46620896041015
55.862069,,0.0,56.27,0.531000018119812,-2.4424620854135823
56.327586,,0.0,56.731,0.5019999742507935,-2.505882722412155
56.793102999999995,,0.0,57.2,0.5419999957084656,-2.4189901173870445
57.258621000000005,,0.0,57.664,0.6269999742507935,-2.2340613236841125
57.724138,,0.0,58.126,0.5090000033378601,-2.491391196286342
58.189655,,0.0,58.592,0.5170000195503235,-2.474199063610284
58.655172,,0.0,59.056,0.503000020980835,-2.5049197485382972
59.120689999999996,,0.0,59.522,0.515999972820282,-2.4767927591852343
59.586207,,0.0,59.987,0.5329999923706055,-2.439920099105014
60.051724,,0.0,60.452,0.5099999904632568,-2.4901569271471646
60.517241,,0.0,60.919,0.515999972820282,-2.477172874853589
60.982758999999994,,0.0,61.385,0.492000013589859,-2.529506015711388
61.448276,,0.0,61.845,0.5180000066757202,-2.4728635268622634
61.913793,,0.0,62.315,0.5180000066757202,-2.4728220307182838
62.379310000000004,,0.0,62.778,0.5260000228881836,-2.4553080896127324
62.84482800000001,,0.0,63.241,0.503000020980835,-2.505291887621777
63.310345000000005,,0.0,63.704,0.5210000276565552,-2.4659149295536467
63.775862000000004,,0.0,64.174,0.5299999713897705,-2.4461144885182016
64.241379,,0.0,64.64,0.4909999966621399,-2.53086368803856
64.706897,,0.0,65.102,0.5509999990463257,-2.3999083503768577
65.172414,,0.0,65.568,0.531000018119812,-2.443232907274877
65.637931,,0.0,66.035,0.515999972820282,-2.4756601112152747
66.103448,,0.0,66.5,0.503000020980835,-2.5037347652397792
66.56896599999999,,0.0,66.96,0.5170000195503235,-2.472999322174796
67.03448300000001,,0.0,67.425,0.515999972820282,-2.474964212093117
67.5,,0.0,67.89,0.5130000114440918,-2.481313319365641
67.965517,,0.0,68.356,0.5270000100135803,-2.4506583685217427
68.431034,,0.0,68.819,0.5230000019073486,-2.4592564973228166
68.896552,,0.0,69.289,0.5080000162124634,-2.4918609751566922
69.362069,,0.0,69.753,0.5299999713897705,-2.443899452446214
69.827586,,0.0,70.215,0.5139999985694885,-2.4787711183961862
70.293103,,0.0,70.679,0.5139999985694885,-2.4788289346008456
70.75862099999999,,0.0,71.149,0.5210000276565552,-2.4636790002269326
71.22413800000001,,0.0,71.614,0.515999972820282,-2.4747125779847807
71.689655,,0.0,72.078,0.5049999952316284,-2.498853277786199
72.15517200000001,,0.0,72.544,0.5149999856948853,-2.4772725893538996
72.62069,,0.0,73.009,0.5059999823570251,-2.497109886982618
73.086207,,0.0,73.474,0.5049999952316284,-2.499534504384478
73.551724,,0.0,73.934,0.5270000100135803,-2.4518586959039887
74.017241,,0.0,74.4,0.5099999904632568,-2.4891501864193364
74.482759,,0.0,74.864,0.49000000953674316,-2.532969918272775
74.94827599999999,,0.0,75.329,0.5120000243186951,-2.485271520512434
75.41379300000001,,0.0,75.797,0.5130000114440918,-2.4833020124319583
75.87931,,0.0,76.259,0.5339999794960022,-2.4377291521949744
76.344828,,0.0,76.727,0.5130000114440918,-2.4836228077455798
76.810345,,0.0,77.189,0.503000020980835,-2.505510725469213
77.275862,,0.0,77.655,0.5210000276565552,-2.4663529419841854
77.741379,,0.0,78.121,0.5249999761581421,-2.4576503528000573
78.206897,,0.0,78.586,0.503000020980835,-2.5055458811047884
78.67241399999999,,0.0,79.052,0.5019999742507935,-2.5076452284556376
79.137931,,0.0,79.518,0.5009999871253967,-2.5097026280419
79.603448,,0.0,79.982,0.5239999890327454,-2.4594340570435667
80.068966,,0.0,80.448,0.5419999957084656,-2.4200241333886736
80.53448300000001,,0.0,80.913,0.5339999794960022,-2.4372297359528234
81.0,,0.0,81.378,0.5090000033378601,-2.4914504501279904
81.465517,,0.0,81.841,0.515999972820282,-2.4759415045964555
81.931034,,0.0,82.304,0.5299999713897705,-2.4451772145459367
82.396552,,0.0,82.771,0.5289999842643738,-2.4470957569740746
82.86206899999999,,0.0,83.234,0.5170000195503235,-2.472990951707353
83.327586,,0.0,83.704,0.5170000195503235,-2.472762559029647
83.79310299999999,,0.0,84.167,0.5120000243186951,-2.4834553216463138
84.258621,,0.0,84.632,0.5099999904632568,-2.4876469519397544
84.72413800000001,,0.0,85.095,0.5130000114440918,-2.480985530637239
85.189655,,0.0,85.561,0.5070000290870667,-2.493976478569039
85.65517200000001,,0.0,86.027,0.5090000033378601,-2.4895857006166
86.12069,,0.0,86.493,0.515999972820282,-2.4743501490411495
86.586207,,0.0,86.96,0.5199999809265137,-2.4656981548136634
87.051724,,0.0,87.425,0.5049999952316284,-2.4984862364513294
87.517241,,0.0,87.89,0.5239999890327454,-2.457242748773416
87.98275899999999,,0.0,88.356,0.5080000162124634,-2.4922894326653964
88.448276,,0.0,88.816,0.5540000200271606,-2.3922907885181144
88.913793,,0.0,89.286,0.5139999985694885,-2.4796792115347657
89.37931,,0.0,89.748,0.527999997138977,-2.449436330342604
89.844828,,0.0,90.211,0.5419999957084656,-2.4192009549524163
90.310345,,0.0,90.679,0.5299999713897705,-2.4456089636354954
90.775862,,0.0,91.142,0.492000013589859,-2.528652631614172
91.241379,,0.0,91.608,0.515999972820282,-2.4766042007610105
91.706897,,0.0,92.075,0.5080000162124634,-2.494248620916281
92.17241399999999,,0.0,92.541,0.5139999985694885,-2.4813611204326547
92.63793100000001,,0.0,93.004,0.5339999794960022,-2.4379351153271878
93.103448,,0.0,93.47,0.5400000214576721,-2.424966849762019
93.568966,,0.0,93.934,0.5070000290870667,-2.4969193471511355
94.03448300000001,,0.0,94.4,0.5339999794960022,-2.43810507102218
94.5,,0.0,94.864,0.5239999890327454,-2.4598521454755007
94.965517,,0.0,95.33,0.6060000061988831,-2.2811144402982406
95.431034,,0.0,95.793,0.4959999918937683,-2.52063040127591
95.896552,,0.0,96.255,0.5339999794960022,-2.4376654676134
96.36206899999999,,0.0,96.723,0.5320000052452087,-2.441812011601838
96.827586,,0.0,97.186,0.515999972820282,-2.4764318595593227
97.293103,,0.0,97.651,0.5329999923706055,-2.4391363150487564
97.758621,,0.0,98.115,0.5049999952316284,-2.499868734381066
98.224138,,0.0,98.581,0.5189999938011169,-2.469095809582712
98.689655,,0.0,99.046,0.5009999871253967,-2.508046704852616
99.155172,,0.0,99.511,0.5009999871253967,-2.5077978684017053
99.62069,,0.0,99.979,0.5049999952316284,-2.498858617468918
100.086207,,0.0,100.445,0.5149999856948853,-2.4768785176754036
100.551724,,0.0,100.904,0.5210000276565552,-2.463649462500368
101.017241,,0.0,101.37,0.5139999985694885,-2.478784202697971
101.482759,,0.0,101.838,0.5180000066757202,-2.4699985881025044
101.948276,,0.0,102.3,0.49300000071525574,-2.5244412967597385
102.413793,,0.0,102.764,0.5249999761581421,-2.454749378786846
102.87931,,0.0,103.234,0.5210000276565552,-2.463535401000674
103.344828,,0.0,103.697,0.5120000243186951,-2.483258796922016
103.810345,,0.0,104.159,0.5199999809265137,-2.465985674226242
104.275862,,0.0,104.625,0.574999988079071,-2.3463500831255764
104.741379,,0.0,105.089,0.5299999713897705,-2.4446060997867165
105.206897,,0.0,105.555,0.503000020980835,-2.503667149786933
105.672414,,0.0,106.019,0.5289999842643738,-2.4472746679975117
106.13793100000001,,0.0,106.484,0.5109999775886536,-2.486749255004958
106.603448,,0.0,106.949,0.5090000033378601,-2.491363987833297
107.068966,,0.0,107.415,0.5249999761581421,-2.4567537275145224
107.534483,,0.0,107.879,0.5199999809265137,-2.467877303862676
108.0,,0.0,108.344,0.5210000276565552,-2.465903770387416
108.46551699999999,,0.0,108.812,0.5049999952316284,-2.500936224299885
108.931034,,0.0,109.274,0.5379999876022339,-2.429178091172596
109.396552,,0.0,109.742,0.5180000066757202,-2.472846734561514
109.862069,,0.0,110.204,0.5249999761581421,-2.4576474207160883
110.32758600000001,,0.0,110.672,0.527999997138977,-2.451116576512904
110.793103,,0.0,111.134,0.5299999713897705,-2.446718121795954
111.258621,,0.0,111.6,0.5299999713897705,-2.4466318353444625
111.724138,,0.0,112.064,0.5239999890327454,-2.459575268874937
112.189655,,0.0,112.53,0.49799999594688416,-2.516054490117012
112.655172,,0.0,112.996,0.5170000195503235,-2.4744633390847857
113.12069,,0.0,113.462,0.5320000052452087,-2.4415615638734067
113.586207,,0.0,113.927,0.515999972820282,-2.4761791306404572
114.051724,,0.0,114.393,0.515999972820282,-2.4759274139156178
114.51724100000001,,0.0,114.86,0.48399999737739563,-2.5453904939604866
114.982759,,0.0,115.319,0.4180000126361847,-2.6889361854105416
115.448276,,0.0,115.786,0.5090000033378601,-2.490451509161438
115.913793,,0.0,116.249,0.5210000276565552,-2.4641020948865706
116.37931,,0.0,116.719,0.5210000276565552,-2.463922576209937
116.84482799999999,,0.0,117.181,0.5170000195503235,-2.47248890049118
117.310345,,0.0,117.647,0.5139999985694885,-2.478912389858557
117.77586199999999,,0.0,118.109,0.527999997138977,-2.4483377513860214
118.241379,,0.0,118.575,0.5189999938011169,-2.4679127421433953
118.70689700000001,,0.0,119.042,0.531000018119812,-2.441777382753705
119.172414,,0.0,119.508,0.5260000228881836,-2.452719813820293
119.63793100000001,,0.0,119.974,0.5139999985694885,-2.4789520867294192
120.103448,,0.0,120.44,0.5210000276565552,-2.46382671595657
120.568966,,0.0,120.905,0.5139999985694885,-2.4792355200779417
121.034483,,0.0,121.371,0.5239999890327454,-2.457635216278147
121.5,,0.0,121.834,0.5180000066757202,-2.4709153194005062
121.96551699999999,,0.0,122.296,0.5429999828338623,-2.416672627755797
122.431034,,0.0,122.764,0.5249999761581421,-2.4561197419222984
122.896552,,0.0,123.227,0.5170000195503235,-2.4737815204182723
123.362069,,0.0,123.69,0.4950000047683716,-2.5219398170016873
123.827586,,0.0,124.159,0.515999972820282,-2.4764052593202126
124.293103,,0.0,124.625,0.5130000114440918,-2.4831403074461003
124.758621,,0.0,125.089,0.531000018119812,-2.4440993623753124
125.22413800000001,,0.0,125.555,0.531000018119812,-2.4442438396398476
125.68965500000002,,0.0,126.019,0.5149999856948853,-2.479212176378396
126.15517200000001,,0.0,126.484,0.5149999856948853,-2.4792848492881325
126.62069000000001,,0.0,126.949,0.515999972820282,-2.4771399088937898
127.086207,,0.0,127.415,0.5249999761581421,-2.4575256534772802
127.55172400000001,,0.0,127.879,0.5080000162124634,-2.4945163996321043
128.017241,,0.0,128.344,0.527999997138977,-2.4508590734003617
128.48275900000002,,0.0,128.804,0.5149999856948853,-2.479061461216557
128.948276,,0.0,129.274,0.515999972820282,-2.476730906244523
129.413793,,0.0,129.738,0.5070000290870667,-2.496159904018246
129.87931,,0.0,130.2,0.5099999904632568,-2.489424266991518
130.344828,,0.0,130.668,0.515999972820282,-2.476137606131765
130.81034499999998,,0.0,131.13,0.5429999828338623,-2.4170899315888654
131.275862,,0.0,131.595,0.5049999952316284,-2.499651486398768
131.741379,,0.0,132.06,0.5109999775886536,-2.4863572307018975
132.206897,,0.0,132.526,0.5109999775886536,-2.486146697235727
132.67241399999997,,0.0,132.99,0.5099999904632568,-2.4881328516404757
133.13793099999998,,0.0,133.455,0.5249999761581421,-2.4552842189105175
133.60344800000001,,0.0,133.92,0.515999972820282,-2.4747512976280097
134.06896600000002,,0.0,134.386,0.5019999742507935,-2.505144211842337
134.53448300000002,,0.0,134.849,0.5080000162124634,-2.492000363696042
135.0,,0.0,135.319,0.5080000162124634,-2.491966861629999
135.465517,,0.0,135.779,0.5090000033378601,-2.4897937985651244
135.931034,,0.0,136.248,0.527999997138977,-2.4484433436031603
136.396552,,0.0,136.712,0.5180000066757202,-2.470309940417883
136.862069,,0.0,137.174,0.5040000081062317,-2.500925113687696
137.327586,,0.0,137.64,0.5270000100135803,-2.4509609292288457
137.793103,,0.0,138.11,0.515999972820282,-2.475096695632775
138.258621,,0.0,138.576,0.515999972820282,-2.475287787347584
138.724138,,0.0,139.037,0.5109999775886536,-2.4863871541340825
139.189655,,0.0,139.502,0.5199999809265137,-2.46699426166389
139.655172,,0.0,139.967,0.527999997138977,-2.4497819578237308
140.12069,,0.0,140.432,0.5070000290870667,-2.4957458537143187
140.586207,,0.0,140.898,0.5360000133514404,-2.4327665836771484
141.05172399999998,,0.0,141.363,0.503000020980835,-2.5048466863494285
141.51724099999998,,0.0,141.826,0.515999972820282,-2.4766872575575687
141.982759,,0.0,142.289,0.5249999761581421,-2.457215752201413
142.44827600000002,,0.0,142.757,0.5270000100135803,-2.4529636223755347
142.913793,,0.0,143.22,0.49000000953674316,-2.5336452662018165
143.37931,,0.0,143.69,0.5249999761581421,-2.4574293541188337
143.844828,,0.0,144.152,0.5090000033378601,-2.492288296158803
144.310345,,0.0,144.618,0.5170000195503235,-2.4748234914339236
144.77586200000002,,0.0,145.081,0.5120000243186951,-2.485646267280057
145.241379,,0.0,145.547,0.5049999952316284,-2.500793933607418
145.706897,,0.0,146.011,0.49900001287460327,-2.513734010669132
146.172414,,0.0,146.477,0.5260000228881836,-2.4547536856322263
146.637931,,0.0,146.942,0.527999997138977,-2.450218441227377
147.103448,,0.0,147.408,0.4819999933242798,-2.550242682590909
147.568966,,0.0,147.875,0.5370000004768372,-2.430214113654212
148.034483,,0.0,148.341,0.5370000004768372,-2.430006859769828
148.5,,0.0,148.804,0.5249999761581421,-2.4559443677607193
148.965517,,0.0,149.267,0.5180000066757202,-2.4709961330976493
149.43103399999998,,0.0,149.73,0.5379999876022339,-2.427238120818323
149.89655199999999,,0.0,150.2,0.5249999761581421,-2.455394296231075
150.362069,,0.0,150.659,0.5299999713897705,-2.444358536448875
150.82758600000003,,0.0,151.13,0.5120000243186951,-2.483460017727885
151.293103,,0.0,151.595,0.515999972820282,-2.4746638156368705
151.758621,,0.0,152.06,0.5149999856948853,-2.4767957549682587
152.224138,,0.0,152.519,0.5299999713897705,-2.4441054793115566
152.68965500000002,,0.0,152.986,0.5149999856948853,-2.476810780882201
153.155172,,0.0,153.452,0.5059999823570251,-2.4964800668979263
153.62069,,0.0,153.92,0.5070000290870667,-2.4943973383500646
154.086207,,0.0,154.385,0.515999972820282,-2.4749172752140334
154.551724,,0.0,154.846,0.4519999921321869,-2.614507027891267
155.017241,,0.0,155.315,0.5249999761581421,-2.4556465616758754
155.482759,,0.0,155.778,0.5139999985694885,-2.4798102681250733
155.948276,,0.0,156.241,0.5189999938011169,-2.469126159373874
156.413793,,0.0,156.709,0.4970000088214874,-2.5172700139954367
156.87931,,0.0,157.171,0.515999972820282,-2.4760876171426927
157.34482799999998,,0.0,157.636,0.5130000114440918,-2.482826812576993
157.81034499999998,,0.0,158.099,0.5210000276565552,-2.4655857216332873
158.275862,,0.0,158.565,0.5379999876022339,-2.428715369293427
158.741379,,0.0,159.03,0.5210000276565552,-2.465891819585366
159.20689700000003,,0.0,159.495,0.5180000066757202,-2.4725363813507077
159.672414,,0.0,159.96,0.515999972820282,-2.4769686334862624
160.137931,,0.0,160.425,0.515999972820282,-2.4770077857081634
160.60344800000001,,0.0,160.89,0.5170000195503235,-2.4748314152448674
161.06896600000002,,0.0,161.355,0.503000020980835,-2.505298405778666
161.534483,,0.0,161.824,0.5400000214576721,-2.424618810186678
162.0,,0.0,162.286,0.5239999890327454,-2.459373668839028
162.465517,,0.0,162.749,0.527999997138977,-2.4505245912835
162.931034,,0.0,163.219,0.5289999842643738,-2.4481850709574777
163.396552,,0.0,163.679,0.5210000276565552,-2.46543198862234
163.862069,,0.0,164.148,0.5339999794960022,-2.4369119980892964
164.327586,,0.0,164.614,0.5519999861717224,-2.3974887392163304
164.793103,,0.0,165.078,0.5149999856948853,-2.47788763461719
165.258621,,0.0,165.544,0.5249999761581421,-2.455894002652558
165.72413799999998,,0.0,166.009,0.5149999856948853,-2.477484321528191
166.189655,,0.0,166.474,0.5120000243186951,-2.4838414411324448
166.655172,,0.0,166.934,0.5210000276565552,-2.4640779583449293
167.12069,,0.0,167.4,0.5120000243186951,-2.4835579804880807
167.58620699999997,,0.0,167.865,0.5299999713897705,-2.444246112753965
168.051724,,0.0,168.33,0.5070000290870667,-2.4942929573485513
168.517241,,0.0,168.801,0.5289999842643738,-2.4463370350265907
168.98275900000002,,0.0,169.263,0.46399998664855957,-2.587961161767027
169.44827600000002,,0.0,169.726,0.5170000195503235,-2.4725427074689863
169.913793,,0.0,170.189,0.45399999618530273,-2.6098843366463713
170.37931,,0.0,170.656,0.5210000276565552,-2.4640351338491544
170.844828,,0.0,171.121,0.5270000100135803,-2.451111705113675
171.310345,,0.0,171.587,0.5170000195503235,-2.473068308141648
171.775862,,0.0,172.053,0.5109999775886536,-2.486326794082394
172.241379,,0.0,172.519,0.515999972820282,-2.475630566457378
172.706897,,0.0,172.986,0.5180000066757202,-2.4714741407276852
173.172414,,0.0,173.444,0.5210000276565552,-2.465136283709786
173.637931,,0.0,173.909,0.5249999761581421,-2.456610535762287
174.103448,,0.0,174.374,0.5120000243186951,-2.485106256201047
174.568966,,0.0,174.845,0.515999972820282,-2.476544715488189
175.034483,,0.0,175.307,0.503000020980835,-2.5049951766122502
175.5,,0.0,175.775,0.414000004529953,-2.698996496595869
175.96551699999998,,0.0,176.238,0.5199999809265137,-2.4681331435934286
176.43103399999998,,0.0,176.701,0.5329999923706055,-2.439851244246494
176.896552,,0.0,177.17,0.5070000290870667,-2.496500602910629
177.36206900000002,,0.0,177.636,0.5210000276565552,-2.4659685520400965
177.827586,,0.0,178.098,0.5210000276565552,-2.465903211031035
178.293103,,0.0,178.564,0.5090000033378601,-2.491949609182103
178.758621,,0.0,179.03,0.5070000290870667,-2.496181141890936
179.224138,,0.0,179.495,0.5379999876022339,-2.4284931117870183
179.68965500000002,,0.0,179.96,0.5080000162124634,-2.4936827253296476
180.155172,,0.0,180.426,0.5109999775886536,-2.486963418690457
180.62069,,0.0,180.89,0.5249999761581421,-2.4562715403093724
181.086207,,0.0,181.356,0.4950000047683716,-2.5214391138891634
181.551724,,0.0,181.819,0.5040000081062317,-2.501645387248779
182.01724099999998,,0.0,182.281,0.5239999890327454,-2.4578984638635015
182.482759,,0.0,182.749,0.5139999985694885,-2.4795277716021036
182.948276,,0.0,183.211,0.515999972820282,-2.475035220908653
183.413793,,0.0,183.679,0.5130000114440918,-2.4814621440238716
183.87931,,0.0,184.141,0.5040000081062317,-2.500991127405633
184.34482799999998,,0.0,184.607,0.5249999761581421,-2.4551932265562746
184.81034499999998,,0.0,185.071,0.49799999594688416,-2.514004169711539
185.27586200000002,,0.0,185.537,0.5049999952316284,-2.4987756197386255
185.74137900000002,,0.0,186.002,0.5040000081062317,-2.501010139456721
186.206897,,0.0,186.467,0.5210000276565552,-2.46406042963441
186.672414,,0.0,186.934,0.5170000195503235,-2.472890285297788
187.137931,,0.0,187.399,0.5440000295639038,-2.4142052190410928
187.60344800000001,,0.0,187.864,0.515999972820282,-2.4753641624597527
188.06896600000002,,0.0,188.329,0.5370000004768372,-2.4297821973757965
188.534483,,0.0,188.79,0.5210000276565552,-2.464817786840164
189.0,,0.0,189.259,0.5139999985694885,-2.4802477341938323
189.465517,,0.0,189.723,0.515999972820282,-2.476066615036855
189.931034,,0.0,190.185,0.5210000276565552,-2.465340430895971
190.39655199999999,,0.0,190.651,0.5049999952316284,-2.500351828964184
190.862069,,0.0,191.115,0.5210000276565552,-2.4656273798267967
191.327586,,0.0,191.58,0.515999972820282,-2.476631350745885
191.793103,,0.0,192.045,0.5099999904632568,-2.489786913368563
192.25862099999998,,0.0,192.511,0.5239999890327454,-2.4593400768556437
192.72413799999998,,0.0,192.978,0.503000020980835,-2.5051147654375594
193.189655,,0.0,193.444,0.5080000162124634,-2.494213318834907
193.655172,,0.0,193.908,0.5540000200271606,-2.393955612759742
194.12069000000002,,0.0,194.374,0.5139999985694885,-2.4810305060472237
194.586207,,0.0,194.834,0.5419999957084656,-2.41992847317724
195.051724,,0.0,195.304,0.5170000195503235,-2.4742696194274556
195.517241,,0.0,195.764,0.5529999732971191,-2.395692111025363
195.98275900000002,,0.0,196.233,0.5199999809265137,-2.4674247534254334
196.448276,,0.0,196.697,0.5040000081062317,-2.502110137414443
196.913793,,0.0,197.16,0.5049999952316284,-2.4997553996764013
197.37931,,0.0,197.625,0.5099999904632568,-2.48868891071065
197.844828,,0.0,198.089,0.5109999775886536,-2.486345392995418
198.310345,,0.0,198.554,0.5239999890327454,-2.4578714077881645
198.775862,,0.0,199.019,0.5210000276565552,-2.464273595589033
199.241379,,0.0,199.485,0.5189999938011169,-2.4685193503375458
199.706897,,0.0,199.95,0.5210000276565552,-2.464076078142705
200.172414,,0.0,200.415,0.5090000033378601,-2.490162631601096
200.63793099999998,,0.0,200.882,0.5270000100135803,-2.4509200732912357
201.103448,,0.0,201.349,0.49399998784065247,-2.522820023513907
201.568966,,0.0,201.812,0.5139999985694885,-2.4792830380809106
202.034483,,0.0,202.274,0.6079999804496765,-2.274554361778625
202.5,,0.0,202.745,0.44999998807907104,-2.618870325959559
202.965517,,0.0,203.208,0.5049999952316284,-2.499159176268325
203.431034,,0.0,203.675,0.5139999985694885,-2.4796879205390576
203.896552,,0.0,204.137,0.5040000081062317,-2.501627189828564
204.36206900000002,,0.0,204.603,0.527999997138977,-2.44950321112237
204.827586,,0.0,205.068,0.5339999794960022,-2.4365993679012528
205.293103,,0.0,205.534,0.5049999952316284,-2.499946841059986
205.758621,,0.0,206.001,0.5289999842643738,-2.4478195959897606
206.224138,,0.0,206.459,0.5419999957084656,-2.4196451613243797
206.689655,,0.0,206.93,0.515999972820282,-2.476420520424617
207.155172,,0.0,207.389,0.5329999923706055,-2.4394924416009345
207.62069,,0.0,207.864,0.5270000100135803,-2.452648343124326
208.086207,,0.0,208.322,0.5170000195503235,-2.4744913655844876
208.551724,,0.0,208.79,0.5170000195503235,-2.4745192134641716
209.01724099999998,,0.0,209.252,0.43799999356269836,-2.646632627360999
209.482759,,0.0,209.72,0.5090000033378601,-2.491922557255396
209.948276,,0.0,210.182,0.5249999761581421,-2.4570116870418266
210.413793,,0.0,210.647,0.5299999713897705,-2.4460390379156274
210.87930999999998,,0.0,211.111,0.5070000290870667,-2.4960441267887568
211.344828,,0.0,211.576,0.5289999842643738,-2.4479897061149476
211.810345,,0.0,212.041,0.5120000243186951,-2.4848859375537753
212.27586200000002,,0.0,212.507,0.5270000100135803,-2.4520536261458736
212.741379,,0.0,212.974,0.5170000195503235,-2.473680601014628
213.206897,,0.0,213.44,0.4950000047683716,-2.521450312030538
213.672414,,0.0,213.904,0.4129999876022339,-2.6999457198775354
214.137931,,0.0,214.37,0.5170000195503235,-2.473225536267226
214.60344800000001,,0.0,214.83,0.5070000290870667,-2.494886975272853
215.068966,,0.0,215.3,0.5210000276565552,-2.4642784737310124
215.534483,,0.0,215.76,0.47999998927116394,-2.5535171159180607
216.0,,0.0,216.23,0.5070000290870667,-2.4946321657394144
216.465517,,0.0,216.69,0.5410000085830688,-2.4205224307639597
216.93103399999998,,0.0,217.16,0.5170000195503235,-2.4727995405869496
217.39655199999999,,0.0,217.626,0.6039999723434448,-2.283270791966673
217.862069,,0.0,218.09,0.515999972820282,-2.475027976737819
218.327586,,0.0,218.555,0.5120000243186951,-2.483801567070174
218.793103,,0.0,219.019,0.5090000033378601,-2.4904197916372963
219.25862099999998,,0.0,219.484,0.5139999985694885,-2.4796295019633448
219.724138,,0.0,219.949,0.5099999904632568,-2.4884645572125055
220.18965500000002,,0.0,220.415,0.5099999904632568,-2.488598823604639
220.65517200000002,,0.0,220.879,0.5329999923706055,-2.4386334517336046
221.12069,,0.0,221.345,0.515999972820282,-2.4758183834297927
221.586207,,0.0,221.808,0.5070000290870667,-2.4955740207825756
222.051724,,0.0,222.27,0.4880000054836273,-2.537112795254026
222.517241,,0.0,222.734,0.5379999876022339,-2.428316649895994
222.98275900000002,,0.0,223.204,0.5199999809265137,-2.4676550399693733
223.448276,,0.0,223.664,0.5070000290870667,-2.496082582229144
223.913793,,0.0,224.134,0.5189999938011169,-2.4700238665296603
224.37931,,0.0,224.6,0.527999997138977,-2.4504777296979943
224.844828,,0.0,225.063,0.5090000033378601,-2.4919083013107572
225.31034499999998,,0.0,225.529,0.5320000052452087,-2.441809092367257
225.775862,,0.0,225.989,0.5339999794960022,-2.4374341804763033
226.241379,,0.0,226.455,0.515999972820282,-2.47660519190259
226.706897,,0.0,226.92,0.5189999938011169,-2.4699994854265834
227.172414,,0.0,227.386,0.5249999761581421,-2.4568352147277053
227.63793099999998,,0.0,227.849,0.5170000195503235,-2.4741519963531826
228.103448,,0.0,228.319,0.5289999842643738,-2.4478795819090546
228.56896600000002,,0.0,228.782,0.5080000162124634,-2.493490236096534
229.03448300000002,,0.0,229.245,0.5120000243186951,-2.4846274524734953
229.5,,0.0,229.715,0.5249999761581421,-2.456154371094853
229.965517,,0.0,230.178,0.5090000033378601,-2.490863864625596
230.431034,,0.0,230.644,0.5139999985694885,-2.479828649654232
230.896552,,0.0,231.106,0.5070000290870667,-2.494948701819938
231.362069,,0.0,231.572,0.5109999775886536,-2.4861195091202166
231.827586,,0.0,232.037,0.5270000100135803,-2.4511652996620645
232.293103,,0.0,232.503,0.5170000195503235,-2.472877441718798
232.758621,,0.0,232.968,0.515999972820282,-2.475005659616269
233.224138,,0.0,233.433,0.5249999761581421,-2.4553726668782385
233.689655,,0.0,233.9,0.531000018119812,-2.442301244839992
234.155172,,0.0,234.359,0.5299999713897705,-2.444505850947533
234.62069,,0.0,234.827,0.5320000052452087,-2.4401987040849122
235.086207,,0.0,235.289,0.5109999775886536,-2.4860237895022532
235.55172399999998,,0.0,235.76,0.49000000953674316,-2.5318708025570973
236.01724099999998,,0.0,236.223,0.5239999890327454,-2.4579118678677307
236.482759,,0.0,236.686,0.5019999742507935,-2.505972857337416
236.94827600000002,,0.0,237.156,0.503000020980835,-2.503936419255415
237.413793,,0.0,237.614,0.503000020980835,-2.5040862469353806
237.87931,,0.0,238.085,0.5210000276565552,-2.46502276736687
238.344828,,0.0,238.544,0.5049999952316284,-2.5000306040067835
238.810345,,0.0,239.009,0.5130000114440918,-2.4827432390676103
239.27586200000002,,0.0,239.475,0.5130000114440918,-2.482873033643013
239.741379,,0.0,239.942,0.5080000162124634,-2.4938797553934218
240.206897,,0.0,240.408,0.5090000033378601,-2.4917948069226084
240.672414,,0.0,240.875,0.5130000114440918,-2.4831509794802615
241.137931,,0.0,241.34,0.5130000114440918,-2.483196378622208
241.603448,,0.0,241.801,0.4300000071525574,-2.664044229625792
242.068966,,0.0,242.27,0.5139999985694885,-2.4810329893085727
242.534483,,0.0,242.734,0.5379999876022339,-2.428713936590165
243.0,,0.0,243.196,0.5170000195503235,-2.47440593669201
243.465517,,0.0,243.664,0.5149999856948853,-2.4786777628168974
243.93103399999998,,0.0,244.127,0.5339999794960022,-2.437174610461582
244.39655199999999,,0.0,244.592,0.5090000033378601,-2.491511841659752
244.862069,,0.0,245.06,0.5189999938011169,-2.4695807625030866
245.327586,,0.0,245.525,0.5009999871253967,-2.5086412332830057
245.793103,,0.0,245.99,0.515999972820282,-2.4758008564141174
246.258621,,0.0,246.456,0.5230000019073486,-2.460388960950126
246.724138,,0.0,246.915,0.5210000276565552,-2.4645890235180308
247.18965500000002,,0.0,247.381,0.5130000114440918,-2.4818704179407467
247.655172,,0.0,247.849,0.5339999794960022,-2.4359851940214985
248.12069,,0.0,248.311,0.5180000066757202,-2.4707281738610196
248.586207,,0.0,248.775,0.5210000276565552,-2.4640992197865303
249.051724,,0.0,249.245,0.550000011920929,-2.400850743172326
249.517241,,0.0,249.705,0.503000020980835,-2.5032070408519282
249.982759,,0.0,250.174,0.5299999713897705,-2.444373241112102
250.44827600000002,,0.0,250.64,0.5249999761581421,-2.455286552191084
250.913793,,0.0,251.103,0.5120000243186951,-2.483659033891243
251.37931000000003,,0.0,251.569,0.5130000114440918,-2.4815599060723694
251.844828,,0.0,252.033,0.5630000233650208,-2.372733269031485
252.31034499999998,,0.0,252.499,0.503000020980835,-2.503580539889988
252.77586200000002,,0.0,252.964,0.49900001287460327,-2.512443442752637
253.241379,,0.0,253.429,0.5130000114440918,-2.4821070656980204
253.706897,,0.0,253.893,0.5260000228881836,-2.453959857484435
254.172414,,0.0,254.359,0.5170000195503235,-2.473747335252931
254.63793099999998,,0.0,254.819,0.5170000195503235,-2.473925625389322
255.10344800000001,,0.0,255.289,0.503000020980835,-2.5045982714848476
255.56896600000002,,0.0,255.749,0.5979999899864197,-2.297784562421699
256.03448299999997,,0.0,256.218,0.5099999904632568,-2.48964302187174
256.5,,0.0,256.679,0.5289999842643738,-2.448362017135494
256.965517,,0.0,257.149,0.515999972820282,-2.4767711335214067
257.431034,,0.0,257.614,0.515999972820282,-2.476828238304765
257.896552,,0.0,258.078,0.5410000085830688,-2.4223871667399326
258.362069,,0.0,258.544,0.515999972820282,-2.476845284714082
258.827586,,0.0,259.008,0.5120000243186951,-2.4855186710222226
259.29310300000003,,0.0,259.473,0.5210000276565552,-2.465838292360409
259.758621,,0.0,259.938,0.515999972820282,-2.4766295609556255
260.224138,,0.0,260.404,0.5049999952316284,-2.5004661929331027
260.689655,,0.0,260.864,0.550000011920929,-2.4022756142671726
261.155172,,0.0,261.33,0.5070000290870667,-2.4957872225995485
261.62068999999997,,0.0,261.797,0.515999972820282,-2.4759961349049036
262.086207,,0.0,262.26,0.5139999985694885,-2.4801631325847207
262.551724,,0.0,262.727,0.515999972820282,-2.475614605581647
263.017241,,0.0,263.19,0.5019999742507935,-2.505929633452081
263.482759,,0.0,263.657,0.503000020980835,-2.503576429053071
263.94827599999996,,0.0,264.121,0.5239999890327454,-2.45766741520558
264.413793,,0.0,264.587,0.5320000052452087,-2.4401018435005524
264.87931,,0.0,265.052,0.503000020980835,-2.5031716900588674
265.34482799999995,,0.0,265.518,0.5249999761581421,-2.455160161543283
265.810345,,0.0,265.986,0.515999972820282,-2.4747189433238015
266.27586199999996,,0.0,266.444,0.5139999985694885,-2.479061144326867
266.741379,,0.0,266.915,0.5350000262260437,-2.433329023880802
267.206897,,0.0,267.374,0.5170000195503235,-2.472598165508923
267.672414,,0.0,267.841,0.503000020980835,-2.503185714501101
268.137931,,0.0,268.311,0.5130000114440918,-2.481516966952404
268.603448,,0.0,268.771,0.5199999809265137,-2.466411780292106
269.06896600000005,,0.0,269.241,0.5,-2.5101531525206995
269.53448299999997,,0.0,269.701,0.5149999856948853,-2.4776602228320637
270.0,,0.0,270.171,0.5270000100135803,-2.4517153369687743
270.465517,,0.0,270.629,0.5199999809265137,-2.4671702970147584
270.931034,,0.0,271.099,0.5170000195503235,-2.473909607737315
271.396552,,0.0,271.565,0.5379999876022339,-2.4283540359285967
271.86206899999996,,0.0,272.03,0.5270000100135803,-2.452500945857001
272.327586,,0.0,272.496,0.5199999809265137,-2.467913575309498
272.793103,,0.0,272.96,0.531000018119812,-2.444085672914477
273.258621,,0.0,273.419,0.5099999904632568,-2.4899456829644215
273.724138,,0.0,273.886,0.5540000200271606,-2.3941605919864193
274.18965499999996,,0.0,274.352,0.5210000276565552,-2.466095616533466
274.655172,,0.0,274.819,0.5080000162124634,-2.494421050340908
275.12069,,0.0,275.281,0.5230000019073486,-2.4617082523816376
275.586207,,0.0,275.745,0.5379999876022339,-2.4289596719879936
276.051724,,0.0,276.215,0.5070000290870667,-2.496394784720649
276.517241,,0.0,276.679,0.5260000228881836,-2.454867082699221
276.98275900000004,,0.0,277.141,0.5249999761581421,-2.456885911450106
277.448276,,0.0,277.607,0.5260000228881836,-2.454525226934643
277.913793,,0.0,278.072,0.5130000114440918,-2.4826495506704505
278.37931,,0.0,278.538,0.503000020980835,-2.5042284336253324
278.844828,,0.0,279.004,0.5049999952316284,-2.499661141325962
279.31034500000004,,0.0,279.47,0.5170000195503235,-2.473311149728945
279.77586199999996,,0.0,279.934,0.5109999775886536,-2.4861868679963246
280.241379,,0.0,280.4,0.5049999952316284,-2.499078499407678
280.706897,,0.0,280.86,0.5099999904632568,-2.4880268841640367
281.172414,,0.0,281.325,0.5109999775886536,-2.485716519798243
281.637931,,0.0,281.793,0.5090000033378601,-2.4899726232814636
282.10344799999996,,0.0,282.256,0.5040000081062317,-2.5007985933784265
282.568966,,0.0,282.723,0.5049999952316284,-2.4985888577763595
283.034483,,0.0,283.185,0.5019999742507935,-2.505130949815397
283.5,,0.0,283.651,0.515999972820282,-2.4746727983907904
283.965517,,0.0,284.115,0.515999972820282,-2.4747507526159045
284.431034,,0.0,284.581,0.5270000100135803,-2.450895616363063
284.89655200000004,,0.0,285.046,0.515999972820282,-2.4749994644526208
285.362069,,0.0,285.512,0.5339999794960022,-2.43594655952734
285.827586,,0.0,285.978,0.503000020980835,-2.5036667229502068
286.293103,,0.0,286.444,0.5139999985694885,-2.4798981844535373
286.758621,,0.0,286.909,0.5049999952316284,-2.499711391841232
287.22413800000004,,0.0,287.374,0.503000020980835,-2.504276721982499
287.689655,,0.0,287.837,0.5139999985694885,-2.4805161444328854
288.155172,,0.0,288.3,0.5220000147819519,-2.463281085119427
288.62069,,0.0,288.767,0.5080000162124634,-2.4939598153861553
289.086207,,0.0,289.23,0.5149999856948853,-2.4788652685201757
289.55172400000004,,0.0,289.701,0.5419999957084656,-2.420170663080555
290.01724099999996,,0.0,290.163,0.5210000276565552,-2.466019509040185
290.482759,,0.0,290.629,0.5049999952316284,-2.500941231754863
290.948276,,0.0,291.091,0.5009999871253967,-2.5096842796503473
291.413793,,0.0,291.557,0.5249999761581421,-2.4573894928591304
291.87931,,0.0,292.023,0.5170000195503235,-2.474775267769716
292.344828,,0.0,292.489,0.5149999856948853,-2.479054448752854
292.81034500000004,,0.0,292.949,0.5099999904632568,-2.489837351986629
293.275862,,0.0,293.414,0.5080000162124634,-2.494055764524835
293.74137900000005,,0.0,293.879,0.5270000100135803,-2.4524981668832146
294.206897,,0.0,294.345,0.515999972820282,-2.4762801770179625
294.672414,,0.0,294.815,0.5210000276565552,-2.4651892139454445
295.13793100000004,,0.0,295.277,0.515999972820282,-2.4758767446393697
295.603448,,0.0,295.745,0.5080000162124634,-2.4930983046006165
296.068966,,0.0,296.208,0.5289999842643738,-2.4471438354695243
296.534483,,0.0,296.671,0.5239999890327454,-2.4578444545907168
297.0,,0.0,297.134,0.5040000081062317,-2.501241130243178
297.46551700000003,,0.0,297.599,0.5130000114440918,-2.4814794346695845
297.931034,,0.0,298.064,0.5440000295639038,-2.413814009842342
298.396552,,0.0,298.529,0.5070000290870667,-2.4943266222142757
298.862069,,0.0,298.994,0.5049999952316284,-2.498620279127465
299.327586,,0.0,299.46,0.5239999890327454,-2.457198322033336
299.79310300000003,,0.0,299.927,0.515999972820282,-2.4746363303454086
300.258621,,0.0,300.393,0.515999972820282,-2.474681210105863
300.724138,,0.0,300.86,0.5270000100135803,-2.4507955518541777
301.189655,,0.0,301.319,0.5210000276565552,-2.4639789415544153
301.65517200000005,,0.0,301.786,0.5540000200271606,-2.3922230535839497
302.12069,,0.0,302.249,0.5239999890327454,-2.457745335483159
302.586207,,0.0,302.719,0.5370000004768372,-2.429604208678883
303.05172400000004,,0.0,303.182,0.5260000228881836,-2.4537641073743175
303.517241,,0.0,303.648,0.5170000195503235,-2.4735747622430906
303.982759,,0.0,304.111,0.5090000033378601,-2.4912094397175757
304.448276,,0.0,304.576,0.5210000276565552,-2.465267783390353
304.913793,,0.0,305.041,0.5289999842643738,-2.4480310827960388
305.37931000000003,,0.0,305.506,0.5540000200271606,-2.3937405917352117
305.844828,,0.0,305.971,0.5210000276565552,-2.4657894783568217
306.310345,,0.0,306.437,0.49000000953674316,-2.533455532608531
306.775862,,0.0,306.905,0.5239999890327454,-2.4594811002673325
307.241379,,0.0,307.37,0.5130000114440918,-2.4835139750675124
307.70689699999997,,0.0,307.834,0.5109999775886536,-2.4879050107144827
308.172414,,0.0,308.296,0.5099999904632568,-2.4900823572061657
308.637931,,0.0,308.764,0.5180000066757202,-2.4726167407518442
309.103448,,0.0,309.226,0.5249999761581421,-2.4572952826595817
309.568966,,0.0,309.69,0.5090000033378601,-2.492049889015927
310.034483,,0.0,310.159,0.5180000066757202,-2.4723088201721555
310.5,,0.0,310.625,0.5120000243186951,-2.485221869092556
310.96551700000003,,0.0,311.089,0.5289999842643738,-2.4480048626513677
311.431034,,0.0,311.555,0.503000020980835,-2.5044535756077297
311.896552,,0.0,312.019,0.5109999775886536,-2.4868186199342226
312.362069,,0.0,312.485,0.515999972820282,-2.4757159134748874
312.827586,,0.0,312.95,0.5299999713897705,-2.445007326959024
313.29310300000003,,0.0,313.416,0.5139999985694885,-2.4796659643802053
313.758621,,0.0,313.875,0.515999972820282,-2.475123105705699
314.224138,,0.0,314.341,0.5299999713897705,-2.4444560236888853
314.689655,,0.0,314.804,0.5230000019073486,-2.459564730781415
315.155172,,0.0,315.274,0.5040000081062317,-2.5008462176349617
315.62068999999997,,0.0,315.738,0.5299999713897705,-2.4441213979440803
316.086207,,0.0,316.2,0.5090000033378601,-2.489828097040608
316.551724,,0.0,316.664,0.5210000276565552,-2.463676147655075
317.017241,,0.0,317.134,0.49000000953674316,-2.5312439330006513
317.482759,,0.0,317.599,0.5180000066757202,-2.4703088194171996
317.94827599999996,,0.0,318.063,0.5090000033378601,-2.4900190242383466
318.413793,,0.0,318.529,0.5189999938011169,-2.4683669030465736
318.87931000000003,,0.0,318.994,0.5170000195503235,-2.4728864220447777
319.344828,,0.0,319.459,0.42399999499320984,-2.67568792515964
319.810345,,0.0,319.924,0.5139999985694885,-2.479817610233652
320.275862,,0.0,320.389,0.5379999876022339,-2.4277508342353036
320.741379,,0.0,320.852,0.5090000033378601,-2.4911562677031758
321.20689699999997,,0.0,321.315,0.5130000114440918,-2.4826638340394735
321.672414,,0.0,321.783,0.5339999794960022,-2.4371251827112723
322.137931,,0.0,322.245,0.5120000243186951,-2.485252032754512
322.603448,,0.0,322.716,0.515999972820282,-2.4767122882034323
323.068966,,0.0,323.178,0.5410000085830688,-2.4223932266839583
323.53448299999997,,0.0,323.644,0.503000020980835,-2.5052968067280554
324.0,,0.0,324.106,0.5339999794960022,-2.4378382484462033
324.465517,,0.0,324.572,0.5059999823570251,-2.4988820800116174
324.931034,,0.0,325.038,0.5170000195503235,-2.4749196791691084
325.396552,,0.0,325.503,0.5040000081062317,-2.503206381296815
325.86206899999996,,0.0,325.969,0.5070000290870667,-2.4965973225209073
326.327586,,0.0,326.435,0.5199999809265137,-2.468166681304827
326.793103,,0.0,326.901,0.5080000162124634,-2.494169762656807
327.258621,,0.0,327.359,0.5170000195503235,-2.4743932020774317
327.724138,,0.0,327.827,0.5009999871253967,-2.509060123455072
328.189655,,0.0,328.289,0.5299999713897705,-2.4456706075732666
328.655172,,0.0,328.76,0.5180000066757202,-2.4715941319555763
329.12068999999997,,0.0,329.222,0.5429999828338623,-2.4169023834395458
329.586207,,0.0,329.69,0.5170000195503235,-2.473322860588653
330.051724,,0.0,330.152,0.5130000114440918,-2.4818218361276565
330.517241,,0.0,330.618,0.503000020980835,-2.503408796877186
330.982759,,0.0,331.082,0.5040000081062317,-2.5010533566736917
331.44827599999996,,0.0,331.547,0.5410000085830688,-2.4202940969632105
331.913793,,0.0,332.012,0.515999972820282,-2.4746424125153426
332.37931,,0.0,332.477,0.5210000276565552,-2.4636661184598063
332.844828,,0.0,332.941,0.5249999761581421,-2.4549066027878648
333.310345,,0.0,333.407,0.5139999985694885,-2.4788660120367365
333.77586199999996,,0.0,333.873,0.5339999794960022,-2.435326995714966
334.241379,,0.0,334.339,0.5400000214576721,-2.4223269963431244
334.706897,,0.0,334.801,0.527999997138977,-2.4485784835529687
335.17241399999995,,0.0,335.271,0.5180000066757202,-2.47050568976121
335.637931,,0.0,335.734,0.5260000228881836,-2.453246648259005
336.103448,,0.0,336.196,0.4970000088214874,-2.516622582551454
336.56896600000005,,0.0,336.667,0.5040000081062317,-2.5015870224202743
337.034483,,0.0,337.13,0.5239999890327454,-2.458242426939455
337.5,,0.0,337.595,0.5210000276565552,-2.4650122654797357
337.965517,,0.0,338.06,0.5239999890327454,-2.458708561652477
338.431034,,0.0,338.519,0.515999972820282,-2.4763611308570974
338.89655200000004,,0.0,338.986,0.531000018119812,-2.44388891771597
339.36206899999996,,0.0,339.452,0.515999972820282,-2.4767541254698577
339.827586,,0.0,339.916,0.5180000066757202,-2.4725543623190163
340.293103,,0.0,340.382,0.5139999985694885,-2.481394174451934
340.758621,,0.0,340.845,0.5260000228881836,-2.4553390321462283
341.224138,,0.0,341.315,0.5070000290870667,-2.4967826582985793
341.68965499999996,,0.0,341.775,0.5090000033378601,-2.492434071644198
342.155172,,0.0,342.246,0.515999972820282,-2.4771512660478976
342.62069,,0.0,342.708,0.5170000195503235,-2.4748996306501674
343.086207,,0.0,343.171,0.5120000243186951,-2.4856813250332843
343.551724,,0.0,343.636,0.5339999794960022,-2.4376038565124296
344.01724099999996,,0.0,344.099,0.5170000195503235,-2.474461639231827
344.48275900000004,,0.0,344.564,0.5249999761581421,-2.456826842626983
344.948276,,0.0,345.03,0.5059999823570251,-2.4979954415126078
345.413793,,0.0,345.495,0.5130000114440918,-2.482506291551598
345.87931,,0.0,345.96,0.5299999713897705,-2.4452249529568144
346.344828,,0.0,346.425,0.5180000066757202,-2.471125300521423
346.81034500000004,,0.0,346.89,0.531000018119812,-2.442567812692442
347.275862,,0.0,347.356,0.531000018119812,-2.4423481087665477
347.741379,,0.0,347.819,0.5090000033378601,-2.4900810398977025
348.206897,,0.0,348.289,0.5320000052452087,-2.4398036372062175
348.672414,,0.0,348.752,0.5249999761581421,-2.4549197428292207
349.13793100000004,,0.0,349.215,0.503000020980835,-2.5027539987381147
349.60344799999996,,0.0,349.683,0.5419999957084656,-2.417732815357124
350.068966,,0.0,350.145,0.5419999957084656,-2.4177218074281774
350.534483,,0.0,350.611,0.5130000114440918,-2.4809349830005725
351.0,,0.0,351.078,0.5249999761581421,-2.454867268768979
351.465517,,0.0,351.543,0.5130000114440918,-2.4811289472634206
351.93103399999995,,0.0,352.009,0.5090000033378601,-2.4900005090442607
352.396552,,0.0,352.475,0.5230000019073486,-2.4596909454120923
352.862069,,0.0,352.934,0.5210000276565552,-2.464268240373583
353.32758600000005,,0.0,353.399,0.49000000953674316,-2.5320488192972834
353.793103,,0.0,353.866,0.5120000243186951,-2.4843767448891394
354.258621,,0.0,354.331,0.5180000066757202,-2.4715707049829594
354.72413800000004,,0.0,354.8,0.5299999713897705,-2.4456913097909965
355.189655,,0.0,355.263,0.5400000214576721,-2.4241585535227386
355.655172,,0.0,355.731,0.5149999856948853,-2.4788601627578997
356.12069,,0.0,356.193,0.5149999856948853,-2.479070268269316
356.586207,,0.0,356.664,0.5139999985694885,-2.481427620315812
357.05172400000004,,0.0,357.119,0.5339999794960022,-2.4379959457761826
357.517241,,0.0,357.584,0.5019999742507935,-2.50781177437513
357.982759,,0.0,358.056,0.515999972820282,-2.4773647044065363
358.448276,,0.0,358.514,0.5299999713897705,-2.4468704204369134
358.913793,,0.0,358.982,0.5090000033378601,-2.4925806180048995
359.37931000000003,,0.0,359.447,0.5199999809265137,-2.4685272335879405
359.844828,,0.0,359.912,0.5210000276565552,-2.4662156096835925
360.310345,,0.0,360.377,0.5120000243186951,-2.4856497052693114
360.775862,,0.0,360.845,0.5199999809265137,-2.4680112019206955
361.241379,,0.0,361.307,0.4909999966621399,-2.5309535513736487
361.706897,,0.0,361.775,0.4959999918937683,-2.5198007946437744
362.172414,,0.0,362.238,0.5170000195503235,-2.4737762515717643
362.63793100000004,,0.0,362.701,0.531000018119812,-2.442996068394886
363.103448,,0.0,363.171,0.5249999761581421,-2.4557903789508098
363.568966,,0.0,363.629,0.5339999794960022,-2.4359145842745122
364.034483,,0.0,364.099,0.5419999957084656,-2.418235084046104
364.5,,0.0,364.565,0.4970000088214874,-2.5160499232184206
364.96551700000003,,0.0,365.03,0.5049999952316284,-2.498430882987709
365.431034,,0.0,365.489,0.531000018119812,-2.4416367536460277
365.896552,,0.0,365.957,0.5130000114440918,-2.480748074980536
366.362069,,0.0,366.422,0.5099999904632568,-2.48722834102735
366.827586,,0.0,366.89,0.5170000195503235,-2.4719730915755025
367.29310300000003,,0.0,367.355,0.5040000081062317,-2.5003425854773007
367.758621,,0.0,367.816,0.5170000195503235,-2.4721178771685337
368.224138,,0.0,368.285,0.5120000243186951,-2.4831568061560545
368.689655,,0.0,368.746,0.5669999718666077,-2.3635196098557287
369.155172,,0.0,369.215,0.4259999990463257,-2.670935390097856
369.62068999999997,,0.0,369.675,0.550000011920929,-2.4010422895388546
370.086207,,0.0,370.145,0.44699999690055847,-2.625727875665785
370.55172400000004,,0.0,370.611,0.5049999952316284,-2.4996679001884776
371.017241,,0.0,371.075,0.515999972820282,-2.4760116785906834
371.482759,,0.0,371.534,0.5419999957084656,-2.419671151457942
371.948276,,0.0,372.0,0.5170000195503235,-2.474426960595194
372.413793,,0.0,372.466,0.5080000162124634,-2.4943011236495405
372.87931000000003,,0.0,372.93,0.49399998784065247,-2.5250378601549803
373.344828,,0.0,373.396,0.5139999985694885,-2.481662445909395
373.810345,,0.0,373.86,0.5170000195503235,-2.475279048113937
374.275862,,0.0,374.326,0.5090000033378601,-2.492810431770178
374.741379,,0.0,374.794,0.5070000290870667,-2.4972161086165743
375.20689699999997,,0.0,375.256,0.5299999713897705,-2.447099906829332
375.672414,,0.0,375.719,0.527999997138977,-2.4513929750163963
376.137931,,0.0,376.189,0.5130000114440918,-2.4839532908414466
376.603448,,0.0,376.655,0.531000018119812,-2.444566646124433
377.068966,,0.0,377.121,0.5090000033378601,-2.4922795433828187
377.53448299999997,,0.0,377.579,0.5120000243186951,-2.4854866505317155
378.0,,0.0,378.045,0.5049999952316284,-2.5004491514996743
378.465517,,0.0,378.511,0.4410000145435333,-2.639573603907105
378.931034,,0.0,378.974,0.5249999761581421,-2.456247612775941
379.396552,,0.0,379.44,0.5070000290870667,-2.4951413823353574
379.862069,,0.0,379.905,0.515999972820282,-2.4752184606024206
380.327586,,0.0,380.371,0.5189999938011169,-2.4683835978454622
380.79310300000003,,0.0,380.834,0.5149999856948853,-2.4768248195063016
381.258621,,0.0,381.304,0.5339999794960022,-2.435190952112353
381.724138,,0.0,381.764,0.5049999952316284,-2.4981736133745573
382.189655,,0.0,382.234,0.5109999775886536,-2.484952098981395
382.655172,,0.0,382.697,0.5120000243186951,-2.482677451803014
383.12068999999997,,0.0,383.159,0.5289999842643738,-2.445601247171868
383.586207,,0.0,383.625,0.5260000228881836,-2.452155518282876
384.051724,,0.0,384.089,0.5299999713897705,-2.4435166874850744
384.517241,,0.0,384.555,0.5059999823570251,-2.495935617612494
384.982759,,0.0,385.019,0.5139999985694885,-2.478690544510515
385.44827599999996,,0.0,385.484,0.5070000290870667,-2.4941729693333454
385.913793,,0.0,385.949,0.5130000114440918,-2.481374042226407
386.37931,,0.0,386.415,0.5009999871253967,-2.507823787078971
386.84482799999995,,0.0,386.882,0.515999972820282,-2.4754737643174822
387.310345,,0.0,387.348,0.5019999742507935,-2.5063181753682233
387.775862,,0.0,387.816,0.5040000081062317,-2.5023073907530193
388.241379,,0.0,388.278,0.5339999794960022,-2.437286670615872
388.70689699999997,,0.0,388.741,0.5120000243186951,-2.485536286843622
389.172414,,0.0,389.204,0.515999972820282,-2.4771120659586217
389.637931,,0.0,389.675,0.5019999742507935,-2.507865524810265
390.103448,,0.0,390.137,0.5389999747276306,-2.427461599266036
390.56896600000005,,0.0,390.603,0.5090000033378601,-2.492973516208707
391.03448299999997,,0.0,391.068,0.5260000228881836,-2.4560303311960103
391.5,,0.0,391.534,0.5360000133514404,-2.4342755615924556
391.965517,,0.0,392.0,0.4860000014305115,-2.5431764087282676
392.431034,,0.0,392.459,0.515999972820282,-2.477723708993514
392.896552,,0.0,392.931,0.5149999856948853,-2.479749711150461
393.36206899999996,,0.0,393.389,0.531000018119812,-2.44468280140294
393.827586,,0.0,393.864,0.5289999842643738,-2.4487814446348026
394.293103,,0.0,394.322,0.5239999890327454,-2.4593732672095023
394.75862099999995,,0.0,394.79,0.4880000054836273,-2.537470531902684
395.224138,,0.0,395.253,0.5389999747276306,-2.4260034477912606
395.68965499999996,,0.0,395.716,0.5130000114440918,-2.4822804346967233
396.155172,,0.0,396.186,0.5109999775886536,-2.486269660960302
396.62069,,0.0,396.644,0.49399998784065247,-2.5229505466599633
397.086207,,0.0,397.114,0.5210000276565552,-2.4637941376751358
397.551724,,0.0,397.579,0.5120000243186951,-2.4831024798336974
398.017241,,0.0,398.045,0.5210000276565552,-2.463237562686901
398.48275900000004,,0.0,398.51,0.515999972820282,-2.4739244635147326
398.94827599999996,,0.0,398.969,0.5090000033378601,-2.489025946840517
399.413793,,0.0,399.435,0.47999998927116394,-2.5521211513119773
399.87931,,0.0,399.9,0.5260000228881836,-2.4518842672427104
400.344828,,0.0,400.366,0.5299999713897705,-2.4432172201442035
400.810345,,0.0,400.834,0.531000018119812,-2.4411501384560506
401.27586199999996,,0.0,401.296,0.5120000243186951,-2.4827175137119917
401.741379,,0.0,401.764,0.5230000019073486,-2.4589823584936776
402.206897,,0.0,402.226,0.5149999856948853,-2.47669173743134
402.672414,,0.0,402.694,0.5199999809265137,-2.4661205097102736
403.137931,,0.0,403.156,0.527999997138977,-2.4490452668999656
403.60344799999996,,0.0,403.622,0.5130000114440918,-2.4821000965636935
404.068966,,0.0,404.088,0.503000020980835,-2.5042719869077854
404.534483,,0.0,404.554,0.5149999856948853,-2.4785125873113962
405.0,,0.0,405.019,0.5120000243186951,-2.4854195688741703
405.465517,,0.0,405.485,0.531000018119812,-2.4443711379852444
405.931034,,0.0,405.945,0.5070000290870667,-2.4969683015248694
406.39655200000004,,0.0,406.411,0.5379999876022339,-2.429693758819583
406.862069,,0.0,406.875,0.5109999775886536,-2.488726070931845
407.327586,,0.0,407.341,0.5009999871253967,-2.5106604268961115
407.793103,,0.0,407.804,0.5210000276565552,-2.4671699415599546
408.258621,,0.0,408.274,0.531000018119812,-2.4453970596103654
408.72413800000004,,0.0,408.734,0.5149999856948853,-2.4801988235480157
409.18965499999996,,0.0,409.204,0.5189999938011169,-2.4713589103696725
409.655172,,0.0,409.667,0.44699999690055847,-2.628032715513618
410.12069,,0.0,410.13,0.5410000085830688,-2.4229933761589018
410.586207,,0.0,410.596,0.527999997138977,-2.4510174470370045
411.05172400000004,,0.0,411.061,0.5130000114440918,-2.4833544772423273
411.51724099999996,,0.0,411.527,0.515999972820282,-2.476442663314277
411.982759,,0.0,411.994,0.515999972820282,-2.4760449697675564
412.448276,,0.0,412.46,0.5180000066757202,-2.4712801745916892
412.913793,,0.0,412.919,0.5099999904632568,-2.4883048154149834
413.37931,,0.0,413.385,0.527999997138977,-2.4486997709166314
413.844828,,0.0,413.853,0.5109999775886536,-2.4853746463934057
414.31034500000004,,0.0,414.314,0.5180000066757202,-2.469800493518173
414.775862,,0.0,414.782,0.5189999938011169,-2.46734726266625
415.241379,,0.0,415.246,0.5270000100135803,-2.449700841543197
415.706897,,0.0,415.709,0.515999972820282,-2.473513276867168
416.172414,,0.0,416.179,0.515999972820282,-2.473430328896695
416.63793100000004,,0.0,416.645,0.515999972820282,-2.473420484681885
417.103448,,0.0,417.107,0.5389999747276306,-2.4233752015799435
417.568966,,0.0,417.573,0.515999972820282,-2.4736194318994276
418.034483,,0.0,418.038,0.5239999890327454,-2.456393789881603
418.5,,0.0,418.503,0.5379999876022339,-2.4261587078706377
418.96551700000003,,0.0,418.971,0.5040000081062317,-2.5005534241818856
419.43103399999995,,0.0,419.429,0.5210000276565552,-2.463882979823786
419.896552,,0.0,419.895,0.5090000033378601,-2.4904287135087095
420.362069,,0.0,420.361,0.5170000195503235,-2.4734245098613545
420.827586,,0.0,420.831,0.5230000019073486,-2.4607877096939945
421.293103,,0.0,421.293,0.5049999952316284,-2.5004351289884386
421.758621,,0.0,421.756,0.5299999713897705,-2.4463840871828983
422.22413800000004,,0.0,422.226,0.5070000290870667,-2.4968783478443206
422.689655,,0.0,422.686,0.5109999775886536,-2.4885078310919044
423.15517200000005,,0.0,423.156,0.5049999952316284,-2.5018716178244658
423.62069,,0.0,423.614,0.503000020980835,-2.506459493341132
424.086207,,0.0,424.085,0.5339999794960022,-2.4390827497366434
424.55172400000004,,0.0,424.551,0.5360000133514404,-2.4348105890480367
425.017241,,0.0,425.009,0.5210000276565552,-2.467495800121
425.482759,,0.0,425.474,0.5090000033378601,-2.49356540361744
425.948276,,0.0,425.942,0.5339999794960022,-2.438947188871459
426.413793,,0.0,426.407,0.515999972820282,-2.4779367931279053
426.87931000000003,,0.0,426.872,0.5090000033378601,-2.4928938909081264
427.344828,,0.0,427.338,0.5210000276565552,-2.4663983283210213
427.810345,,0.0,427.801,0.5099999904632568,-2.4899638134146618
428.275862,,0.0,428.271,0.48399999737739563,-2.546173581719895
428.741379,,0.0,428.734,0.5090000033378601,-2.4912507354419473
429.20689699999997,,0.0,429.196,0.5070000290870667,-2.4951433219067805
429.672414,,0.0,429.664,0.5260000228881836,-2.453289728539318
430.137931,,0.0,430.126,0.515999972820282,-2.474636077271078
430.603448,,0.0,430.592,0.4690000116825104,-2.576625817455003
431.068966,,0.0,431.056,0.5070000290870667,-2.4934779164743324
431.534483,,0.0,431.522,0.5040000081062317,-2.499713015655427
432.0,,0.0,431.987,0.5180000066757202,-2.4689780181572325
432.46551700000003,,0.0,432.453,0.5070000290870667,-2.4927834723944238
432.931034,,0.0,432.92,0.5189999938011169,-2.4665596500327216
433.396552,,0.0,433.386,0.515999972820282,-2.473097819824512
433.862069,,0.0,433.849,0.5260000228881836,-2.451395837715969
434.327586,,0.0,434.312,0.5170000195503235,-2.4711685615029704
434.79310300000003,,0.0,434.775,0.5239999890327454,-2.456158747823839
435.258621,,0.0,435.244,0.4970000088214874,-2.515292295008272
435.724138,,0.0,435.705,0.503000020980835,-2.502591632083342
436.189655,,0.0,436.174,0.515999972820282,-2.4746908817667914
436.655172,,0.0,436.64,0.5210000276565552,-2.464256197846751
437.12068999999997,,0.0,437.102,0.4860000014305115,-2.540991226193161
437.586207,,0.0,437.568,0.5249999761581421,-2.4565156880965495
438.051724,,0.0,438.035,0.503000020980835,-2.504931709572613
438.517241,,0.0,438.501,0.527999997138977,-2.4509301960042613
438.982759,,0.0,438.96,0.5170000195503235,-2.4753241126231282
439.448276,,0.0,439.425,0.527999997138977,-2.451738401515445
439.913793,,0.0,439.89,0.5120000243186951,-2.4869148683479003
440.37931000000003,,0.0,440.356,0.49000000953674316,-2.535092797440397
440.844828,,0.0,440.819,0.6010000109672546,-2.2934308659919855
441.310345,,0.0,441.289,0.5299999713897705,-2.4481956998328767
441.775862,,0.0,441.749,0.5339999794960022,-2.4394718817590055
442.241379,,0.0,442.219,0.531000018119812,-2.44590984372711
442.70689699999997,,0.0,442.682,0.5260000228881836,-2.4566192746546385
443.172414,,0.0,443.145,0.5419999957084656,-2.4214965047728607
443.637931,,0.0,443.61,0.5419999957084656,-2.4211587549517444
444.103448,,0.0,444.074,0.515999972820282,-2.4774029523298817
444.568966,,0.0,444.54,0.515999972820282,-2.476952338182829
445.03448299999997,,0.0,445.004,0.5149999856948853,-2.4786446654423093
445.5,,0.0,445.47,0.5149999856948853,-2.4781375469643487
445.965517,,0.0,445.934,0.5170000195503235,-2.4732676973053773
446.431034,,0.0,446.4,0.515999972820282,-2.4749442354906237
446.896552,,0.0,446.866,0.5149999856948853,-2.476646325911037
447.36206899999996,,0.0,447.331,0.5249999761581421,-2.4544235207009506
447.827586,,0.0,447.794,0.5170000195503235,-2.4714697291686285
448.29310300000003,,0.0,448.263,0.5130000114440918,-2.4798669361231447
448.758621,,0.0,448.726,0.5199999809265137,-2.4643745808793587
449.224138,,0.0,449.189,0.5189999938011169,-2.4663942754233763
449.689655,,0.0,449.655,0.5009999871253967,-2.5055393106541914
450.155172,,0.0,450.12,0.5230000019073486,-2.4576292431616804
450.62068999999997,,0.0,450.586,0.5180000066757202,-2.4686328301487865
451.086207,,0.0,451.053,0.5370000004768372,-2.4274352049017125
451.551724,,0.0,451.519,0.5339999794960022,-2.434247867232729
452.017241,,0.0,451.986,0.527999997138977,-2.447667991971921
452.482759,,0.0,452.444,0.5049999952316284,-2.4981870851849792
452.94827599999996,,0.0,452.909,0.531000018119812,-2.4420023588933195
453.413793,,0.0,453.374,0.5130000114440918,-2.4817142112608557
453.87931,,0.0,453.845,0.5170000195503235,-2.4735167771217097
454.344828,,0.0,454.307,0.5180000066757202,-2.4718608138171168
454.810345,,0.0,454.775,0.5180000066757202,-2.4723728963022715
455.27586199999996,,0.0,455.237,0.5260000228881836,-2.4554293362534843
455.741379,,0.0,455.705,0.5329999923706055,-2.44062277514445
456.206897,,0.0,456.167,0.5540000200271606,-2.395258777905097
456.672414,,0.0,456.633,0.5070000290870667,-2.497974758775323
457.137931,,0.0,457.095,0.5370000004768372,-2.432857551835876
457.603448,,0.0,457.561,0.5379999876022339,-2.4308360681879053
458.06896600000005,,0.0,458.026,0.5339999794960022,-2.4396172861045526
458.53448299999997,,0.0,458.491,0.5199999809265137,-2.470092666914185
459.0,,0.0,458.957,0.515999972820282,-2.478690594692257
459.465517,,0.0,459.422,0.515999972820282,-2.478486757580837
459.931034,,0.0,459.887,0.5270000100135803,-2.45423647782238
460.39655200000004,,0.0,460.352,0.515999972820282,-2.47784374699761
460.86206899999996,,0.0,460.815,0.5289999842643738,-2.449101149420571
461.327586,,0.0,461.285,0.5130000114440918,-2.4834898450889042
461.793103,,0.0,461.749,0.4880000054836273,-2.537451959537452
462.258621,,0.0,462.211,0.5249999761581421,-2.456319145139069
462.724138,,0.0,462.675,0.503000020980835,-2.5037230255400234
463.18965499999996,,0.0,463.145,0.5090000033378601,-2.4901373230529673
463.655172,,0.0,463.61,0.5199999809265137,-2.4656863433270035
464.12069,,0.0,464.074,0.5299999713897705,-2.443455913533082
464.58620699999994,,0.0,464.54,0.5120000243186951,-2.482282652995353
465.051724,,0.0,465.005,0.5130000114440918,-2.479782603613082
465.517241,,0.0,465.464,0.515999972820282,-2.473002751425646
465.98275900000004,,0.0,465.93,0.5049999952316284,-2.4968088340595926
466.448276,,0.0,466.396,0.5090000033378601,-2.4880253694538776
466.913793,,0.0,466.861,0.5149999856948853,-2.4749769383645934
467.37931,,0.0,467.326,0.5090000033378601,-2.488163687044119
467.844828,,0.0,467.789,0.531000018119812,-2.4404360394485702
468.31034500000004,,0.0,468.26,0.5239999890327454,-2.455970472615316
468.77586199999996,,0.0,468.723,0.5120000243186951,-2.4824707682583385
469.241379,,0.0,469.186,0.492000013589859,-2.526463403599272
469.706897,,0.0,469.651,0.5249999761581421,-2.455038498969845
470.172414,,0.0,470.115,0.5080000162124634,-2.4925819985740345
470.63793100000004,,0.0,470.581,0.5049999952316284,-2.4996454552806484
471.10344799999996,,0.0,471.046,0.5090000033378601,-2.4914636418678366
471.568966,,0.0,471.512,0.5120000243186951,-2.485449509899466
472.034483,,0.0,471.978,0.5090000033378601,-2.4924804639548945
472.5,,0.0,472.444,0.5260000228881836,-2.455896138123176
472.965517,,0.0,472.908,0.5270000100135803,-2.4541136806686437
473.43103399999995,,0.0,473.374,0.5299999713897705,-2.4479049082423594
473.89655200000004,,0.0,473.838,0.5270000100135803,-2.4546887502906443
474.362069,,0.0,474.3,0.5090000033378601,-2.494066157677602
474.827586,,0.0,474.771,0.5090000033378601,-2.4941373889756218
475.293103,,0.0,475.233,0.5120000243186951,-2.4875802266807012
475.758621,,0.0,475.697,0.5299999713897705,-2.4482512115824293
476.22413800000004,,0.0,476.159,0.5329999923706055,-2.4415120772576073
476.689655,,0.0,476.625,0.5120000243186951,-2.4869768473699874
477.155172,,0.0,477.089,0.5419999957084656,-2.4212558105168567
477.62069,,0.0,477.554,0.5040000081062317,-2.5036189310348886
478.086207,,0.0,478.019,0.5090000033378601,-2.4922499371285824
478.55172400000004,,0.0,478.485,0.5189999938011169,-2.469952230738403
479.01724099999996,,0.0,478.95,0.5260000228881836,-2.454169799688178
479.482759,,0.0,479.415,0.4950000047683716,-2.5211718006133994
479.948276,,0.0,479.882,0.5120000243186951,-2.4836111735085
480.413793,,0.0,480.348,0.5199999809265137,-2.4656867896950057
480.87931000000003,,0.0,480.809,0.5120000243186951,-2.4826633852796998
481.344828,,0.0,481.278,0.5210000276565552,-2.4626594857963195
481.810345,,0.0,481.741,0.5249999761581421,-2.453617134724307
482.275862,,0.0,482.211,0.527999997138977,-2.4468310238868627
482.74137900000005,,0.0,482.671,0.5299999713897705,-2.442308800226254
483.206897,,0.0,483.134,0.5130000114440918,-2.4792711565567807
483.672414,,0.0,483.6,0.5630000233650208,-2.3703564804304014
484.13793100000004,,0.0,484.067,0.5149999856948853,-2.4750408772879875
484.603448,,0.0,484.533,0.5130000114440918,-2.4795963752122305
485.068966,,0.0,485.001,0.5180000066757202,-2.4689855619431036
485.534483,,0.0,485.459,0.5040000081062317,-2.4998449692191986
486.0,,0.0,485.931,0.5139999985694885,-2.4784822535206104
486.46551700000003,,0.0,486.389,0.5149999856948853,-2.476779965141366
486.931034,,0.0,486.863,0.5040000081062317,-2.50125958984109
487.396552,,0.0,487.322,0.4970000088214874,-2.5170478283903814
487.862069,,0.0,487.789,0.49000000953674316,-2.532843508783265
488.327586,,0.0,488.252,0.5130000114440918,-2.4832704930804685
488.79310300000003,,0.0,488.716,0.5019999742507935,-2.507745483107742
489.258621,,0.0,489.185,0.5249999761581421,-2.458104037788307
489.724138,,0.0,489.644,0.503000020980835,-2.5064447700556554
490.189655,,0.0,490.114,0.527999997138977,-2.4523194009542584
490.655172,,0.0,490.58,0.5170000195503235,-2.476544638906622
491.12069,,0.0,491.045,0.5059999823570251,-2.5006813361465166
491.586207,,0.0,491.504,0.515999972820282,-2.478972644496097
492.05172400000004,,0.0,491.971,0.5180000066757202,-2.4745965484851355
492.517241,,0.0,492.436,0.5299999713897705,-2.448337466227412
492.982759,,0.0,492.901,0.5120000243186951,-2.4873441934032883
493.448276,,0.0,493.366,0.5199999809265137,-2.4696192796793524
493.913793,,0.0,493.834,0.515999972820282,-2.477960114032348
494.37931000000003,,0.0,494.296,0.5040000081062317,-2.503663610772192
494.844828,,0.0,494.764,0.5189999938011169,-2.47049085391598
495.310345,,0.0,495.226,0.503000020980835,-2.504818263157372
495.775862,,0.0,495.694,0.5049999952316284,-2.4999086945458466
496.241379,,0.0,496.156,0.5090000033378601,-2.490637353158262
496.70689699999997,,0.0,496.622,0.5139999985694885,-2.4791997184295655
497.172414,,0.0,497.087,0.5210000276565552,-2.463433304822065
497.637931,,0.0,497.553,0.515999972820282,-2.473855018191936
498.103448,,0.0,498.02,0.5170000195503235,-2.47126332158429
498.568966,,0.0,498.485,0.5170000195503235,-2.470921901497927
499.03448299999997,,0.0,498.945,0.5260000228881836,-2.4510545821150744
499.5,,0.0,499.411,0.5149999856948853,-2.4748502996978283
499.96551700000003,,0.0,499.878,0.5289999842643738,-2.4442750810604505
500.431034,,0.0,500.344,0.5040000081062317,-2.498765188651085
500.89655200000004,,0.0,500.804,0.5239999890327454,-2.4553140893823375
501.362069,,0.0,501.275,0.503000020980835,-2.5012820840436167
501.827586,,0.0,501.738,0.5210000276565552,-2.4623711261583487
502.293103,,0.0,502.2,0.503000020980835,-2.5019708637831077
502.758621,,0.0,502.668,0.5329999923706055,-2.4370630210325808
503.224138,,0.0,503.13,0.5540000200271606,-2.3918156241047717
503.68965499999996,,0.0,503.596,0.43799999356269836,-2.6450815832546457
504.15517200000005,,0.0,504.06,0.4830000102519989,-2.5476098484301097
504.62068999999997,,0.0,504.526,0.531000018119812,-2.443609344027579
505.08620699999994,,0.0,504.993,0.5049999952316284,-2.500816264226993
505.55172400000004,,0.0,505.459,0.5149999856948853,-2.479561617285065
506.017241,,0.0,505.923,0.5049999952316284,-2.5018335550373414
506.48275899999993,,0.0,506.389,0.5199999809265137,-2.4695777396904726
506.948276,,0.0,506.849,0.5139999985694885,-2.482998376298554
507.413793,,0.0,507.319,0.5419999957084656,-2.4222582922047127
507.87931,,0.0,507.782,0.5049999952316284,-2.503035126964014
508.344828,,0.0,508.244,0.515999972820282,-2.4791368175094104
508.810345,,0.0,508.713,0.515999972820282,-2.479101519652586
509.27586199999996,,0.0,509.174,0.515999972820282,-2.4789647388177447
509.74137900000005,,0.0,509.64,0.5180000066757202,-2.4743730008150955
510.20689699999997,,0.0,510.11,0.5239999890327454,-2.4609759638185498
510.67241399999995,,0.0,510.576,0.5270000100135803,-2.4540334435469475
511.13793100000004,,0.0,511.035,0.5090000033378601,-2.4927737195627544
511.603448,,0.0,511.501,0.527999997138977,-2.450849844756827
512.0689659999999,,0.0,511.967,0.5299999713897705,-2.4459247340812538
512.534483,,0.0,512.433,0.492000013589859,-2.528124874012584
513.0,,0.0,512.901,0.5139999985694885,-2.4796047365757734
513.465517,,0.0,513.359,0.5249999761581421,-2.455066215592993
513.931034,,0.0,513.827,0.5199999809265137,-2.465419505186542
514.396552,,0.0,514.289,0.5080000162124634,-2.4910737329560995
514.862069,,0.0,514.757,0.515999972820282,-2.47322126149096
515.327586,,0.0,515.219,0.5370000004768372,-2.4271250961895823
515.793103,,0.0,515.689,0.5059999823570251,-2.494408195499523
516.258621,,0.0,516.152,0.5170000195503235,-2.4702860126010138
516.724138,,0.0,516.617,0.5149999856948853,-2.474589869576515
517.189655,,0.0,517.081,0.527999997138977,-2.446318906592971
517.655172,,0.0,517.547,0.515999972820282,-2.4726177566085985
518.1206900000001,,0.0,518.012,0.5299999713897705,-2.44237064509384
518.5862070000001,,0.0,518.477,0.5019999742507935,-2.503718446663525
519.051724,,0.0,518.942,0.5139999985694885,-2.4780020593529977
519.517241,,0.0,519.407,0.5040000081062317,-2.5002851181454915
519.982759,,0.0,519.875,0.5199999809265137,-2.465977205538642
520.448276,,0.0,520.341,0.503000020980835,-2.5036014300142027
520.9137929999999,,0.0,520.801,0.5040000081062317,-2.5020291808475568
521.37931,,0.0,521.27,0.49000000953674316,-2.5331375336583903
521.844828,,0.0,521.731,0.5339999794960022,-2.437866014067242
522.310345,,0.0,522.2,0.515999972820282,-2.4776329894509206
522.7758620000001,,0.0,522.66,0.5099999904632568,-2.4912011210902185
523.241379,,0.0,523.13,0.5249999761581421,-2.4589473758596285
523.7068969999999,,0.0,523.589,0.5389999747276306,-2.4287877742776685
524.172414,,0.0,524.056,0.49900001287460327,-2.51617975852795
524.637931,,0.0,524.522,0.5270000100135803,-2.4553211032869635
525.103448,,0.0,524.987,0.5120000243186951,-2.488036986728911
525.568966,,0.0,525.453,0.515999972820282,-2.4792498751904146
526.034483,,0.0,525.92,0.5130000114440918,-2.485606444139756
526.5,,0.0,526.385,0.5270000100135803,-2.4548244308111253
526.9655170000001,,0.0,526.848,0.5199999809265137,-2.469700573142226
527.4310340000001,,0.0,527.311,0.5189999938011169,-2.471422576718413
527.8965519999999,,0.0,527.775,0.5389999747276306,-2.4273246197063183
528.362069,,0.0,528.245,0.515999972820282,-2.476855987770852
528.827586,,0.0,528.705,0.5139999985694885,-2.480601470238872
529.293103,,0.0,529.174,0.5299999713897705,-2.4451163559742155
529.7586210000001,,0.0,529.64,0.550000011920929,-2.400920019468225
530.224138,,0.0,530.103,0.5249999761581421,-2.454785461395095
530.689655,,0.0,530.569,0.5320000052452087,-2.4389756652222747
531.155172,,0.0,531.033,0.5239999890327454,-2.4559053770754926
531.62069,,0.0,531.499,0.5419999957084656,-2.4162655068737715
532.086207,,0.0,531.964,0.550000011920929,-2.3985003460585235
532.5517239999999,,0.0,532.43,0.5339999794960022,-2.4331216607525197
533.017241,,0.0,532.894,0.5509999990463257,-2.395954235208016
533.482759,,0.0,533.36,0.574999988079071,-2.3436469516857557
533.9482760000001,,0.0,533.823,0.5540000200271606,-2.3894898097421566
534.413793,,0.0,534.285,0.5770000219345093,-2.3395809206220135
534.87931,,0.0,534.753,0.5789999961853027,-2.335526465061791
535.344828,,0.0,535.215,0.5669999718666077,-2.3620668859392224
535.810345,,0.0,535.683,0.5630000233650208,-2.3712606586791045
536.275862,,0.0,536.145,0.5709999799728394,-2.354379629533395
536.7413789999999,,0.0,536.611,0.5680000185966492,-2.3615158399117164
537.206897,,0.0,537.074,0.5669999718666077,-2.3643291687346233
537.672414,,0.0,537.54,0.5839999914169312,-2.3279414995722636
538.137931,,0.0,538.005,0.6060000061988831,-2.2806546721625187
538.6034480000001,,0.0,538.47,0.5759999752044678,-2.3466315810059233
539.0689659999999,,0.0,538.938,0.5759999752044678,-2.3472046458527367
539.5344829999999,,0.0,539.404,0.5799999833106995,-2.339001670564878
540.0,,0.0,539.868,0.6179999709129333,-2.2566465558497057
540.465517,,0.0,540.334,0.5879999995231628,-2.3223469564210815
540.931034,,0.0,540.797,0.5960000157356262,-2.3051557317847564
541.396552,,0.0,541.259,0.5630000233650208,-2.3771794627869083
541.862069,,0.0,541.727,0.5830000042915344,-2.3336216009441375
542.327586,,0.0,542.189,0.5960000157356262,-2.3051997412068697
542.7931030000001,,0.0,542.656,0.6019999980926514,-2.2919156500716555
543.258621,,0.0,543.121,0.6050000190734863,-2.2850601282289653
543.7241379999999,,0.0,543.586,0.5929999947547913,-2.3107865374043164
544.189655,,0.0,544.052,0.6019999980926514,-2.290676003817218
544.655172,,0.0,544.518,0.7120000123977661,-2.0504495590703575
545.12069,,0.0,544.983,0.5799999833106995,-2.337399641310476
545.5862070000001,,0.0,545.448,0.5630000233650208,-2.3737707804486394
546.051724,,0.0,545.915,0.5889999866485596,-2.3164491512931096
546.517241,,0.0,546.381,0.6190000176429749,-2.2504213955693038
546.982759,,0.0,546.841,0.6140000224113464,-2.2606741550888936
547.448276,,0.0,547.304,0.6209999918937683,-2.24483029461914
547.9137929999999,,0.0,547.772,0.6190000176429749,-2.2486596320158454
548.3793099999999,,0.0,548.234,0.5979999899864197,-2.293965830406135
548.844828,,0.0,548.704,0.621999979019165,-2.241329695892644
549.310345,,0.0,549.167,0.5210000276565552,-2.4611340923392646
549.775862,,0.0,549.632,0.6169999837875366,-2.2518636591535914
550.241379,,0.0,550.095,0.5809999704360962,-2.3302968130484154
550.706897,,0.0,550.561,0.625,-2.234558932943881
551.172414,,0.0,551.026,0.5389999747276306,-2.4221637754466228
551.637931,,0.0,551.492,0.628000020980835,-2.228616658710902
552.103448,,0.0,551.957,0.6050000190734863,-2.279178251059207
552.568966,,0.0,552.423,0.6190000176429749,-2.249214888368427
553.034483,,0.0,552.89,0.6309999823570251,-2.2236772506748643
553.5,,0.0,553.355,0.5929999947547913,-2.3071218056475664
553.965517,,0.0,553.816,0.6470000147819519,-2.19016056234665
554.4310340000001,,0.0,554.286,0.6100000143051147,-2.2714647517856474
554.896552,,0.0,554.748,0.6430000066757202,-2.2002502786980185
555.3620689999999,,0.0,555.211,0.515999972820282,-2.477587436020184
555.827586,,0.0,555.675,0.6430000066757202,-2.201497012047305
556.293103,,0.0,556.145,0.5929999947547913,-2.3109570968329725
556.758621,,0.0,556.61,0.6129999756813049,-2.2678239195694303
557.224138,,0.0,557.075,0.5989999771118164,-2.2986635995121563
557.689655,,0.0,557.54,0.6320000290870667,-2.22699429281713
558.155172,,0.0,558.005,0.597000002861023,-2.30335333334147
558.6206900000001,,0.0,558.471,0.6269999742507935,-2.237976731604914
559.0862070000001,,0.0,558.93,0.6050000190734863,-2.2857664200563708
559.5517239999999,,0.0,559.396,0.5419999957084656,-2.4227630005979037
560.017241,,0.0,559.86,0.6100000143051147,-2.274247660942843
560.482759,,0.0,560.326,0.6119999885559082,-2.2694239868615522
560.948276,,0.0,560.794,0.6100000143051147,-2.2732281621290253
561.413793,,0.0,561.256,0.593999981880188,-2.307463921676509
561.87931,,0.0,561.719,0.5630000233650208,-2.3743297024109435
562.344828,,0.0,562.189,0.5630000233650208,-2.3736297591366142
562.8103450000001,,0.0,562.655,0.5680000185966492,-2.362030633104295
563.275862,,0.0,563.121,0.5669999718666077,-2.3635188031954524
563.7413789999999,,0.0,563.579,0.5630000233650208,-2.371578987456883
564.206897,,0.0,564.045,0.578000009059906,-2.3383009932117824
564.672414,,0.0,564.511,0.550000011920929,-2.3987790729653127
565.137931,,0.0,564.979,0.5690000057220459,-2.356951152311413
565.603448,,0.0,565.445,0.5509999990463257,-2.3958370274819103
566.068966,,0.0,565.909,0.5509999990463257,-2.395621255514919
566.534483,,0.0,566.375,0.5669999718666077,-2.360667723590562
567.0,,0.0,566.837,0.5419999957084656,-2.4151619325032523
567.465517,,0.0,567.299,0.5360000133514404,-2.4283848371400394
567.931034,,0.0,567.767,0.5130000114440918,-2.478764226903543
568.396552,,0.0,568.23,0.5379999876022339,-2.4246799888625437
568.862069,,0.0,568.701,0.5199999809265137,-2.4643770703290575
569.327586,,0.0,569.163,0.5450000166893005,-2.4104763605621953
569.793103,,0.0,569.629,0.5270000100135803,-2.4503240580973076
570.2586210000001,,0.0,570.092,0.5180000066757202,-2.4706110768655463
570.724138,,0.0,570.558,0.5490000247955322,-2.4037782905751315
571.189655,,0.0,571.023,0.5170000195503235,-2.4742044145179642
571.655172,,0.0,571.488,0.527999997138977,-2.450931055948955
572.12069,,0.0,571.952,0.546999990940094,-2.410189274163405
572.586207,,0.0,572.418,0.5440000295639038,-2.4173174226142353
573.051724,,0.0,572.882,0.5429999828338623,-2.4200096728745053
573.517241,,0.0,573.348,0.5460000038146973,-2.4138925997566387
573.982759,,0.0,573.816,0.5529999732971191,-2.398953370069922
574.4482760000001,,0.0,574.278,0.5230000019073486,-2.464507104628385
574.913793,,0.0,574.741,0.5400000214576721,-2.427542232546627
575.37931,,0.0,575.204,0.5339999794960022,-2.4405622769741817
575.844828,,0.0,575.675,0.5440000295639038,-2.4186010650282777
576.310345,,0.0,576.137,0.46000000834465027,-2.6013172296437532
576.775862,,0.0,576.603,0.5519999861717224,-2.400485647942393
577.241379,,0.0,577.068,0.5659999847412109,-2.3694933260567828
577.706897,,0.0,577.534,0.6700000166893005,-2.1423381897128135
578.172414,,0.0,578.001,0.5690000057220459,-2.3617375906888
578.6379310000001,,0.0,578.459,0.5649999976158142,-2.3697614739206148
579.1034480000001,,0.0,578.93,0.5490000247955322,-2.4039066255403507
579.5689659999999,,0.0,579.396,0.5099999904632568,-2.488162275171284
580.034483,,0.0,579.86,0.5460000038146973,-2.4090440459946483
580.5,,0.0,580.319,0.5529999732971191,-2.393152473246465
580.965517,,0.0,580.786,0.5540000200271606,-2.3903974962232963
581.431034,,0.0,581.256,0.5669999718666077,-2.3615814355013587
581.896552,,0.0,581.719,0.5540000200271606,-2.3895077431571434
582.362069,,0.0,582.181,0.48500001430511475,-2.5395501601820225
582.827586,,0.0,582.647,0.5370000004768372,-2.4260983926692394
583.2931030000001,,0.0,583.11,0.5460000038146973,-2.4064549929709242
583.758621,,0.0,583.576,0.5410000085830688,-2.4174388850065247
584.2241379999999,,0.0,584.043,0.5460000038146973,-2.406759393074375
584.689655,,0.0,584.509,0.5419999957084656,-2.415803910555788
585.155172,,0.0,584.975,0.5680000185966492,-2.3595940607426695
585.6206900000001,,0.0,585.434,0.5649999976158142,-2.3666556400864183
586.0862070000001,,0.0,585.9,0.5450000166893005,-2.4108280525635712
586.551724,,0.0,586.366,0.5329999923706055,-2.437627387157103
587.017241,,0.0,586.834,0.5540000200271606,-2.3925670129979673
587.482759,,0.0,587.297,0.5649999976158142,-2.36930657196342
587.948276,,0.0,587.764,0.5730000138282776,-2.352572258763329
588.4137929999999,,0.0,588.226,0.5540000200271606,-2.394629863416165
588.87931,,0.0,588.694,0.5809999704360962,-2.3364174557422652
589.344828,,0.0,589.156,0.574999988079071,-2.3500285235786835
589.810345,,0.0,589.621,0.578000009059906,-2.3439429304091335
590.2758620000001,,0.0,590.088,0.578000009059906,-2.344290704474002
590.741379,,0.0,590.554,0.5410000085830688,-2.4251359733216105
591.2068969999999,,0.0,591.019,0.5669999718666077,-2.368607809994354
591.672414,,0.0,591.485,0.5450000166893005,-2.4165328889673803
592.137931,,0.0,591.945,0.5540000200271606,-2.3967988850380793
592.603448,,0.0,592.41,0.5460000038146973,-2.413985421853545
593.068966,,0.0,592.876,0.5419999957084656,-2.422348892375073
593.534483,,0.0,593.341,0.5509999990463257,-2.402292789060162
594.0,,0.0,593.804,0.5230000019073486,-2.4627640381992597
594.4655170000001,,0.0,594.275,0.5669999718666077,-2.366306678436412
594.9310340000001,,0.0,594.738,0.5460000038146973,-2.4114133754223985
595.3965519999999,,0.0,595.2,0.5649999976158142,-2.369345877150005
595.862069,,0.0,595.664,0.5460000038146973,-2.410059678804712
596.327586,,0.0,596.134,0.5839999914169312,-2.3266039278392503
596.793103,,0.0,596.599,0.550000011920929,-2.400044498375532
597.2586210000001,,0.0,597.064,0.5540000200271606,-2.3907501599056697
597.724138,,0.0,597.529,0.5699999928474426,-2.355383934265242
598.189655,,0.0,597.99,0.5630000233650208,-2.370213446247415
598.655172,,0.0,598.455,0.546999990940094,-2.404751066133675
599.12069,,0.0,598.92,0.550000011920929,-2.398004846717172
599.586207,,0.0,599.385,0.5419999957084656,-2.415341148851613
600.0517239999999,,0.0,599.853,0.5669999718666077,-2.3609017935571734
600.517241,,0.0,600.315,0.550000011920929,-2.3980837892737368
600.982759,,0.0,600.786,0.5659999847412109,-2.3634838663607507
601.448276,,0.0,601.248,0.5460000038146973,-2.4074204283229044
601.913793,,0.0,601.712,0.5540000200271606,-2.3904488379668036
602.37931,,0.0,602.174,0.5460000038146973,-2.4084155513264305
602.844828,,0.0,602.64,0.5490000247955322,-2.402480113279996
603.310345,,0.0,603.11,0.5659999847412109,-2.366087697325722
603.775862,,0.0,603.576,0.5389999747276306,-2.4255794209668733
604.2413789999999,,0.0,604.041,0.5640000104904175,-2.37178429386489
604.706897,,0.0,604.499,0.5669999718666077,-2.365901220411248
605.172414,,0.0,604.971,0.5669999718666077,-2.3665147421197927
605.637931,,0.0,605.429,0.5680000185966492,-2.364891154273523
606.1034480000001,,0.0,605.894,0.5419999957084656,-2.4220161974544285
606.5689659999999,,0.0,606.359,0.5419999957084656,-2.4224074499472
607.0344829999999,,0.0,606.83,0.5669999718666077,-2.3682316927120652
607.5,,0.0,607.293,0.5419999957084656,-2.422878146350909
607.965517,,0.0,607.756,0.5669999718666077,-2.36847668094914
608.431034,,0.0,608.226,0.5419999957084656,-2.4228901972601533
608.896552,,0.0,608.69,0.5320000052452087,-2.444509116246581
609.362069,,0.0,609.152,0.44999998807907104,-2.622883696083962
609.827586,,0.0,609.618,0.5210000276565552,-2.467828205127943
610.293103,,0.0,610.081,0.5339999794960022,-2.439048036095659
610.758621,,0.0,610.546,0.5199999809265137,-2.469017237941145
611.2241379999999,,0.0,611.011,0.5260000228881836,-2.4553557439383176
611.689655,,0.0,611.478,0.5170000195503235,-2.4743346607177568
612.155172,,0.0,611.942,0.5180000066757202,-2.4715070460626936
612.62069,,0.0,612.408,0.5130000114440918,-2.4817511884518018
613.0862070000001,,0.0,612.875,0.5090000033378601,-2.489836549671406
613.551724,,0.0,613.341,0.5360000133514404,-2.4304223712610904
614.017241,,0.0,613.801,0.5109999775886536,-2.484354050080732
614.4827590000001,,0.0,614.271,0.5099999904632568,-2.4860706032942
614.948276,,0.0,614.734,0.43799999356269836,-2.6425595666279302
615.4137929999999,,0.0,615.197,0.5260000228881836,-2.450565073699152
615.8793099999999,,0.0,615.668,0.527999997138977,-2.446041003764792
616.344828,,0.0,616.13,0.5139999985694885,-2.4764849752055027
616.810345,,0.0,616.595,0.4269999861717224,-2.6660835794315774
617.275862,,0.0,617.06,0.49399998784065247,-2.520283553434426
617.741379,,0.0,617.519,0.5120000243186951,-2.481343820878558
618.206897,,0.0,617.986,0.5130000114440918,-2.4795369617283116
618.672414,,0.0,618.452,0.4749999940395355,-2.562781738040216
619.137931,,0.0,618.919,0.492000013589859,-2.5262718338932615
619.603448,,0.0,619.385,0.5049999952316284,-2.498531131802859
620.068966,,0.0,619.845,0.4860000014305115,-2.5405431906730738
620.534483,,0.0,620.315,0.4909999966621399,-2.5302850348003645
621.0,,0.0,620.778,0.5199999809265137,-2.4677367554020315
621.465517,,0.0,621.241,0.48399999737739563,-2.5467781571919943
621.9310340000001,,0.0,621.709,0.47600001096725464,-2.564777288005861
622.396552,,0.0,622.171,0.4300000071525574,-2.6655095438871874
622.862069,,0.0,622.636,0.49000000953674316,-2.5352345176350957
623.327586,,0.0,623.099,0.49000000953674316,-2.5355931389846256
623.793103,,0.0,623.564,0.47999998927116394,-2.557641192083165
624.258621,,0.0,624.03,0.46799999475479126,-2.5839421262362
624.724138,,0.0,624.496,0.47200000286102295,-2.575276218291271
625.189655,,0.0,624.96,0.47699999809265137,-2.5643218846508087
625.655172,,0.0,625.425,0.47600001096725464,-2.566331370394798
626.1206900000001,,0.0,625.89,0.48399999737739563,-2.5486301329327072
626.5862070000001,,0.0,626.356,0.492000013589859,-2.5308339111358125
627.0517239999999,,0.0,626.824,0.47999998927116394,-2.556526972896247
627.5172409999999,,0.0,627.286,0.46700000762939453,-2.5843292650676917
627.982759,,0.0,627.749,0.4790000021457672,-2.557612566797201
628.448276,,0.0,628.219,0.47200000286102295,-2.5722549176614224
628.913793,,0.0,628.682,0.4650000035762787,-2.5868808236979244
629.37931,,0.0,629.145,0.49000000953674316,-2.531792548514458
629.844828,,0.0,629.611,0.4699999988079071,-2.5747647122174224
630.3103450000001,,0.0,630.078,0.4880000054836273,-2.5349876383146235
630.7758620000001,,0.0,630.543,0.47600001096725464,-2.5606265562050496
631.2413789999999,,0.0,631.009,0.46399998664855957,-2.586337760204795
631.706897,,0.0,631.474,0.47200000286102295,-2.5685617779253884
632.172414,,0.0,631.934,0.47699999809265137,-2.5574179908970245
632.637931,,0.0,632.399,0.46700000762939453,-2.579057479828218
633.103448,,0.0,632.867,0.4699999988079071,-2.572482693928215
633.568966,,0.0,633.333,0.47200000286102295,-2.5681957007859775
634.034483,,0.0,633.794,0.5009999871253967,-2.5051913792926
634.5,,0.0,634.263,0.46399998664855957,-2.5860780280535764
634.9655170000001,,0.0,634.731,0.47600001096725464,-2.560302973102588
635.431034,,0.0,635.193,0.4309999942779541,-2.658792851073913
635.8965519999999,,0.0,635.664,0.47600001096725464,-2.561272755024229
636.362069,,0.0,636.119,0.4790000021457672,-2.5553075724811527
636.827586,,0.0,636.585,0.4699999988079071,-2.5755193576526505
637.293103,,0.0,637.056,0.48399999737739563,-2.5456368139195638
637.7586210000001,,0.0,637.514,0.48500001430511475,-2.5440718949142123
638.224138,,0.0,637.979,0.4729999899864197,-2.570805841694582
638.689655,,0.0,638.445,0.46299999952316284,-2.593141329693491
639.155172,,0.0,638.912,0.515999972820282,-2.4781637687190683
639.62069,,0.0,639.377,0.47200000286102295,-2.5744409408433455
640.086207,,0.0,639.845,0.47600001096725464,-2.566056868707257
640.551724,,0.0,640.308,0.49000000953674316,-2.5357907001817903
641.017241,,0.0,640.771,0.49799999594688416,-2.518493129001396
641.482759,,0.0,641.234,0.47200000286102295,-2.575162437241439
641.9482760000001,,0.0,641.704,0.4699999988079071,-2.5794374583458066
642.413793,,0.0,642.167,0.48399999737739563,-2.5487504830829084
642.87931,,0.0,642.632,0.47200000286102295,-2.5746104880421687
643.344828,,0.0,643.095,0.4880000054836273,-2.5393792778434747
643.810345,,0.0,643.561,0.48899999260902405,-2.5367500596388837
644.275862,,0.0,644.03,0.4749999940395355,-2.5667367079635626
644.7413789999999,,0.0,644.495,0.5009999871253967,-2.5095295261876647
645.206897,,0.0,644.96,0.4620000123977661,-2.593903992755191
645.672414,,0.0,645.425,0.4749999940395355,-2.564977314382365
646.1379310000001,,0.0,645.89,0.4729999899864197,-2.568737708377901
646.6034480000001,,0.0,646.356,0.4860000014305115,-2.5398435526884637
647.0689659999999,,0.0,646.819,0.4690000116825104,-2.5763514061960544
647.534483,,0.0,647.282,0.47200000286102295,-2.5693452651780566
648.0,,0.0,647.745,0.46299999952316284,-2.5885564456665593
648.465517,,0.0,648.215,0.4690000116825104,-2.575173470357468
648.931034,,0.0,648.679,0.47200000286102295,-2.568421217278387
649.396552,,0.0,649.141,0.4699999988079071,-2.5726630185030133
649.862069,,0.0,649.607,0.48899999260902405,-2.5312568316779553
650.327586,,0.0,650.072,0.48500001430511475,-2.5400625374475534
650.7931030000001,,0.0,650.537,0.4650000035762787,-2.5838267336861462
651.258621,,0.0,651.004,0.4880000054836273,-2.5340032167118975
651.7241379999999,,0.0,651.469,0.46399998664855957,-2.5866614017987857
652.189655,,0.0,651.935,0.4650000035762787,-2.584927245800845
652.655172,,0.0,652.4,0.5019999742507935,-2.504821649515504
653.12069,,0.0,652.86,0.4909999966621399,-2.5293340999274525
653.5862070000001,,0.0,653.326,0.47600001096725464,-2.5625872906281013
654.051724,,0.0,653.795,0.47999998927116394,-2.5544554607978704
654.517241,,0.0,654.258,0.48100000619888306,-2.552851051403434
654.982759,,0.0,654.719,0.4830000102519989,-2.5490419600914835
655.448276,,0.0,655.189,0.4779999852180481,-2.5604408105470218
655.9137929999999,,0.0,655.656,0.49900001287460327,-2.515136517138829
656.37931,,0.0,656.121,0.49000000953674316,-2.535119696107019
656.844828,,0.0,656.579,0.4880000054836273,-2.539769111282029
657.310345,,0.0,657.045,0.492000013589859,-2.5312550238639666
657.7758620000001,,0.0,657.511,0.4909999966621399,-2.5335368752160505
658.241379,,0.0,657.975,0.503000020980835,-2.507395891059323
658.7068969999999,,0.0,658.441,0.49000000953674316,-2.535621130003805
659.172414,,0.0,658.908,0.4699999988079071,-2.5790009389935213
659.637931,,0.0,659.373,0.4749999940395355,-2.5678258165252035
660.103448,,0.0,659.834,0.47999998927116394,-2.5565711372401965
660.568966,,0.0,660.304,0.4819999933242798,-2.551783902357547
661.034483,,0.0,660.767,0.46399998664855957,-2.5905147622089277
661.5,,0.0,661.23,0.46700000762939453,-2.583454580944503
661.965517,,0.0,661.701,0.49000000953674316,-2.53279798054148
662.4310340000001,,0.0,662.163,0.47600001096725464,-2.5627439580354254
662.8965519999999,,0.0,662.629,0.49000000953674316,-2.531696973813332
663.362069,,0.0,663.092,0.4729999899864197,-2.56821388650152
663.827586,,0.0,663.558,0.47200000286102295,-2.56991406951005
664.293103,,0.0,664.023,0.48899999260902405,-2.5324546391945097
664.7586210000001,,0.0,664.489,0.4909999966621399,-2.5277427669958246
665.224138,,0.0,664.949,0.4699999988079071,-2.5732180591723215
665.689655,,0.0,665.414,0.4880000054836273,-2.5338126299548605
666.155172,,0.0,665.886,0.47600001096725464,-2.5598585441002992
666.62069,,0.0,666.344,0.4860000014305115,-2.5380685039904454
667.086207,,0.0,666.812,0.48899999260902405,-2.5316227446669335
667.5517239999999,,0.0,667.275,0.49000000953674316,-2.5296244719867054
668.017241,,0.0,667.745,0.4860000014305115,-2.53860385557744
668.482759,,0.0,668.208,0.5009999871253967,-2.506264751262807
668.948276,,0.0,668.675,0.49900001287460327,-2.511027382290051
669.413793,,0.0,669.137,0.47600001096725464,-2.5615942438885906
669.87931,,0.0,669.603,0.47699999809265137,-2.5599129850292823
670.3448279999999,,0.0,670.068,0.4779999852180481,-2.558256431204408
670.810345,,0.0,670.533,0.5009999871253967,-2.508677982426865
671.275862,,0.0,670.998,0.47600001096725464,-2.563666672304059
671.7413789999999,,0.0,671.463,0.492000013589859,-2.5293073492898936
672.206897,,0.0,671.93,0.4880000054836273,-2.538482644874963
672.672414,,0.0,672.396,0.47999998927116394,-2.556320494584194
673.137931,,0.0,672.861,0.4830000102519989,-2.550129334085056
673.6034480000001,,0.0,673.319,0.47600001096725464,-2.565651007793231
674.068966,,0.0,673.79,0.47600001096725464,-2.5658408034615197
674.5344829999999,,0.0,674.252,0.492000013589859,-2.531085322896526
675.0,,0.0,674.72,0.4909999966621399,-2.5332767005585115
675.465517,,0.0,675.182,0.4779999852180481,-2.561521583400101
675.931034,,0.0,675.647,0.48500001430511475,-2.5461061769661524
676.396552,,0.0,676.111,0.4970000088214874,-2.519715429570538
676.862069,,0.0,676.576,0.47999998927116394,-2.5564308475739614
677.327586,,0.0,677.041,0.5910000205039978,-2.3142126616477694
677.793103,,0.0,677.507,0.49300000071525574,-2.5272758704763367
678.2586210000001,,0.0,677.974,0.4909999966621399,-2.5311476818623415
678.7241379999999,,0.0,678.44,0.4729999899864197,-2.5698540821543885
679.1896549999999,,0.0,678.905,0.46700000762939453,-2.5824092949219066
679.655172,,0.0,679.364,0.46700000762939453,-2.5819016226958755
680.12069,,0.0,679.834,0.4749999940395355,-2.5639890787618156
680.5862070000001,,0.0,680.297,0.49000000953674316,-2.5308641391243327
681.051724,,0.0,680.76,0.49000000953674316,-2.5304697145823756
681.517241,,0.0,681.23,0.503000020980835,-2.5018146765141145
681.9827590000001,,0.0,681.69,0.49399998784065247,-2.5211612660363314
682.448276,,0.0,682.159,0.4880000054836273,-2.5340507810103308
682.9137929999999,,0.0,682.625,0.4749999940395355,-2.5622756435605387
683.3793099999999,,0.0,683.089,0.49900001287460327,-2.509977838010194
683.844828,,0.0,683.555,0.44999998807907104,-2.6168090700555813
684.310345,,0.0,684.02,0.48500001430511475,-2.540719136100015
684.775862,,0.0,684.485,0.47600001096725464,-2.560569688509014
685.241379,,0.0,684.945,0.49000000953674316,-2.530382764013294
685.706897,,0.0,685.41,0.4779999852180481,-2.5569021513910175
686.172414,,0.0,685.875,0.460999995470047,-2.594364840290664
686.637931,,0.0,686.341,0.4690000116825104,-2.577398899156064
687.103448,,0.0,686.804,0.47600001096725464,-2.5626348172738482
687.5689659999999,,0.0,687.274,0.4830000102519989,-2.5478783847983384
688.034483,,0.0,687.738,0.47699999809265137,-2.561436643959736
688.5,,0.0,688.2,0.4749999940395355,-2.56625782316333
688.965517,,0.0,688.664,0.4950000047683716,-2.523111976633659
689.4310340000001,,0.0,689.134,0.47200000286102295,-2.5735982272532576
689.896552,,0.0,689.6,0.49000000953674316,-2.5346988887823487
690.362069,,0.0,690.064,0.4729999899864197,-2.571982130717555
690.827586,,0.0,690.53,0.47200000286102295,-2.5743299077083766
691.293103,,0.0,690.989,0.49000000953674316,-2.5352016366936603
691.758621,,0.0,691.455,0.492000013589859,-2.530847120709846
692.224138,,0.0,691.92,0.4909999966621399,-2.5329439571827845
692.689655,,0.0,692.385,0.49000000953674316,-2.534959104645938
693.155172,,0.0,692.853,0.48100000619888306,-2.55432758042633
693.6206900000001,,0.0,693.315,0.4620000123977661,-2.595415138825092
694.0862070000001,,0.0,693.785,0.5049999952316284,-2.501368991807388
694.551724,,0.0,694.248,0.47699999809265137,-2.5619601669571113
695.0172409999999,,0.0,694.716,0.47200000286102295,-2.5724088834942416
695.482759,,0.0,695.178,0.4819999933242798,-2.550158713882659
695.948276,,0.0,695.644,0.46399998664855957,-2.588905902630561
696.4137929999999,,0.0,696.107,0.4860000014305115,-2.5405166874260248
696.87931,,0.0,696.572,0.4819999933242798,-2.548795555517024
697.344828,,0.0,697.038,0.47200000286102295,-2.570182511234437
697.8103450000001,,0.0,697.503,0.49399998784065247,-2.5219009737942386
698.2758620000001,,0.0,697.967,0.4880000054836273,-2.5346796611640015
698.741379,,0.0,698.433,0.5139999985694885,-2.477807656656437
699.206897,,0.0,698.897,0.47999998927116394,-2.551726966537988
699.672414,,0.0,699.363,0.48500001430511475,-2.5407562648866726
700.137931,,0.0,699.826,0.4950000047683716,-2.518972003411331
700.603448,,0.0,700.289,0.5529999732971191,-2.3926902206107012
701.068966,,0.0,700.756,0.48899999260902405,-2.5322771888769937
701.534483,,0.0,701.219,0.5009999871253967,-2.506356673641544
702.0,,0.0,701.686,0.47600001096725464,-2.561110145051843
702.4655170000001,,0.0,702.149,0.4819999933242798,-2.548381306181207
702.931034,,0.0,702.614,0.46399998664855957,-2.5879857557571415
703.3965519999999,,0.0,703.085,0.47200000286102295,-2.570979459771991
703.862069,,0.0,703.544,0.48399999737739563,-2.545279614689976
704.327586,,0.0,704.011,0.4860000014305115,-2.541372979742024
704.793103,,0.0,704.477,0.4659999907016754,-2.585389671172685
705.2586210000001,,0.0,704.942,0.4860000014305115,-2.542240134427095
705.724138,,0.0,705.408,0.47999998927116394,-2.5557021333556706
706.189655,,0.0,705.875,0.492000013589859,-2.5299027247039234
706.6551720000001,,0.0,706.341,0.47200000286102295,-2.573764119590822
707.12069,,0.0,706.801,0.49799999594688416,-2.517342930986212
707.586207,,0.0,707.271,0.5019999742507935,-2.50877998180609
708.051724,,0.0,707.734,0.48899999260902405,-2.5371770659637995
708.517241,,0.0,708.197,0.4779999852180481,-2.5611385573867573
708.982759,,0.0,708.668,0.4779999852180481,-2.561057561518213
709.4482760000001,,0.0,709.13,0.4830000102519989,-2.550008773709491
709.913793,,0.0,709.589,0.4880000054836273,-2.538890266839022
710.37931,,0.0,710.056,0.49399998784065247,-2.525530068180673
710.844828,,0.0,710.522,0.4860000014305115,-2.542616675662641
711.310345,,0.0,710.989,0.47999998927116394,-2.5553027938351796
711.775862,,0.0,711.455,0.48500001430511475,-2.5439926884587636
712.2413789999999,,0.0,711.919,0.492000013589859,-2.5283070097141516
712.706897,,0.0,712.385,0.46299999952316284,-2.5910479869126113
713.172414,,0.0,712.845,0.48399999737739563,-2.5448657890363444
713.637931,,0.0,713.315,0.49399998784065247,-2.5226707842789744
714.1034480000001,,0.0,713.778,0.4959999918937683,-2.517938606289527
714.5689659999999,,0.0,714.241,0.49399998784065247,-2.521965859195524
715.034483,,0.0,714.708,0.44600000977516174,-2.6262666639949965
715.5,,0.0,715.171,0.49000000953674316,-2.5301967908908116
715.965517,,0.0,715.636,0.4779999852180481,-2.556202011040266
716.431034,,0.0,716.099,0.48399999737739563,-2.543065663253204
716.896552,,0.0,716.565,0.503000020980835,-2.5016824052718056
717.362069,,0.0,717.03,0.49000000953674316,-2.5300903770676104
717.827586,,0.0,717.496,0.4909999966621399,-2.528068904677879
718.2931030000001,,0.0,717.96,0.5049999952316284,-2.497791544479908
718.758621,,0.0,718.427,0.4650000035762787,-2.5852209966627675
719.2241379999999,,0.0,718.893,0.49900001287460327,-2.511481975207081
719.689655,,0.0,719.359,0.47999998927116394,-2.5532524840776145
720.155172,,0.0,719.823,0.5299999713897705,-2.444724793617649
720.62069,,0.0,720.285,0.4880000054836273,-2.5366482052566472
721.0862070000001,,0.0,720.749,0.47600001096725464,-2.5632157541169933
721.551724,,0.0,721.219,0.4869999885559082,-2.5396661608373208
722.017241,,0.0,721.679,0.48899999260902405,-2.535703280404438
722.482759,,0.0,722.148,0.5019999742507935,-2.507741797393983
722.948276,,0.0,722.614,0.48899999260902405,-2.536380464738923
723.4137929999999,,0.0,723.078,0.4729999899864197,-2.57150155412128
723.87931,,0.0,723.544,0.47999998927116394,-2.5564530293256658
724.344828,,0.0,724.004,0.4880000054836273,-2.5391590504938906
724.810345,,0.0,724.47,0.46700000762939453,-2.5849751658698312
725.2758620000001,,0.0,724.935,0.47999998927116394,-2.5566450570197436
725.741379,,0.0,725.401,0.49000000953674316,-2.5347786794438596
726.2068969999999,,0.0,725.868,0.48500001430511475,-2.545521929658831
726.672414,,0.0,726.333,0.48500001430511475,-2.5453064301209674
727.137931,,0.0,726.794,0.47600001096725464,-2.5646401366579763
727.603448,,0.0,727.264,0.4790000021457672,-2.5577800678078337
728.068966,,0.0,727.727,0.48100000619888306,-2.5530584977991952
728.534483,,0.0,728.189,0.5009999871253967,-2.509091708562346
729.0,,0.0,728.655,0.4860000014305115,-2.5413594090319154
729.465517,,0.0,729.121,0.49399998784065247,-2.523512593712827
729.9310340000001,,0.0,729.586,0.4869999885559082,-2.538352606978088
730.3965519999999,,0.0,730.053,0.49000000953674316,-2.5314256984844166
730.8620689999999,,0.0,730.519,0.4880000054836273,-2.5354236035252615
731.327586,,0.0,730.986,0.47999998927116394,-2.5525359959432405
731.793103,,0.0,731.444,0.47999998927116394,-2.5522716482702825
732.2586210000001,,0.0,731.909,0.49399998784065247,-2.521566572656621
732.724138,,0.0,732.374,0.49000000953674316,-2.530143183914715
733.189655,,0.0,732.845,0.503000020980835,-2.5017526194500372
733.655172,,0.0,733.307,0.48399999737739563,-2.5431507318308637
734.12069,,0.0,733.775,0.49000000953674316,-2.5301545982471865
734.586207,,0.0,734.237,0.4729999899864197,-2.567337684136362
735.0517239999999,,0.0,734.701,0.4860000014305115,-2.5392272961665454
735.517241,,0.0,735.164,0.47699999809265137,-2.5591068501232797
735.982759,,0.0,735.63,0.49300000071525574,-2.5245713153468357
736.448276,,0.0,736.1,0.45399999618530273,-2.6099031332437113
736.913793,,0.0,736.566,0.49000000953674316,-2.5318672307543624
737.37931,,0.0,737.03,0.49799999594688416,-2.5148517404566038
737.844828,,0.0,737.489,0.48500001430511475,-2.543592635248702
738.310345,,0.0,737.96,0.4860000014305115,-2.5418248940109547
738.775862,,0.0,738.426,0.49000000953674316,-2.5335011661438243
739.2413789999999,,0.0,738.891,0.4690000116825104,-2.5796120195161145
739.706897,,0.0,739.349,0.4959999918937683,-2.521105369935233
740.172414,,0.0,739.819,0.49399998784065247,-2.525726902016784
740.637931,,0.0,740.281,0.5149999856948853,-2.4801780304575485
741.1034480000001,,0.0,740.75,0.47699999809265137,-2.5631017993360574
741.568966,,0.0,741.212,0.492000013589859,-2.530486229615326
742.034483,,0.0,741.675,0.49000000953674316,-2.534835136644428
742.5,,0.0,742.145,0.4959999918937683,-2.521682303168172
742.965517,,0.0,742.61,0.49799999594688416,-2.5171737799399274
743.431034,,0.0,743.074,0.47999998927116394,-2.556172884845266
743.896552,,0.0,743.54,0.49399998784065247,-2.5253969000125234
744.362069,,0.0,744.004,0.47999998927116394,-2.555573327846233
744.827586,,0.0,744.47,0.49000000953674316,-2.5334224149437015
745.293103,,0.0,744.93,0.48100000619888306,-2.5526373826286415
745.7586210000001,,0.0,745.396,0.48399999737739563,-2.545692157953741
746.2241379999999,,0.0,745.86,0.4699999988079071,-2.575780323262072
746.6896549999999,,0.0,746.326,0.49799999594688416,-2.514374094233344
747.155172,,0.0,746.789,0.47600001096725464,-2.561921020387139
747.62069,,0.0,747.259,0.4880000054836273,-2.5354263132200305
748.086207,,0.0,747.72,0.4830000102519989,-2.5460116559707395
748.551724,,0.0,748.189,0.4779999852180481,-2.5566494098324104
749.017241,,0.0,748.655,0.49300000071525574,-2.523774082511873
749.4827590000001,,0.0,749.121,0.503000020980835,-2.5018571384112995
749.9482760000001,,0.0,749.579,0.5019999742507935,-2.503973833792729
750.4137929999999,,0.0,750.046,0.47999998927116394,-2.5519124364239083
750.8793099999999,,0.0,750.512,0.49399998784065247,-2.52149037184881
751.344828,,0.0,750.979,0.47600001096725464,-2.5608534713445885
751.810345,,0.0,751.445,0.48500001430511475,-2.541457244791697
752.275862,,0.0,751.905,0.48100000619888306,-2.5504412449340075
752.741379,,0.0,752.37,0.47699999809265137,-2.5594748336550457
753.206897,,0.0,752.838,0.4959999918937683,-2.5184392065960637
753.672414,,0.0,753.301,0.5109999775886536,-2.4861460609830695
754.1379310000001,,0.0,753.764,0.47999998927116394,-2.5540865004975863
754.603448,,0.0,754.234,0.492000013589859,-2.528349233778867
755.0689659999999,,0.0,754.697,0.49000000953674316,-2.5331052262211284
755.534483,,0.0,755.16,0.49399998784065247,-2.5247692014442906
756.0,,0.0,755.625,0.4779999852180481,-2.5599747322915394
756.465517,,0.0,756.089,0.47600001096725464,-2.564637832926655
756.931034,,0.0,756.555,0.47999998927116394,-2.5561789527339043
757.396552,,0.0,757.02,0.47600001096725464,-2.5650912391456293
757.862069,,0.0,757.485,0.49799999594688416,-2.5172944858618624
758.3275860000001,,0.0,757.952,0.49000000953674316,-2.534788276287702
758.793103,,0.0,758.418,0.5,-2.512995321033483
759.258621,,0.0,758.882,0.48100000619888306,-2.554312410722968
759.724138,,0.0,759.348,0.4959999918937683,-2.52148735034933
760.189655,,0.0,759.815,0.47600001096725464,-2.5648514398695603
760.655172,,0.0,760.278,0.47999998927116394,-2.5558712994844837
761.1206900000001,,0.0,760.746,0.4779999852180481,-2.5599146140079494
761.5862070000001,,0.0,761.208,0.5090000033378601,-2.492022989981727
762.051724,,0.0,761.671,0.4909999966621399,-2.530855686978324
762.517241,,0.0,762.134,0.4819999933242798,-2.550062864234679
762.982759,,0.0,762.599,0.47200000286102295,-2.5714440109524936
763.448276,,0.0,763.064,0.5049999952316284,-2.499150835176823
763.9137929999999,,0.0,763.53,0.47600001096725464,-2.5619529551567912
764.37931,,0.0,763.997,0.5370000004768372,-2.4287065869793834
764.844828,,0.0,764.463,0.4880000054836273,-2.5351512482114544
765.310345,,0.0,764.93,0.4959999918937683,-2.5174625600349825
765.7758620000001,,0.0,765.396,0.45500001311302185,-2.606586560999027
766.241379,,0.0,765.861,0.4490000009536743,-2.619524510221249
766.706897,,0.0,766.32,0.5009999871253967,-2.5061714986309873
767.172414,,0.0,766.79,0.492000013589859,-2.525786902581393
767.637931,,0.0,767.252,0.4779999852180481,-2.5563659075332197
768.103448,,0.0,767.716,0.4959999918937683,-2.5172962327429778
768.568966,,0.0,768.186,0.43799999356269836,-2.64386826444859
769.034483,,0.0,768.644,0.4950000047683716,-2.519954265368439
769.5,,0.0,769.114,0.4950000047683716,-2.5202726158294597
769.9655170000001,,0.0,769.58,0.5,-2.509736098561679
770.4310340000001,,0.0,770.045,0.4729999899864197,-2.56894412560163
770.8965519999999,,0.0,770.511,0.49300000071525574,-2.5257721454450563
771.362069,,0.0,770.975,0.49900001287460327,-2.5131052109084213
771.827586,,0.0,771.434,0.4569999873638153,-2.605005331116307
772.293103,,0.0,771.901,0.4819999933242798,-2.5509166104746313
772.7586210000001,,0.0,772.366,0.4729999899864197,-2.5708712307358583
773.224138,,0.0,772.834,0.492000013589859,-2.529781797472534
773.689655,,0.0,773.296,0.49799999594688416,-2.516963120152279
774.155172,,0.0,773.764,0.48100000619888306,-2.5541935705496366
774.62069,,0.0,774.226,0.47999998927116394,-2.556500626878401
775.086207,,0.0,774.69,0.48100000619888306,-2.5543817099966795
775.551724,,0.0,775.159,0.48500001430511475,-2.5456563864250126
776.017241,,0.0,775.625,0.5049999952316284,-2.5020020773514293
776.482759,,0.0,776.089,0.5920000076293945,-2.312307630698614
776.9482760000001,,0.0,776.556,0.47200000286102295,-2.5735264313458184
777.413793,,0.0,777.015,0.4880000054836273,-2.538391232398474
777.87931,,0.0,777.481,0.49900001287460327,-2.5141017561436088
778.344828,,0.0,777.945,0.4690000116825104,-2.5790994277578156
778.810345,,0.0,778.411,0.49300000071525574,-2.5264243355436786
779.275862,,0.0,778.875,0.47600001096725464,-2.563060111771901
779.7413789999999,,0.0,779.341,0.47999998927116394,-2.553943143419581
780.206897,,0.0,779.804,0.5040000081062317,-2.501264034962269
780.672414,,0.0,780.275,0.47600001096725464,-2.561897216676579
781.137931,,0.0,780.738,0.4869999885559082,-2.5375973053383323
781.6034480000001,,0.0,781.2,0.4860000014305115,-2.5394856036222206
782.0689659999999,,0.0,781.664,0.4699999988079071,-2.574107082780256
782.5344829999999,,0.0,782.134,0.4830000102519989,-2.5456085832762096
783.0,,0.0,782.6,0.4790000021457672,-2.5542131107866153
783.465517,,0.0,783.06,0.48899999260902405,-2.5323853350399443
783.931034,,0.0,783.526,0.48100000619888306,-2.549842809795586
784.396552,,0.0,783.99,0.48500001430511475,-2.541224991855749
784.862069,,0.0,784.457,0.48100000619888306,-2.5501016943155843
785.327586,,0.0,784.923,0.47999998927116394,-2.552502584014696
785.7931030000001,,0.0,785.388,0.4819999933242798,-2.548420567717261
786.258621,,0.0,785.849,0.4950000047683716,-2.5204174676547906
786.7241379999999,,0.0,786.319,0.4779999852180481,-2.5578077472781118
787.189655,,0.0,786.782,0.4580000042915344,-2.6017574646530255
787.655172,,0.0,787.245,0.4860000014305115,-2.5411444615046284
788.12069,,0.0,787.716,0.47600001096725464,-2.5633199294089395
788.5862070000001,,0.0,788.178,0.48399999737739563,-2.546267247666147
789.051724,,0.0,788.644,0.48399999737739563,-2.546619493613653
789.517241,,0.0,789.106,0.4830000102519989,-2.549115178756943
789.982759,,0.0,789.572,0.4869999885559082,-2.5406727946447676
790.448276,,0.0,790.038,0.47699999809265137,-2.5626783434571037
790.9137929999999,,0.0,790.503,0.4880000054836273,-2.5388727011958605
791.3793099999999,,0.0,790.967,0.49000000953674316,-2.5346103900199424
791.844828,,0.0,791.433,0.47999998927116394,-2.5564246374883286
792.310345,,0.0,791.898,0.4860000014305115,-2.543312796486023
792.7758620000001,,0.0,792.364,0.4830000102519989,-2.549742725097211
793.241379,,0.0,792.827,0.503000020980835,-2.506000835723153
793.7068969999999,,0.0,793.289,0.47999998927116394,-2.5558833311706177
794.172414,,0.0,793.757,0.5099999904632568,-2.4902469452738845
794.637931,,0.0,794.219,0.4830000102519989,-2.548751790187465
795.103448,,0.0,794.689,0.47999998927116394,-2.5549380428127386
795.568966,,0.0,795.152,0.47999998927116394,-2.5545688790425816
796.034483,,0.0,795.618,0.49000000953674316,-2.5324052283788117
796.5,,0.0,796.081,0.48100000619888306,-2.551639598054487
796.965517,,0.0,796.547,0.4569999873638153,-2.6035695891313573
797.4310340000001,,0.0,797.012,0.49399998784065247,-2.522629208344768
797.8965519999999,,0.0,797.477,0.4880000054836273,-2.535407281226028
798.3620689999999,,0.0,797.942,0.4779999852180481,-2.5569452575618956
798.827586,,0.0,798.407,0.49799999594688416,-2.5131765100773666
799.293103,,0.0,798.875,0.4880000054836273,-2.5348254988286696
799.758621,,0.0,799.34,0.5059999823570251,-2.495534283973166
800.224138,,0.0,799.801,0.48899999260902405,-2.532559518908405
800.689655,,0.0,800.271,0.4860000014305115,-2.53914791924232
801.155172,,0.0,800.734,0.4830000102519989,-2.545799172539019
801.62069,,0.0,801.196,0.49000000953674316,-2.5307230159798073
802.086207,,0.0,801.668,0.4860000014305115,-2.5396652986753594
802.5517239999999,,0.0,802.13,0.47600001096725464,-2.56172564441213
803.017241,,0.0,802.595,0.4860000014305115,-2.54025082223594
803.482759,,0.0,803.061,0.48399999737739563,-2.544947561385422
803.948276,,0.0,803.519,0.4880000054836273,-2.536589298444902
804.413793,,0.0,803.986,0.46299999952316284,-2.5914180061242
804.87931,,0.0,804.451,0.49300000071525574,-2.5264160801960616
805.344828,,0.0,804.916,0.4880000054836273,-2.537650256627046
805.810345,,0.0,805.381,0.503000020980835,-2.505283572959332
806.275862,,0.0,805.849,0.49900001287460327,-2.514273372399522
806.7413789999999,,0.0,806.312,0.49900001287460327,-2.5145021102908633
807.206897,,0.0,806.775,0.46399998664855957,-2.590931008760028
807.672414,,0.0,807.244,0.48100000619888306,-2.5540131911741155
808.137931,,0.0,807.705,0.47200000286102295,-2.5736801797062694
808.603448,,0.0,808.174,0.5059999823570251,-2.499602952837507
809.068966,,0.0,808.64,0.4830000102519989,-2.54964596175308
809.534483,,0.0,809.103,0.48399999737739563,-2.5473413200645685
810.0,,0.0,809.568,0.48399999737739563,-2.547159705146182
810.465517,,0.0,810.034,0.4790000021457672,-2.5578216860292424
810.931034,,0.0,810.5,0.49000000953674316,-2.5335830083861834
811.396552,,0.0,810.965,0.47699999809265137,-2.5615982866654763
811.862069,,0.0,811.43,0.49300000071525574,-2.5264087030097504
812.327586,,0.0,811.89,0.4779999852180481,-2.5587435950637927
812.793103,,0.0,812.356,0.4830000102519989,-2.5475026645910908
813.2586210000001,,0.0,812.819,0.5049999952316284,-2.4992325295269535
813.724138,,0.0,813.289,0.48100000619888306,-2.55119801578782
814.1896549999999,,0.0,813.749,0.49000000953674316,-2.5312961824887474
814.655172,,0.0,814.219,0.47699999809265137,-2.559362163996343
815.12069,,0.0,814.682,0.49000000953674316,-2.5308286433021636
815.586207,,0.0,815.145,0.4959999918937683,-2.517597210735343
816.051724,,0.0,815.611,0.47699999809265137,-2.558888111945774
816.517241,,0.0,816.074,0.48500001430511475,-2.541415094282788
816.982759,,0.0,816.54,0.47200000286102295,-2.5697548593387576
817.4482760000001,,0.0,817.005,0.47699999809265137,-2.5589394918482395
817.913793,,0.0,817.47,0.4790000021457672,-2.5547179724293114
818.3793099999999,,0.0,817.937,0.48100000619888306,-2.5505496845681916
818.844828,,0.0,818.403,0.4950000047683716,-2.5202843376724315
819.310345,,0.0,818.867,0.3869999945163727,-2.7558548176167283
819.775862,,0.0,819.333,0.4779999852180481,-2.557907912695862
820.241379,,0.0,819.794,0.4790000021457672,-2.5560618196631677
820.706897,,0.0,820.263,0.46399998664855957,-2.589084469679372
821.172414,,0.0,820.726,0.46700000762939453,-2.582891137350252
821.6379310000001,,0.0,821.189,0.4950000047683716,-2.5222201037148224
822.1034480000001,,0.0,821.655,0.49900001287460327,-2.5138133848600326
822.5689659999999,,0.0,822.12,0.49300000071525574,-2.527159666438787
823.034483,,0.0,822.586,0.4749999940395355,-2.566608095659106
823.5,,0.0,823.052,0.48100000619888306,-2.5537207542688107
823.965517,,0.0,823.518,0.4830000102519989,-2.549494339124836
824.431034,,0.0,823.983,0.4909999966621399,-2.5321381667127003
824.896552,,0.0,824.449,0.4819999933242798,-2.5517589383802375
825.362069,,0.0,824.915,0.49000000953674316,-2.5342825327011296
825.827586,,0.0,825.381,0.47999998927116394,-2.5559637142550153
826.293103,,0.0,825.841,0.4959999918937683,-2.5209454302874934
826.758621,,0.0,826.304,0.4880000054836273,-2.538165355298846
827.224138,,0.0,826.771,0.4909999966621399,-2.531377792847693
827.689655,,0.0,827.234,0.5239999890327454,-2.459196121050992
828.155172,,0.0,827.704,0.47699999809265137,-2.561280748614228
828.6206900000001,,0.0,828.167,0.49799999594688416,-2.515202640690991
829.0862070000001,,0.0,828.633,0.4869999885559082,-2.538837680922821
829.551724,,0.0,829.095,0.48500001430511475,-2.5428719605316736
830.017241,,0.0,829.561,0.48899999260902405,-2.5338522573067386
830.482759,,0.0,830.026,0.4830000102519989,-2.54664658174443
830.948276,,0.0,830.492,0.4300000071525574,-2.661875083230219
831.4137929999999,,0.0,830.957,0.4880000054836273,-2.535319695981231
831.87931,,0.0,831.422,0.4779999852180481,-2.5569636409994945
832.344828,,0.0,831.889,0.503000020980835,-2.502408936192187
832.810345,,0.0,832.355,0.4830000102519989,-2.545949819124223
833.2758620000001,,0.0,832.816,0.4880000054836273,-2.535081541028721
833.741379,,0.0,833.286,0.492000013589859,-2.5264478626984097
834.2068969999999,,0.0,833.749,0.47699999809265137,-2.5592615733746107
834.672414,,0.0,834.211,0.4830000102519989,-2.546372259702236
835.137931,,0.0,834.675,0.4790000021457672,-2.5553120263289704
835.603448,,0.0,835.145,0.4819999933242798,-2.549036170627195
836.068966,,0.0,835.611,0.4690000116825104,-2.5776450728671487
836.534483,,0.0,836.07,0.48100000619888306,-2.551804917923945
837.0,,0.0,836.536,0.49900001287460327,-2.5128993947011633
837.4655170000001,,0.0,837.001,0.5109999775886536,-2.487061113357187
837.9310340000001,,0.0,837.466,0.4869999885559082,-2.5396390917354426
838.3965519999999,,0.0,837.93,0.5059999823570251,-2.498511154396771
838.862069,,0.0,838.396,0.47699999809265137,-2.561926106464178
839.327586,,0.0,838.861,0.4819999933242798,-2.5512280891872856
839.793103,,0.0,839.327,0.47600001096725464,-2.5644506568965513
840.2586210000001,,0.0,839.789,0.6060000061988831,-2.28132561382981
840.724138,,0.0,840.259,0.49000000953674316,-2.5340915171610634
841.189655,,0.0,840.72,0.492000013589859,-2.529721099231521
841.655172,,0.0,841.189,0.4950000047683716,-2.5231194399008467
842.12069,,0.0,841.655,0.47999998927116394,-2.5556837548465046
842.586207,,0.0,842.12,0.4819999933242798,-2.551166082827643
843.0517239999999,,0.0,842.579,0.49300000071525574,-2.5270014092384887
843.517241,,0.0,843.046,0.492000013589859,-2.528947891681198
843.982759,,0.0,843.512,0.4440000057220459,-2.6332669829609414
844.4482760000001,,0.0,843.979,0.4779999852180481,-2.5589227083487347
844.913793,,0.0,844.445,0.4749999940395355,-2.565182853939902
845.37931,,0.0,844.905,0.46399998664855957,-2.588875350157061
845.844828,,0.0,845.371,0.48100000619888306,-2.551577624955341
846.310345,,0.0,845.834,0.4880000054836273,-2.536086118859241
846.775862,,0.0,846.303,0.47600001096725464,-2.5620157447769003
847.2413789999999,,0.0,846.764,0.47600001096725464,-2.561835245778935
847.706897,,0.0,847.233,0.4650000035762787,-2.5856593416015903
848.172414,,0.0,847.697,0.45500001311302185,-2.6073487818156145
848.637931,,0.0,848.159,0.47600001096725464,-2.561546828480159
849.1034480000001,,0.0,848.625,0.4959999918937683,-2.517970210454979
849.5689659999999,,0.0,849.089,0.47999998927116394,-2.552870122497902
850.0344829999999,,0.0,849.555,0.4880000054836273,-2.5355256274930316
850.5,,0.0,850.02,0.4880000054836273,-2.535650172139657
850.965517,,0.0,850.485,0.4880000054836273,-2.5358097489567824
851.431034,,0.0,850.952,0.515999972820282,-2.4749960513809675
851.896552,,0.0,851.418,0.47699999809265137,-2.5601737476629616
852.362069,,0.0,851.883,0.48899999260902405,-2.534256056962265
852.827586,,0.0,852.348,0.47999998927116394,-2.554098642455933
853.2931030000001,,0.0,852.809,0.4779999852180481,-2.558691855120691
853.758621,,0.0,853.278,0.4860000014305115,-2.5414922384873866
854.2241379999999,,0.0,853.741,0.48899999260902405,-2.535172061781584
854.689655,,0.0,854.204,0.47999998927116394,-2.5549750120233568
855.155172,,0.0,854.675,0.4830000102519989,-2.548607758814422
855.62069,,0.0,855.137,0.5009999871253967,-2.5095292254762653
856.0862070000001,,0.0,855.603,0.48399999737739563,-2.5466673943415503
856.551724,,0.0,856.068,0.5090000033378601,-2.4922635209369846
857.017241,,0.0,856.534,0.48399999737739563,-2.546751846880859
857.482759,,0.0,856.994,0.4749999940395355,-2.5663421142229064
857.948276,,0.0,857.459,0.4880000054836273,-2.5379642360663506
858.4137929999999,,0.0,857.927,0.4790000021457672,-2.557481159983803
858.8793099999999,,0.0,858.392,0.5019999742507935,-2.5072490788548976
859.344828,,0.0,858.864,0.4790000021457672,-2.557206750674642
859.810345,,0.0,859.322,0.4880000054836273,-2.537425364684852
860.275862,,0.0,859.79,0.492000013589859,-2.5285209268357307
860.741379,,0.0,860.252,0.48399999737739563,-2.5457503348524377
