Trial: ,38
Threshold: ,0.0
Maximum EMG: ,0.015272498539381332
Success: ,True

EMG Time,Raw EMG,Filtered EMG,Force Time,Raw Force (V),Filtered Force (N)
0.0,samples,1.3792738075097445e-07,0.471,0.4880000054836273,-2.536771144212454
0.46551699999999996,time,1.491939056734549e-07,0.934,0.48899999260902405,-2.5344541819205584
0.9310339999999999,value,1.6041524966242172e-07,1.397,0.49000000953674316,-2.5321425901564423
1.396552,,1.7154946649710857e-07,1.867,0.47999998927116394,-2.553806113444935
1.862069,,1.825531089382245e-07,2.325,0.48899999260902405,-2.5340893489248804
2.327586,,1.9338131875665778e-07,2.796,0.4749999940395355,-2.5644993039083186
2.793103,,2.0398792567933237e-07,3.261,0.492000013589859,-2.5273919133158382
3.258621,,2.1432555528466542e-07,3.727,0.4779999852180481,-2.5578457896676965
3.724138,,2.2434574584957888e-07,4.185,0.4729999899864197,-2.568716670845027
4.189654999999999,,2.3399907411819565e-07,4.65,0.503000020980835,-2.5033603524825327
4.655172,,2.43235289929263e-07,5.116,0.49000000953674316,-2.531710781743332
5.12069,,2.520034596050535e-07,5.583,0.47699999809265137,-2.560085272851321
5.586207,,2.6025211796906495e-07,6.049,0.4959999918937683,-2.518765798981436
6.051723999999999,,2.679294288233576e-07,6.512,0.47999998927116394,-2.5537193405521768
6.517241,,2.749833536789081e-07,6.982,0.47999998927116394,-2.553832019037316
6.982759,,2.8136182849402147e-07,7.445,0.48100000619888306,-2.5517802324114576
7.448276,,2.8701294813672136e-07,7.908,0.460999995470047,-2.595490627204427
7.913793000000001,,2.9188515824723967e-07,8.371,0.48899999260902405,-2.534632093505893
8.379309999999998,,2.959274541363638e-07,8.841,0.492000013589859,-2.528240583234392
8.844828000000001,,2.990895863145926e-07,9.3,0.49900001287460327,-2.513129878927283
9.310345,,3.013222722059255e-07,9.766,0.5019999742507935,-2.5067242693084983
9.775862,,3.025774135587966e-07,10.232,0.4779999852180481,-2.559128461831619
10.241379,,3.0280831902530637e-07,10.698,0.4779999852180481,-2.5592285297988706
10.706897,,3.0196993133864267e-07,11.164,0.47600001096725464,-2.563666495637275
11.172414,,3.000190584775732e-07,11.63,0.49000000953674316,-2.5332239396228298
11.637931,,2.9691460816628735e-07,12.096,0.4959999918937683,-2.5201858595284614
12.103447999999998,,2.9261782501783246e-07,12.561,0.47600001096725464,-2.5637665517842567
12.568966000000001,,2.8709252959009104e-07,13.02,0.49900001287460327,-2.5136392259806115
13.034483,,2.803053585848566e-07,13.49,0.49000000953674316,-2.533202763248844
13.5,,2.722260053832614e-07,13.952,0.4819999933242798,-2.5505631933730757
13.965517,,2.62827460074769e-07,14.42,0.4830000102519989,-2.548293856066496
14.431034,,2.520862481023516e-07,14.882,0.48899999260902405,-2.535112389836696
14.896552,,2.3998266661351215e-07,15.345,0.49000000953674316,-2.532808384893237
15.362069,,2.2650101757567277e-07,15.815,0.4880000054836273,-2.5370285807702997
15.827586000000002,,2.1162983668532383e-07,16.281,0.47600001096725464,-2.563028161217738
16.293103,,1.9536211707340088e-07,16.745,0.44600000977516174,-2.6282420628973027
16.758621,,1.7769552678482323e-07,17.211,0.4959999918937683,-2.5191677791355866
17.224138,,1.5863261898817712e-07,17.671,0.4860000014305115,-2.5408195228152946
17.689655,,1.3818103385234972e-07,18.138,0.49000000953674316,-2.5319809853309216
18.155172,,1.1635369101070306e-07,18.604,0.49300000071525574,-2.5253358996603885
18.62069,,9.316897152030834e-08,19.07,0.4830000102519989,-2.5470315061731688
19.086207,,6.865088821402036e-08,19.53,0.49399998784065247,-2.5229969122116307
19.551724,,4.2829243336940323e-08,20.0,0.48500001430511475,-2.5425587951583184
20.017241000000002,,1.5739772356264527e-08,20.464,0.49000000953674316,-2.5316448424626676
20.482758999999998,,1.2575727165184751e-08,20.926,0.48500001430511475,-2.542543376200334
20.948276,,4.206928273613912e-08,21.394,0.4869999885559082,-2.53821743070876
21.413793000000002,,7.268665123969166e-08,21.856,0.49000000953674316,-2.531737793546097
21.87931,,1.0436724145286147e-07,22.322,0.4880000054836273,-2.5361747000337336
22.344828,,1.3704405584580775e-07,22.792,0.49300000071525574,-2.525381783215443
22.810344999999998,,1.7064365270077395e-07,23.25,0.492000013589859,-2.527678199993233
23.275862,,2.050861295633372e-07,23.716,0.46399998664855957,-2.588812503221496
23.741379,,2.4028512900623676e-07,24.181,0.48500001430511475,-2.543203669959154
24.206897,,2.7614786764886523e-07,24.645,0.503000020980835,-2.5041364971998967
24.672414,,3.125751893333468e-07,25.111,0.49000000953674316,-2.5326076005407083
25.137931,,3.494616433109381e-07,25.579,0.47699999809265137,-2.561074464990434
25.603448,,3.866955882402173e-07,26.044,0.4779999852180481,-2.5590320948436514
26.068966,,4.2415932274114074e-07,26.508,0.49300000071525574,-2.5264759592604373
26.534483,,4.617292431865324e-07,26.971,0.47600001096725464,-2.5636197162658307
27.0,,4.992760293449258e-07,27.442,0.47600001096725464,-2.5637064175104944
27.465517,,5.366648584159263e-07,27.904,0.503000020980835,-2.5049464500670693
27.931034,,5.737556479214363e-07,28.367,0.4909999966621399,-2.531127805208614
28.396552,,6.104033278332487e-07,28.83,0.45500001311302185,-2.60956986324198
28.862069,,6.46458142229743e-07,29.296,0.47999998927116394,-2.5550882307953033
29.327586,,6.81765980681815e-07,29.76,0.5009999871253967,-2.509294636274252
29.793103000000002,,7.161687394708506e-07,30.225,0.492000013589859,-2.5288340144666464
30.258620999999998,,7.495047126396722e-07,30.69,0.5,-2.5113118173907694
30.724138,,7.816090127710891e-07,31.162,0.47200000286102295,-2.572199568404527
31.189655000000002,,8.123140212781841e-07,31.627,0.4790000021457672,-2.5568175377790823
31.655172000000004,,8.414498678759592e-07,32.085,0.4269999861717224,-2.669964123166727
32.12069,,8.688449387856836e-07,32.557,0.4560000002384186,-2.6066340650570154
32.586207,,8.943264131015073e-07,33.015,0.49000000953674316,-2.532408634860957
33.051724,,9.177208266238874e-07,33.486,0.45899999141693115,-2.5997967359685785
33.517241000000006,,9.388546623364444e-07,33.948,0.4729999899864197,-2.569151727088841
33.982759,,9.57554966572345e-07,34.416,0.47600001096725464,-2.562482377678669
34.448276,,9.736499897835464e-07,34.878,0.4880000054836273,-2.5362193163695004
34.913793,,9.869698506916178e-07,35.342,0.47699999809265137,-2.5600826597415653
35.37931,,9.973472224627764e-07,35.812,0.4909999966621399,-2.5295003388849353
35.844828,,1.0046180394126518e-06,36.27,0.4970000088214874,-2.516369917910784
36.310345,,1.0086222226085804e-06,36.735,0.5009999871253967,-2.507620972904514
36.775862,,1.0092044225993846e-06,37.201,0.4749999940395355,-2.5642570114553873
37.241378999999995,,1.0062147773651044e-06,37.667,0.4819999933242798,-2.5490244726260083
37.706897000000005,,9.995096834425167e-07,38.133,0.47600001096725464,-2.5621411852872296
38.172414,,9.889525780470367e-07,38.601,0.4909999966621399,-2.5295318525586237
38.637931,,9.74414729878278e-07,39.066,0.4819999933242798,-2.5492333794967523
39.103448,,9.557760361657175e-07,39.527,0.47999998927116394,-2.5537050991068377
39.568965999999996,,9.329258233831367e-07,39.99,0.47200000286102295,-2.57126649104056
40.034483,,9.057636489363882e-07,40.46,0.4819999933242798,-2.549626318374401
40.5,,8.742001010091548e-07,40.923,0.49000000953674316,-2.5323527172143776
40.965517,,8.381575936363484e-07,41.386,0.4959999918937683,-2.519440528545519
41.431034,,7.975711539652478e-07,41.856,0.49900001287460327,-2.513062977492281
41.896552,,7.523891985610312e-07,42.315,0.48100000619888306,-2.5524311967219866
42.362069000000005,,7.025742955166579e-07,42.785,0.4909999966621399,-2.530787105026539
42.827586000000004,,6.481039090377168e-07,43.25,0.4790000021457672,-2.557058949839365
43.293103,,5.889711230915336e-07,43.715,0.47699999809265137,-2.561526348870594
43.758621,,5.251853406371481e-07,44.181,0.4970000088214874,-2.5180419326017005
44.224138,,4.56772954889364e-07,44.646,0.5009999871253967,-2.5093908607766147
44.689655,,3.837779890165771e-07,45.111,0.47999998927116394,-2.555178650552139
45.155172,,3.062627006291015e-07,45.571,0.492000013589859,-2.529042895242535
45.620689999999996,,2.2430814738286588e-07,46.037,0.4909999966621399,-2.5312011673024477
46.086206999999995,,1.3801471000322057e-07,46.504,0.46399998664855957,-2.5899765901389205
46.551724,,4.7502569025771715e-08,46.967,0.4869999885559082,-2.539793714216696
47.017241,,4.7087868443810584e-08,47.434,0.49000000953674316,-2.533159631431021
47.482759,,1.4559559563063066e-07,47.897,0.49000000953674316,-2.533039654253693
47.948276,,2.4783869029933127e-07,48.36,0.48899999260902405,-2.535079926490864
48.413793,,3.536140598713244e-07,48.83,0.4690000116825104,-2.5785005044639737
48.879310000000004,,4.626972509894401e-07,49.295,0.48399999737739563,-2.5456594824728356
49.344828,,5.748423269920815e-07,49.759,0.4819999933242798,-2.5498511726415343
49.810345,,6.897818166664514e-07,50.225,0.49799999594688416,-2.5148272976628046
50.275862,,8.072267375418896e-07,50.69,0.48500001430511475,-2.542989005929632
50.741379,,9.268666968595234e-07,51.155,0.4880000054836273,-2.5363021763541265
51.206897,,1.0483700732130258e-06,51.62,0.47999998927116394,-2.5535951897509452
51.672414,,1.1713842816970884e-06,52.086,0.4880000054836273,-2.5360487241962786
52.137931,,1.2955361252250823e-06,52.545,0.48500001430511475,-2.542489954652381
52.603448,,1.420432234485208e-06,53.011,0.4779999852180481,-2.557671491263301
53.068966,,1.5456595987951556e-06,53.479,0.47699999809265137,-2.5598092411287476
53.534483,,1.6707861898889178e-06,53.941,0.4000000059604645,-2.72755553514008
54.0,,1.7953616804260041e-06,54.409,0.4880000054836273,-2.5358575560972794
54.465517,,1.9189182587530143e-06,54.871,0.5070000290870667,-2.494516261147635
54.931034,,2.040971541170542e-06,55.342,0.48100000619888306,-2.5512407331488594
55.396552,,2.161021582664971e-06,55.804,0.47600001096725464,-2.56223827744465
55.862069,,2.27855398675522e-06,56.27,0.46399998664855957,-2.5885089607909384
56.327586,,2.393041114779302e-06,56.734,0.4729999899864197,-2.5690470237634884
56.793102999999995,,2.5039433946051842e-06,57.199,0.4749999940395355,-2.564850117508727
57.258621000000005,,2.6107107283953863e-06,57.664,0.48399999737739563,-2.545411845475535
57.724138,,2.7127839986857213e-06,58.13,0.4880000054836273,-2.536870350496306
58.189655,,2.8095966716562172e-06,58.59,0.4830000102519989,-2.547934732425255
58.655172,,2.9005764960774104e-06,59.056,0.4959999918937683,-2.519776156294805
59.120689999999996,,2.9851472960086843e-06,59.527,0.503000020980835,-2.504676549715963
59.586207,,3.0627308549081174e-06,59.99,0.4779999852180481,-2.5592764448216445
60.051724,,3.1327488883864257e-06,60.453,0.48399999737739563,-2.546317390769395
60.517241,,3.194625102402113e-06,60.915,0.4729999899864197,-2.570371791661658
60.982758999999994,,3.2477873332520937e-06,61.383,0.49399998784065247,-2.5246830451196245
61.448276,,3.291669765263081e-06,61.846,0.45399999618530273,-2.611863839013277
61.913793,,3.3257152216352483e-06,62.311,0.492000013589859,-2.5290813151167284
62.379310000000004,,3.3493775234325166e-06,62.781,0.4790000021457672,-2.5573807138634965
62.84482800000001,,3.362123911254743e-06,63.24,0.4830000102519989,-2.548614192769143
63.310345000000005,,3.363437523667679e-06,63.712,0.48500001430511475,-2.544177775000723
63.775862000000004,,3.352819926008422e-06,64.17,0.5009999871253967,-2.5092150843227436
64.241379,,3.3297936827289206e-06,64.641,0.49000000953674316,-2.5330533085937548
64.706897,,3.2939049659896085e-06,65.1,0.4869999885559082,-2.539443972959981
65.172414,,3.244726192771306e-06,65.571,0.47699999809265137,-2.5610716118135066
65.637931,,3.181858682337966e-06,66.037,0.47999998927116394,-2.5543685814382235
66.103448,,3.10493532545759e-06,66.497,0.4909999966621399,-2.53023302057479
66.56896599999999,,3.0136232563756175e-06,66.967,0.5009999871253967,-2.508277379752449
67.03448300000001,,2.9076265181363733e-06,67.427,0.492000013589859,-2.52772197908194
67.5,,2.7866887114657035e-06,67.897,0.49799999594688416,-2.5144979552100972
67.965517,,2.6505956170638754e-06,68.36,0.47200000286102295,-2.5710067847616282
68.431034,,2.499177780814173e-06,68.823,0.47699999809265137,-2.559998606418151
68.896552,,2.3323130510915864e-06,69.288,0.4880000054836273,-2.5359432275367078
69.362069,,2.1499290570596097e-06,69.753,0.4909999966621399,-2.5293439986028603
69.827586,,1.9520056165736117e-06,70.218,0.4749999940395355,-2.5641679258981305
70.293103,,1.7385770620685904e-06,70.682,0.4880000054836273,-2.5358411750628993
70.75862099999999,,1.509734472599522e-06,71.148,0.5009999871253967,-2.5075443543511455
71.22413800000001,,1.2656278000260188e-06,71.612,0.47200000286102295,-2.5707796087040893
71.689655,,1.0064678771917004e-06,72.078,0.49000000953674316,-2.5316460812348835
72.15517200000001,,7.325282958445652e-07,72.545,0.49000000953674316,-2.5317533102846608
72.62069,,4.441471419797241e-07,73.011,0.4880000054836273,-2.536239308952829
73.086207,,1.4172857626201385e-07,73.472,0.4909999966621399,-2.5298496084083775
73.551724,,1.7425575279485503e-07,73.941,0.49300000071525574,-2.525651479785992
74.017241,,5.032654751520903e-07,74.404,0.4779999852180481,-2.5584986706268853
74.482759,,8.446904572216906e-07,74.867,0.4819999933242798,-2.549955054755436
74.94827599999999,,1.1978499634851412e-06,75.333,0.47600001096725464,-2.5631965071887564
75.41379300000001,,1.5619920335377e-06,75.799,0.4959999918937683,-2.51978633238336
75.87931,,1.9362930860820907e-06,76.265,0.47999998927116394,-2.554795330413528
76.344828,,2.3198577610842133e-06,76.731,0.4880000054836273,-2.5374999880419495
76.810345,,2.7117190109388644e-06,77.197,0.49000000953674316,-2.533255694680033
77.275862,,3.110838451074438e-06,77.656,0.503000020980835,-2.5050214259126675
77.741379,,3.5161069799512863e-06,78.122,0.47999998927116394,-2.555191008866111
78.206897,,3.926345677878168e-06,78.586,0.4959999918937683,-2.520364058205211
78.67241399999999,,4.340306993484461e-06,79.052,0.4699999988079071,-2.5770106036204785
79.137931,,4.756676226042255e-06,79.52,0.4880000054836273,-2.537767123564489
79.603448,,5.174073311131828e-06,79.982,0.503000020980835,-2.5050305020374437
80.068966,,5.591054916386512e-06,80.445,0.49000000953674316,-2.533268141511963
80.53448300000001,,6.006116853238617e-06,80.915,0.49000000953674316,-2.53315816772232
81.0,,6.417696809717606e-06,81.376,0.4860000014305115,-2.5417413835957703
81.465517,,6.824177408425538e-06,81.846,0.47999998927116394,-2.55466480769538
81.931034,,7.223889592833976e-06,82.312,0.47999998927116394,-2.5545040908146213
82.396552,,7.615116344012156e-06,82.775,0.48100000619888306,-2.552157501045667
82.86206899999999,,7.996096728809625e-06,83.24,0.47600001096725464,-2.5628808414261846
83.327586,,8.365030279379348e-06,83.704,0.4880000054836273,-2.5365702979382285
83.79310299999999,,8.720081702741475e-06,84.17,0.48399999737739563,-2.5451260629165837
84.258621,,9.059385917855487e-06,84.634,0.4659999907016754,-2.5841959026121915
84.72413800000001,,9.381053416391789e-06,85.1,0.48399999737739563,-2.5448521390575896
85.189655,,9.683175942075633e-06,85.565,0.492000013589859,-2.52731599004648
85.65517200000001,,9.963832482119365e-06,86.031,0.4830000102519989,-2.546840771778144
86.12069,,1.0221095562866684e-05,86.494,0.48100000619888306,-2.5511415390020376
86.586207,,1.0453037840348203e-05,86.956,0.48899999260902405,-2.533684103771311
87.051724,,1.065773897499482e-05,87.427,0.47999998927116394,-2.5532926465469092
87.517241,,1.0833292778278261e-05,87.89,0.49900001287460327,-2.511927658964231
87.98275899999999,,1.097781461755078e-05,88.353,0.4749999940395355,-2.5642723454614904
88.448276,,1.10894490638429e-05,88.815,0.47999998927116394,-2.553462511320385
88.913793,,1.1166377765853973e-05,89.281,0.4880000054836273,-2.536140562639012
89.37931,,1.120682753184014e-05,89.749,0.49399998784065247,-2.5231960662279893
89.844828,,1.1209078599573245e-05,90.214,0.4740000069141388,-2.5669125618905912
90.310345,,1.1171473073017722e-05,90.679,0.4729999899864197,-2.5692472826191604
90.775862,,1.1092423502856185e-05,91.145,0.4880000054836273,-2.536731413596063
91.241379,,1.0970421586494122e-05,91.605,0.4959999918937683,-2.519468341909849
91.706897,,1.0804046961695992e-05,92.071,0.4790000021457672,-2.556668336269219
92.17241399999999,,1.0591976066555001e-05,92.538,0.47600001096725464,-2.5633597480345074
92.63793100000001,,1.033299103708366e-05,93.004,0.4959999918937683,-2.5199301561847838
93.103448,,1.0025988612338204e-05,93.471,0.46700000762939453,-2.5832376991066353
93.568966,,9.669989015663906e-06,93.934,0.4909999966621399,-2.531056738311563
94.03448300000001,,9.264144779376838e-06,94.401,0.47999998927116394,-2.555104988429427
94.5,,8.807749478987939e-06,94.863,0.4779999852180481,-2.55951939371455
94.965517,,8.300246341933992e-06,95.329,0.46700000762939453,-2.5835143727465275
95.431034,,7.741236694714488e-06,95.793,0.4830000102519989,-2.5486579095698665
95.896552,,7.130488211350416e-06,96.259,0.47600001096725464,-2.5638820989846622
96.36206899999999,,6.467942925187768e-06,96.724,0.5019999742507935,-2.5071829164940937
96.827586,,5.753724965272188e-06,97.189,0.4790000021457672,-2.5572105982079685
97.293103,,4.9881479778285875e-06,97.656,0.4779999852180481,-2.55928413927628
97.758621,,4.17172219279771e-06,98.115,0.4860000014305115,-2.541729319456688
98.224138,,3.305161094917442e-06,98.58,0.49799999594688416,-2.5154428089146963
98.689655,,2.389387658496885e-06,99.046,0.4779999852180481,-2.5588600593211113
99.155172,,1.4255401048223084e-06,99.516,0.4909999966621399,-2.5303738416386126
99.62069,,4.1497714106261006e-07,99.978,0.4869999885559082,-2.5389216737581415
100.086207,,6.407173603860679e-07,100.441,0.4729999899864197,-2.5692582183638133
100.551724,,1.7397302829553898e-06,100.911,0.47200000286102295,-2.5712801912371557
101.017241,,2.8800158278216943e-06,101.372,0.5139999985694885,-2.4796324725926615
101.482759,,4.0592927566096365e-06,101.842,0.4819999933242798,-2.549220443422774
101.948276,,5.275042354104836e-06,102.3,0.4860000014305115,-2.5403969489550335
102.413793,,6.524507149324852e-06,102.767,0.4779999852180481,-2.5577411968448427
102.87931,,7.804690432250492e-06,103.232,0.48100000619888306,-2.5511469221782668
103.344828,,9.112356602293903e-06,103.697,0.5059999823570251,-2.4966505433515223
103.810345,,1.044403238317278e-05,104.163,0.47999998927116394,-2.553293743278325
104.275862,,1.1796008937268567e-05,104.628,0.48899999260902405,-2.5337132015984793
104.741379,,1.3164344910768291e-05,105.093,0.49000000953674316,-2.5315901540766714
105.206897,,1.4544870438923174e-05,105.56,0.47999998927116394,-2.5534590014052
105.672414,,1.593319213860106e-05,106.026,0.49900001287460327,-2.5121711432665412
106.13793100000001,,1.732469911296356e-05,106.486,0.49000000953674316,-2.531906189892329
106.603448,,1.8714569990562728e-05,106.956,0.47699999809265137,-2.5603729211900563
107.068966,,2.0097781018427094e-05,107.419,0.48500001430511475,-2.5431011867599964
107.534483,,2.1469115225794276e-05,107.882,0.4970000088214874,-2.5171230825896873
108.0,,2.2823172672049597e-05,108.346,0.49399998784065247,-2.5238273584425186
108.46551699999999,,2.4154381789150133e-05,108.815,0.4950000047683716,-2.5218143234616437
108.931034,,2.5457011825355376e-05,109.281,0.492000013589859,-2.528508323890991
109.396552,,2.6725186393453493e-05,109.746,0.48100000619888306,-2.5526194836662888
109.862069,,2.7952898122871734e-05,110.212,0.47699999809265137,-2.5614641422374174
110.32758600000001,,2.913402441109721e-05,110.671,0.47200000286102295,-2.5724679435413367
110.793103,,3.0262344265716926e-05,111.137,0.4729999899864197,-2.570377238509303
111.258621,,3.1331556224121594e-05,111.601,0.46399998664855957,-2.5900478110784637
111.724138,,3.233529733351545e-05,112.067,0.48500001430511475,-2.5443315202614993
112.189655,,3.326716316934346e-05,112.53,0.47200000286102295,-2.5726604364186754
112.655172,,3.4120728865598985e-05,113.0,0.4880000054836273,-2.537778932341206
113.12069,,3.48895711257202e-05,113.46,0.47999998927116394,-2.5551557675791856
113.586207,,3.556729117793484e-05,113.93,0.48399999737739563,-2.546360776763293
114.051724,,3.614753863398336e-05,114.39,0.5059999823570251,-2.4983239954506398
114.51724100000001,,3.662403620515476e-05,114.86,0.4880000054836273,-2.5374094500027193
114.982759,,3.6990605224521477e-05,115.326,0.4880000054836273,-2.5372597148299523
115.448276,,3.724119191917625e-05,115.789,0.44699999690055847,-2.6264206424914383
115.913793,,3.736989437117069e-05,116.255,0.47999998927116394,-2.554353385087189
116.37931,,3.7370990100750264e-05,116.719,0.5049999952316284,-2.499711380764365
116.84482799999999,,3.72389642003914e-05,117.185,0.47600001096725464,-2.5627167974857703
117.310345,,3.696853794309239e-05,117.649,0.49000000953674316,-2.532046416728257
117.77586199999999,,3.655469778336986e-05,118.115,0.4699999988079071,-2.5754618075448024
118.241379,,3.599272466448788e-05,118.58,0.47999998927116394,-2.553534572593974
118.70689700000001,,3.5278223540616705e-05,119.045,0.48899999260902405,-2.5338070293282287
119.172414,,3.440715301790519e-05,119.508,0.47200000286102295,-2.570748980722621
119.63793100000001,,3.337585501387637e-05,119.971,0.48500001430511475,-2.5423593439588226
120.103448,,3.2181084330142074e-05,120.441,0.4819999933242798,-2.5488581472709217
120.568966,,3.0820038029202095e-05,120.904,0.4950000047683716,-2.520529401517031
121.034483,,2.9290384502069726e-05,121.368,0.4880000054836273,-2.5358046523558726
121.5,,2.759029210967151e-05,121.83,0.4749999940395355,-2.5641825297777983
121.96551699999999,,2.571845727742804e-05,122.295,0.47999998927116394,-2.553374460192315
122.431034,,2.3674131919158825e-05,122.766,0.4959999918937683,-2.518628349588836
122.896552,,2.1457150063490264e-05,123.225,0.4790000021457672,-2.555801155901884
123.362069,,1.9067953553306007e-05,123.69,0.492000013589859,-2.5276341244441167
123.827586,,1.6507616686486273e-05,124.156,0.49000000953674316,-2.5321618013036464
124.293103,,1.3777869664260668e-05,124.62,0.47999998927116394,-2.554128613333254
124.758621,,1.0881120711970016e-05,125.086,0.47999998927116394,-2.5543138310911826
125.22413800000001,,7.82047673591965e-06,125.553,0.4000000059604645,-2.728792007219494
125.68965500000002,,4.5997623793311005e-06,126.019,0.4650000035762787,-2.5873632212745177
126.15517200000001,,1.2235373401826658e-06,126.487,0.47699999809265137,-2.561393079096006
126.62069000000001,,2.3028881860075726e-06,126.948,0.4749999940395355,-2.5659070655639598
127.086207,,5.973440074640187e-06,127.412,0.4830000102519989,-2.548612163295324
127.55172400000001,,9.781268986637472e-06,127.875,0.4880000054836273,-2.537826101855349
128.017241,,1.3718741362277484e-05,128.345,0.48500001430511475,-2.5444381444994995
128.48275900000002,,1.777743282497583e-05,128.808,0.4790000021457672,-2.557552579876169
128.948276,,2.1948124122794112e-05,129.273,0.492000013589859,-2.5292374351257814
129.413793,,2.6220799731933762e-05,129.739,0.48899999260902405,-2.5357447077919373
129.87931,,3.058464924235891e-05,130.205,0.5019999742507935,-2.507357786179025
130.344828,,3.5028071640970714e-05,130.665,0.492000013589859,-2.529045397685384
130.81034499999998,,3.953868260241916e-05,131.131,0.4860000014305115,-2.541987386099483
131.275862,,4.4103324891678726e-05,131.598,0.4749999940395355,-2.565796004309383
131.741379,,4.870808197592618e-05,132.064,0.47999998927116394,-2.554724837428072
132.206897,,5.333829493603812e-05,132.527,0.5009999871253967,-2.5087789943219674
132.67241399999997,,5.7978582760171025e-05,132.99,0.4860000014305115,-2.5412536406164676
133.13793099999998,,6.261286609339845e-05,133.46,0.47600001096725464,-2.5628309896913697
133.60344800000001,,6.722439450826119e-05,133.922,0.492000013589859,-2.5277663747017
134.06896600000002,,7.17957773513421e-05,134.39,0.5419999957084656,-2.418635843822507
134.53448300000002,,7.630901821061481e-05,134.852,0.4909999966621399,-2.5295621223044993
135.0,,8.074555303734603e-05,135.318,0.47999998927116394,-2.553362967719688
135.465517,,8.508629194476629e-05,135.78,0.48500001430511475,-2.5423326275864357
135.931034,,8.931166469357987e-05,136.246,0.492000013589859,-2.526976853996079
136.396552,,9.340166986167944e-05,136.712,0.4790000021457672,-2.5552294451274706
136.862069,,9.73359276821847e-05,137.178,0.49000000953674316,-2.531232471893594
137.327586,,0.00010109373652016226,137.645,0.49000000953674316,-2.531239892746162
137.793103,,0.00010465413294413157,138.111,0.4830000102519989,-2.5465371151127463
138.258621,,0.00010799595533374825,138.571,0.4399999976158142,-2.640304899174935
138.724138,,0.00011109791094991564,139.037,0.4970000088214874,-2.5162450822234286
139.189655,,0.00011393864637804085,139.5,0.4779999852180481,-2.5577953650475176
139.655172,,0.00011649682123926402,139.97,0.48500001430511475,-2.5427280316475342
140.12069,,0.0001187511850482867,140.431,0.47600001096725464,-2.5625410614372943
140.586207,,0.00012068065707995395,140.901,0.49000000953674316,-2.5322605151119255
141.05172399999998,,0.0001222644090900504,141.364,0.4830000102519989,-2.5477397014668686
141.51724099999998,,0.0001234819507189039,141.826,0.48899999260902405,-2.53489713820969
141.982759,,0.00012431321738940292,142.292,0.492000013589859,-2.5285835330987703
142.44827600000002,,0.00012473866049397985,142.756,0.4729999899864197,-2.570186308523486
142.913793,,0.00012473933964805148,143.221,0.4880000054836273,-2.537694480441534
143.37931,,0.00012429701677039943,143.687,0.47600001096725464,-2.5639995674306917
143.844828,,0.00012339425173407906,144.152,0.5019999742507935,-2.507483721280901
144.310345,,0.0001220144993147311,144.62,0.4819999933242798,-2.551148499085472
144.77586200000002,,0.00012014220714670222,145.085,0.4880000054836273,-2.538128228339602
145.241379,,0.0001177629143812287,145.55,0.49000000953674316,-2.5337805683349175
145.706897,,0.00011486335072517107,146.016,0.45899999141693115,-2.6012861807150296
146.172414,,0.00011143153552348074,146.478,0.49000000953674316,-2.533674559803124
146.637931,,0.00010745687653380422,146.941,0.49000000953674316,-2.5335616816003577
147.103448,,0.00010293026802746382,147.412,0.47600001096725464,-2.5639134823281493
147.568966,,9.78441878375701e-05,147.874,0.48100000619888306,-2.552839513010358
148.034483,,9.219279296229918e-05,148.342,0.4860000014305115,-2.541739641565796
148.5,,8.597201331948417e-05,148.805,0.46700000762939453,-2.582907929002476
148.965517,,7.917964323770206e-05,149.271,0.4880000054836273,-2.536918178282421
149.43103399999998,,7.181543025906395e-05,149.731,0.47600001096725464,-2.5628190563219264
149.89655199999999,,6.388116082001546e-05,150.196,0.46799999475479126,-2.5800085227807177
150.362069,,5.538074236870181e-05,150.66,0.492000013589859,-2.5274920055469385
150.82758600000003,,4.632028147092594e-05,151.126,0.492000013589859,-2.5272805839224595
151.293103,,3.6708157451502054e-05,151.593,0.4959999918937683,-2.518378418940303
151.758621,,2.6555091113956795e-05,152.059,0.49000000953674316,-2.5312926008320717
152.224138,,1.5874208079126284e-05,152.52,0.4779999852180481,-2.5573143699151393
152.68965500000002,,4.681096282310863e-06,152.99,0.47200000286102295,-2.570304628279624
153.155172,,7.006142830653091e-06,153.453,0.5239999890327454,-2.4569761914377226
153.62069,,1.916684986569759e-05,153.915,0.4860000014305115,-2.5397695019971898
154.086207,,3.177777025443898e-05,154.386,0.48899999260902405,-2.533282273163379
154.551724,,4.481302468711348e-05,154.849,0.48399999737739563,-2.544267823823345
155.017241,,5.824408764428987e-05,155.314,0.4749999940395355,-2.5640093984761485
155.482759,,7.203977445759267e-05,155.777,0.5059999823570251,-2.4966424298675083
155.948276,,8.616623731822636e-05,156.243,0.4650000035762787,-2.586170238241827
156.413793,,0.00010058697063868906,156.708,0.49000000953674316,-2.5319336732723086
156.87931,,0.00011526282615766647,157.174,0.4129999876022339,-2.699940048267539
157.34482799999998,,0.00013015203816067644,157.639,0.4690000116825104,-2.578200168443168
157.81034499999998,,0.00014521025916956482,158.104,0.492000013589859,-2.5283604413237155
158.275862,,0.0001603906064324205,158.571,0.4830000102519989,-2.5482317390561846
158.741379,,0.00017564371952186723,159.03,0.47999998927116394,-2.55501678460462
159.20689700000003,,0.00019091782932400238,159.497,0.4790000021457672,-2.5574221590749415
159.672414,,0.00020615883867249044,159.96,0.49799999594688416,-2.5162244727326604
160.137931,,0.00022131041485249283,160.43,0.47699999809265137,-2.5621356742944603
160.60344800000001,,0.00023631409416724537,160.893,0.4869999885559082,-2.540466457555824
161.06896600000002,,0.00025110939872620875,161.36,0.47600001096725464,-2.564502538441534
161.534483,,0.0002656339655778526,161.823,0.4779999852180481,-2.5601674858671597
162.0,,0.0002798236882723331,162.289,0.5,-2.5122091079364792
162.465517,,0.0002936128708996422,162.752,0.47600001096725464,-2.564418378363444
162.931034,,0.00030693439460730535,163.218,0.5049999952316284,-2.501111090852366
163.396552,,0.000319719896558464,163.682,0.47699999809265137,-2.5619421119342523
163.862069,,0.00033189996124626523,164.148,0.503000020980835,-2.5050865408424334
164.327586,,0.0003434043240340014,164.612,0.47600001096725464,-2.563666498600677
164.793103,,0.00035416208674248845,165.078,0.4819999933242798,-2.5503261168838844
165.258621,,0.00036410194505685664,165.543,0.4819999933242798,-2.5500414185555735
165.72413799999998,,0.0003731524274743726,166.008,0.4699999988079071,-2.575893498047421
166.189655,,0.00038124214546324405,166.471,0.4690000116825104,-2.577783233502361
166.655172,,0.0003883000544497222,166.941,0.38999998569488525,-2.749621550861605
167.12069,,0.0003942557251973583,167.401,0.48500001430511475,-2.542398696236251
167.58620699999997,,0.0003990396250881485,167.871,0.4819999933242798,-2.5487135374974925
168.051724,,0.0004025834087606824,168.33,0.47600001096725464,-2.5615997819027903
168.517241,,0.0004048202175054771,168.8,0.4880000054836273,-2.5353120391185318
168.98275900000002,,0.00040568498676261277,169.266,0.3779999911785126,-2.774867668411176
169.44827600000002,,0.00040511476101178184,169.731,0.4959999918937683,-2.5177443104598014
169.913793,,0.00040304901529012246,170.19,0.4860000014305115,-2.539540446636935
170.37931,,0.0003994299825189451,170.657,0.46000000834465027,-2.596245881537304
170.844828,,0.000394202985766889,171.123,0.49000000953674316,-2.53099672785802
171.310345,,0.00038731677452439754,171.59,0.48500001430511475,-2.542046191289036
171.775862,,0.00037872386401290254,172.055,0.47600001096725464,-2.5618512158318216
172.241379,,0.0003683808765019898,172.516,0.4909999966621399,-2.529403749035422
172.706897,,0.0003562488835593258,172.985,0.49000000953674316,-2.5318421711417414
173.172414,,0.00034229374811151195,173.446,0.47699999809265137,-2.5604440016921695
173.637931,,0.0003264864651495683,173.916,0.4790000021457672,-2.556377478281396
174.103448,,0.00030880349987065747,174.379,0.4749999940395355,-2.565385545199853
174.568966,,0.00028922712200817545,174.841,0.48100000619888306,-2.552600634591382
175.034483,,0.00026774573506571636,175.307,0.4749999940395355,-2.5659441454321157
175.5,,0.00024435419913700296,175.77,0.49799999594688416,-2.5160825603211725
175.96551699999998,,0.00021905414596396007,176.236,0.4749999940395355,-2.566406526957292
176.43103399999998,,0.000191854284858831,176.701,0.5090000033378601,-2.4925081628890466
176.896552,,0.00016277069809367048,177.167,0.4749999940395355,-2.566712928996544
177.36206900000002,,0.00013182712434203845,177.634,0.49000000953674316,-2.534114977795205
177.827586,,9.905522874397113e-05,178.1,0.4779999852180481,-2.5602894608713083
178.293103,,6.449485815671408e-05,178.561,0.47999998927116394,-2.555910694724812
178.758621,,2.8194280149699186e-05,179.027,0.47999998927116394,-2.5558378503735284
179.224138,,9.789595697917916e-06,179.49,0.4860000014305115,-2.542643699539909
179.68965500000002,,4.9391015634074685e-05,179.96,0.4740000069141388,-2.568619547546441
180.155172,,9.053520012927361e-05,180.42,0.4880000054836273,-2.5379100073474095
180.62069,,0.00013313818423401236,180.889,0.48399999737739563,-2.546381787683017
181.086207,,0.00017710668127719656,181.35,0.47600001096725464,-2.5635412229222205
181.551724,,0.00022233797126176494,181.819,0.47999998927116394,-2.5545386471218263
182.01724099999998,,0.0002687198152853607,182.285,0.47099998593330383,-2.5738492193858287
182.482759,,0.00031613039726408607,182.75,0.4790000021457672,-2.5561227433180633
182.948276,,0.0003644382941678258,183.216,0.47200000286102295,-2.5710852470532535
183.413793,,0.00041350247591984823,183.682,0.492000013589859,-2.5272420439835814
183.87931,,0.00046317233609451504,184.14,0.48500001430511475,-2.5422481130282817
184.34482799999998,,0.0005132877545142711,184.612,0.46799999475479126,-2.57907424023894
184.81034499999998,,0.0005636791927125291,185.07,0.4819999933242798,-2.548402808517539
185.27586200000002,,0.0006141678230264535,185.542,0.49300000071525574,-2.5243128342633656
185.74137900000002,,0.0006645656920211342,186.001,0.4830000102519989,-2.546023474553976
186.206897,,0.0007146759191207105,186.471,0.49000000953674316,-2.530748577919947
186.672414,,0.000764292931381709,186.933,0.4729999899864197,-2.5678139122237007
187.137931,,0.0008132027348109832,187.401,0.492000013589859,-2.5264998117713025
187.60344800000001,,0.000861183221845633,187.863,0.48100000619888306,-2.5505947709497194
188.06896600000002,,0.0009080045148302663,188.329,0.4970000088214874,-2.5159115950233066
188.534483,,0.0009534293468495317,188.793,0.4830000102519989,-2.5466279310295863
189.0,,0.0009972134817611096,189.259,0.4880000054836273,-2.53598362265646
189.465517,,0.0010391061722402064,189.724,0.4740000069141388,-2.566760119808852
189.931034,,0.0010788506509199014,190.19,0.4950000047683716,-2.5213020548419123
190.39655199999999,,0.0011161846526617136,190.656,0.47600001096725464,-2.5629989732835887
190.862069,,0.0011508409756798275,191.122,0.47999998927116394,-2.5545870378602085
191.327586,,0.0011825480905680212,191.58,0.4880000054836273,-2.5374512049281135
191.793103,,0.0012110307870661313,192.045,0.48399999737739563,-2.546440654313546
192.25862099999998,,0.0012360108299971184,192.516,0.4830000102519989,-2.54886706543563
192.72413799999998,,0.001257207620267228,192.979,0.49399998784065247,-2.5251149274367988
193.189655,,0.0012743389138137936,193.442,0.4699999988079071,-2.5775740131101585
193.655172,,0.001287121646176327,193.912,0.492000013589859,-2.529768683762768
194.12069000000002,,0.0012952727886462803,194.375,0.48399999737739563,-2.5472721445014606
194.586207,,0.0012985100751899104,194.837,0.47699999809265137,-2.5625437402791946
195.051724,,0.0012965526200411,195.303,0.492000013589859,-2.5298311543223564
195.517241,,0.0012891217680325922,195.767,0.5170000195503235,-2.4752781650242013
195.98275900000002,,0.0012759424047853773,196.232,0.4790000021457672,-2.557928205193971
196.448276,,0.0012567441993497543,196.697,0.4950000047683716,-2.5228840244953648
196.913793,,0.0012312618860179853,197.163,0.4359999895095825,-2.651198298044498
197.37931,,0.0011992349513209532,197.627,0.49000000953674316,-2.5332926092550734
197.844828,,0.0011604088487353332,198.093,0.48500001430511475,-2.5439017469330043
198.310345,,0.0011145386750321838,198.56,0.5139999985694885,-2.4804185952317064
198.775862,,0.0010613916819216327,199.026,0.49000000953674316,-2.532394212402369
199.241379,,0.0010007438027246954,199.486,0.4749999940395355,-2.5647626713102274
199.706897,,0.0009323737982312246,199.956,0.492000013589859,-2.527425196491488
200.172414,,0.0008560678007426091,200.416,0.48500001430511475,-2.5423953273916724
200.63793099999998,,0.0007716370310001286,200.886,0.4880000054836273,-2.535607560330665
201.103448,,0.0006789246163965346,201.349,0.46700000762939453,-2.5811441884886333
201.568966,,0.0005777765950511342,201.812,0.48100000619888306,-2.5504721396146057
202.034483,,0.0004680067198730167,202.278,0.47600001096725464,-2.561243791063816
202.5,,0.0003494299093983968,202.742,0.4880000054836273,-2.5350313604940284
202.965517,,0.0002219631472535753,203.208,0.48399999737739563,-2.543732201132504
203.431034,,8.56389620646162e-05,203.675,0.574999988079071,-2.345515015540844
203.896552,,5.958959373177532e-05,204.14,0.48899999260902405,-2.5329695963864065
204.36206900000002,,0.0002140306120166583,204.601,0.4830000102519989,-2.5461821989947206
204.827586,,0.0003779957073583645,205.067,0.4790000021457672,-2.5550854432422248
205.293103,,0.0005512195365841574,205.53,0.47999998927116394,-2.553138074985764
205.758621,,0.0007329251765177627,206.0,0.4869999885559082,-2.538154460560283
206.224138,,0.0009230686914038863,206.46,0.49300000071525574,-2.525376754359343
206.689655,,0.001123196403570688,206.931,0.4779999852180481,-2.5583690779515558
207.155172,,0.0013345686398434434,207.394,0.48500001430511475,-2.5434401890650338
207.62069,,0.001554899490116525,207.856,0.4869999885559082,-2.5394039908132475
208.086207,,0.0017796135304917217,208.322,0.4749999940395355,-2.5658582943255506
208.551724,,0.0020095516561107964,208.785,0.4950000047683716,-2.5225757281032894
209.01724099999998,,0.002254533432990651,209.25,0.48399999737739563,-2.5468018844759714
209.482759,,0.0025203534071181217,209.716,0.48100000619888306,-2.5535612755167274
209.948276,,0.002791083113056733,210.182,0.47200000286102295,-2.5733484591632947
210.413793,,0.003041692722073315,210.649,0.4819999933242798,-2.551691620836938
210.87930999999998,,0.003284510859025139,211.115,0.4959999918937683,-2.52126570117815
211.344828,,0.003580329086035184,211.58,0.4779999852180481,-2.5604990736533737
211.810345,,0.0039517144971336305,212.045,0.4580000042915344,-2.6040320816193425
212.27586200000002,,0.004291011181850477,212.508,0.48899999260902405,-2.536397797567797
212.741379,,0.004465308712803972,212.971,0.4880000054836273,-2.538425783869435
213.206897,,0.004590047707999109,213.441,0.4869999885559082,-2.540403107177915
213.672414,,0.005033270678319926,213.904,0.4830000102519989,-2.548871541221721
214.137931,,0.005855284016779324,214.368,0.48899999260902405,-2.5355161382298324
214.60344800000001,,0.006322213813175365,214.83,0.503000020980835,-2.5047020717007626
215.068966,,0.005542626534536105,215.295,0.47699999809265137,-2.5610140160830306
215.534483,,0.0038069814668659605,215.766,0.47200000286102295,-2.5715651472506083
216.0,,0.002620673796664541,216.225,0.4699999988079071,-2.5755824322408296
216.465517,,0.00292788325503954,216.69,0.4819999933242798,-2.5491111285454306
216.93103399999998,,0.003905975157353449,217.155,0.46399998664855957,-2.5880218582123997
217.39655199999999,,0.00398703076194059,217.62,0.46799999475479126,-2.5790346807482725
217.862069,,0.002575865028848654,218.086,0.46799999475479126,-2.5788032282385873
218.327586,,0.0005430019077889447,218.553,0.46399998664855957,-2.5873347729804608
218.793103,,0.0005549455991446934,219.018,0.49000000953674316,-2.530560620989612
219.25862099999998,,0.00014213476998987327,219.486,0.47699999809265137,-2.55881122603946
219.724138,,0.0017721525850006882,219.948,0.47200000286102295,-2.5696924954447153
220.18965500000002,,0.0024421125819720333,220.412,0.47200000286102295,-2.5697414739949362
220.65517200000002,,0.0013369812534402218,220.882,0.5090000033378601,-2.489239531687959
221.12069,,0.00036683776165306956,221.345,0.4819999933242798,-2.5482263407016275
221.586207,,0.001156380781370333,221.808,0.47999998927116394,-2.5527977256169656
222.051724,,0.0011632396173189721,222.273,0.492000013589859,-2.52691287218175
222.517241,,0.0017276675358695805,222.738,0.47200000286102295,-2.5707820960737866
222.98275900000002,,0.003291885744760118,223.204,0.48899999260902405,-2.5340699161766675
223.448276,,0.0047118586438145964,223.671,0.47699999809265137,-2.560557387912035
223.913793,,0.004890994827390642,224.137,0.49000000953674316,-2.5325870186769714
224.37931,,0.004281161743581132,224.601,0.4779999852180481,-2.5590806788902203
224.844828,,0.004218869331020959,225.066,0.49000000953674316,-2.533273730158689
225.31034499999998,,0.005249322682750891,225.527,0.4790000021457672,-2.557552564993809
225.775862,,0.006641417281250231,225.99,0.47600001096725464,-2.5643695764399306
226.241379,,0.007287134623775865,226.46,0.48899999260902405,-2.5362870604262757
226.706897,,0.006629599202063318,226.923,0.4909999966621399,-2.5321204953809375
227.172414,,0.004983141125784809,227.386,0.4830000102519989,-2.54968507917925
227.63793099999998,,0.003540920556500398,227.856,0.5189999938011169,-2.4713290792269356
228.103448,,0.0037931109945512306,228.315,0.4650000035762787,-2.5889886622457223
228.56896600000002,,0.005911265344778582,228.785,0.48500001430511475,-2.545365778625908
229.03448300000002,,0.007680876553019593,229.25,0.4790000021457672,-2.558327066225183
229.5,,0.006400537895033217,229.716,0.4779999852180481,-2.5603373514732777
229.965517,,0.002337015107830623,230.175,0.48500001430511475,-2.544865471512729
230.431034,,0.0011039542896725098,230.642,0.49900001287460327,-2.5140962282491053
230.896552,,0.0013785053833668185,231.108,0.5130000114440918,-2.4832871293300403
231.362069,,0.0004718021377798056,231.575,0.47600001096725464,-2.5635584085758274
231.827586,,0.0019738779739108554,232.041,0.47600001096725464,-2.5632002760665613
232.293103,,0.0024751857435496225,232.501,0.4830000102519989,-2.547583622863431
232.758621,,0.0028185393723014346,232.971,0.4830000102519989,-2.547220392179723
233.224138,,0.002990703154159813,233.434,0.5009999871253967,-2.5076550016901047
233.689655,,0.0019311630849199138,233.897,0.46299999952316284,-2.5901181039951053
234.155172,,0.0005284285231862004,234.36,0.5019999742507935,-2.5048598712705346
234.62069,,0.0029089099988241327,234.83,0.4729999899864197,-2.5677930521321146
235.086207,,0.0035815829107951618,235.296,0.47600001096725464,-2.561060798626265
235.55172399999998,,0.0023291811631554462,235.759,0.46399998664855957,-2.5870665436203546
236.01724099999998,,0.000257311698458999,236.225,0.4819999933242798,-2.547775340900637
236.482759,,0.0011885394080596568,236.689,0.4779999852180481,-2.556479139060571
236.94827600000002,,0.0008988651818263698,237.155,0.4690000116825104,-2.576141260835559
237.413793,,0.0013395309314280077,237.619,0.4830000102519989,-2.5457583048373857
237.87931,,0.004213669721483273,238.085,0.4880000054836273,-2.535043076062067
238.344828,,0.005424280711061497,238.549,0.4779999852180481,-2.557061933056449
238.810345,,0.003901263418390145,239.015,0.4950000047683716,-2.5203044886217167
239.27586200000002,,0.0013168139422298558,239.478,0.49300000071525574,-2.5249799257681733
239.741379,,0.0004316482442157393,239.941,0.49799999594688416,-2.5144333981215787
240.206897,,0.00181726026157818,240.409,0.47600001096725464,-2.562728753163264
240.672414,,0.0030232295736383054,240.871,0.4830000102519989,-2.5478513005298944
241.137931,,0.0014022222010277132,241.342,0.49799999594688416,-2.5155412626637252
241.603448,,0.0026587665820380292,241.804,0.5009999871253967,-2.509359639688257
242.068966,,0.005734741274201966,242.27,0.5009999871253967,-2.5096874558043787
242.534483,,0.004629932682517265,242.736,0.4959999918937683,-2.520872133978941
243.0,,0.0002204880656483982,243.202,0.47699999809265137,-2.5625132534914234
243.465517,,0.004555911276496412,243.66,0.47600001096725464,-2.5648873785462074
243.93103399999998,,0.004066974294006019,244.125,0.4790000021457672,-2.558490044923431
244.39655199999999,,0.0009969639801483939,244.59,0.46700000762939453,-2.5847113676948705
244.862069,,0.0053325463436057294,245.057,0.5090000033378601,-2.493221739921695
245.327586,,0.0036623367578803635,245.52,0.4830000102519989,-2.5498148993348515
245.793103,,0.0034459726250801355,245.99,0.48399999737739563,-2.54752081674591
246.258621,,0.009608463350165025,246.453,0.48899999260902405,-2.5364520619128417
246.724138,,0.008962399692812635,246.915,0.4790000021457672,-2.5580080947633097
247.18965500000002,,0.0019121321857259316,247.386,0.4869999885559082,-2.5403005218934536
247.655172,,0.005841583829075774,247.849,0.4830000102519989,-2.5486969288079844
248.12069,,0.009044997831716447,248.315,0.46000000834465027,-2.598457900708458
248.586207,,0.00678378642917155,248.777,0.4749999940395355,-2.565411444708463
249.051724,,0.0018249976503490577,249.243,0.5,-2.5105700100635464
249.517241,,0.0020522783413789336,249.708,0.47999998927116394,-2.5537697485375355
249.982759,,0.0024634144555358826,250.174,0.503000020980835,-2.503300432832548
250.44827600000002,,0.000167222236378724,250.638,0.47600001096725464,-2.561787483756948
250.913793,,0.0013112620214270555,251.104,0.49300000071525574,-2.524448212753483
251.37931000000003,,0.0005922165980313365,251.571,0.48899999260902405,-2.5329039348281612
251.844828,,0.003911599463320285,252.037,0.4970000088214874,-2.5152667673817803
252.31034499999998,,0.004075498958119566,252.497,0.4749999940395355,-2.5630467027481876
252.77586200000002,,0.00017505576674905216,252.967,0.49000000953674316,-2.5302792181337135
253.241379,,0.004762389600017648,253.428,0.4860000014305115,-2.5389715606484695
253.706897,,0.005075018493749771,253.89,0.49000000953674316,-2.530300797447669
254.172414,,0.0010157783214343147,254.36,0.5040000081062317,-2.4999082594173516
254.63793099999998,,0.003858432092687919,254.823,0.48100000619888306,-2.550187248687775
255.10344800000001,,0.00643538251990486,255.288,0.4909999966621399,-2.528627880073872
255.56896600000002,,0.005751400122136573,255.753,0.4740000069141388,-2.565942829940113
256.03448299999997,,0.0022975042687675773,256.218,0.4830000102519989,-2.546655876301642
256.5,,0.0022009044212477264,256.683,0.4970000088214874,-2.51650888043141
256.965517,,0.005072713817359368,257.149,0.48399999737739563,-2.5452076523079135
257.431034,,0.004606362348768399,257.615,0.4880000054836273,-2.536880479220007
257.896552,,0.001658614533765546,258.082,0.48899999260902405,-2.535088901823264
258.362069,,0.0014049994923412902,258.542,0.4819999933242798,-2.5507144692084602
258.827586,,0.0030760231916368294,259.007,0.4950000047683716,-2.522743683465889
259.29310300000003,,0.0034952712052245087,259.475,0.4819999933242798,-2.551383701877373
259.758621,,0.0032812694645253395,259.938,0.46700000762939453,-2.5843376763019554
260.224138,,0.0023793580361508113,260.401,0.49900001287460327,-2.51484364196357
260.689655,,0.0005357787373709878,260.871,0.48500001430511475,-2.5455083768509765
261.155172,,0.001351788858710485,261.342,0.48899999260902405,-2.536893037163315
261.62068999999997,,0.0013564543073520368,261.797,0.49900001287460327,-2.5151379366483053
262.086207,,0.0012586926713563326,262.263,0.47999998927116394,-2.5564946676687677
262.551724,,0.004411099523519581,262.728,0.4740000069141388,-2.569461273157127
263.017241,,0.004813313578781656,263.193,0.4880000054836273,-2.5387905502121515
263.482759,,0.001463959234344082,263.66,0.5009999871253967,-2.5102383022290455
263.94827599999996,,0.00309918452932349,264.125,0.4790000021457672,-2.557884821562251
264.413793,,0.005390818397317213,264.59,0.503000020980835,-2.505268043542832
264.87931,,0.004372604558178117,265.056,0.4790000021457672,-2.557190791813414
265.34482799999995,,0.002038669922462874,265.519,0.47200000286102295,-2.572052189638951
265.810345,,0.001248641120574382,265.982,0.4880000054836273,-2.5367924302082967
266.27586199999996,,0.003191056555412632,266.449,0.4830000102519989,-2.547283743552381
266.741379,,0.006143463300456564,266.912,0.4880000054836273,-2.535999920050096
267.206897,,0.00645069636821624,267.375,0.4779999852180481,-2.557419101700115
267.672414,,0.0017301008558290286,267.845,0.492000013589859,-2.526584998535844
268.137931,,0.006342930529137022,268.311,0.4830000102519989,-2.545904290656748
268.603448,,0.013051028171544953,268.774,0.47200000286102295,-2.569634430112551
269.06896600000005,,0.014725155217766045,269.24,0.4779999852180481,-2.556388846282683
269.53448299999997,,0.011470996098538612,269.705,0.49000000953674316,-2.5301377745094684
270.0,,0.006116812431001903,270.171,0.4830000102519989,-2.5453506183029324
270.465517,,0.0014594423143231105,270.63,0.453000009059906,-2.6107439061798288
270.931034,,0.0011083973747792744,271.096,0.47600001096725464,-2.5607403255914027
271.396552,,0.0012571015796709975,271.564,0.47600001096725464,-2.560913954877002
271.86206899999996,,0.0005378444723544448,272.03,0.48399999737739563,-2.543721044016943
272.327586,,0.002642932767725237,272.494,0.48100000619888306,-2.5505486246953355
272.793103,,0.00291163339395359,272.956,0.49000000953674316,-2.531278946004617
273.258621,,0.0008013958118843913,273.426,0.49000000953674316,-2.5316532623623926
273.724138,,0.0016050692598773416,273.889,0.47600001096725464,-2.5625537043400315
274.18965499999996,,0.001712101342423597,274.353,0.4790000021457672,-2.556430664143108
274.655172,,0.0005660451790895992,274.815,0.4869999885559082,-2.539415502963807
275.12069,,0.0027063418626939086,275.281,0.4830000102519989,-2.548532401324325
275.586207,,0.002465732785305131,275.746,0.46799999475479126,-2.5815909793853833
276.051724,,6.997628732592675e-05,276.211,0.4699999988079071,-2.577578035084135
276.517241,,0.0025876704530765223,276.679,0.47600001096725464,-2.5648056139576667
276.98275900000004,,0.004027563342952036,277.145,0.47999998927116394,-2.5563361530771926
277.448276,,0.003941558319101778,277.609,0.5009999871253967,-2.510766936137288
277.913793,,0.00262676993052313,278.075,0.48899999260902405,-2.53702408362135
278.37931,,0.000641029524333103,278.541,0.4950000047683716,-2.5239927943178224
278.844828,,0.0011832843649734039,279.0,0.4950000047683716,-2.5239592717362545
279.31034500000004,,0.002341739620502212,279.468,0.49300000071525574,-2.528209673308253
279.77586199999996,,0.003231779515575205,279.931,0.4690000116825104,-2.580320560867521
280.241379,,0.00379837382128529,280.401,0.49799999594688416,-2.5168989493940046
280.706897,,0.001434650935749218,280.863,0.47999998927116394,-2.555816562426888
281.172414,,0.00704962656506927,281.329,0.4779999852180481,-2.559827611271579
281.637931,,0.019255177292268843,281.793,0.4779999852180481,-2.5594440017754096
282.10344799999996,,0.026054900832171643,282.259,0.48399999737739563,-2.5459625947176523
282.568966,,0.020893307897957798,282.727,0.4909999966621399,-2.5302886843883527
283.034483,,0.00831987998595003,283.185,0.49900001287460327,-2.512434479410529
283.5,,0.0010418398573099619,283.653,0.5019999742507935,-2.505484436033163
283.965517,,0.002438712708231054,284.118,0.4650000035762787,-2.5857040609717385
284.431034,,0.00014811420541158311,284.586,0.4880000054836273,-2.5352414776570877
284.89655200000004,,0.0002883086645008121,285.052,0.515999972820282,-2.473932566992909
285.362069,,0.0041675414193451795,285.512,0.45899999141693115,-2.5978646226690882
285.827586,,0.008553783840809513,285.975,0.45500001311302185,-2.6063936383000086
286.293103,,0.009985165483904435,286.445,0.49000000953674316,-2.5300271306980644
286.758621,,0.007973651431414146,286.908,0.48899999260902405,-2.532166146331501
287.22413800000004,,0.004893218242127031,287.376,0.48399999737739563,-2.543094648800577
287.689655,,0.0035141155047345237,287.837,0.492000013589859,-2.5257747503955623
288.155172,,0.004606512163494541,288.304,0.47699999809265137,-2.5586348171853173
288.62069,,0.00653361018875937,288.767,0.49000000953674316,-2.5305584440698308
289.086207,,0.006921180308117,289.233,0.49000000953674316,-2.5308627825366585
289.55172400000004,,0.004694953246203806,289.697,0.4779999852180481,-2.5573600665307317
290.01724099999996,,0.0006557509773215377,290.163,0.44200000166893005,-2.63618443130404
290.482759,,0.003346500244825486,290.631,0.4690000116825104,-2.5777826709014175
290.948276,,0.005269698506675665,291.096,0.4860000014305115,-2.5411827079974314
291.413793,,0.0036956458973181664,291.561,0.48899999260902405,-2.53508451931018
291.87931,,0.000547367278093669,292.02,0.492000013589859,-2.528973040977666
292.344828,,0.0036119091617589074,292.49,0.47699999809265137,-2.562051180565257
292.81034500000004,,0.001922665080052576,292.952,0.49900001287460327,-2.514480928834045
293.275862,,0.0025217419309528045,293.42,0.5090000033378601,-2.4930043979024545
293.74137900000005,,0.003197110542610552,293.881,0.503000020980835,-2.506325851478473
294.206897,,0.0012525455342497116,294.35,0.4959999918937683,-2.5217582074943126
294.672414,,0.001745011346271285,294.812,0.5099999904632568,-2.4913655631235576
295.13793100000004,,0.01002201223464098,295.278,0.4790000021457672,-2.5589356832708186
295.603448,,0.02689695497357002,295.746,0.48399999737739563,-2.547997898378891
296.068966,,0.03195512568082055,296.211,0.48500001430511475,-2.5456998546211462
296.534483,,0.019521864828968727,296.676,0.4880000054836273,-2.538973228722922
297.0,,0.0020852138153610597,297.141,0.5109999775886536,-2.4886075837043453
297.46551700000003,,0.005220000226011623,297.6,0.47999998927116394,-2.555830347523347
297.931034,,0.00027799958305701295,298.066,0.4970000088214874,-2.5184294305304302
298.396552,,0.007366827079029501,298.539,0.49399998784065247,-2.5245642249753475
298.862069,,0.008481588537912699,298.997,0.49799999594688416,-2.5154230534709057
299.327586,,0.0022090756811629143,299.46,0.4970000088214874,-2.517162754792048
299.79310300000003,,0.005704174355313588,299.93,0.49399998784065247,-2.523260944295435
300.258621,,0.009888097676200835,300.394,0.47999998927116394,-2.5533391715875395
300.724138,,0.009562100740016552,300.856,0.3930000066757202,-2.742488881984464
301.189655,,0.00720526616289156,301.322,0.48500001430511475,-2.5417043004503634
301.65517200000005,,0.0055224376999735494,301.785,0.49000000953674316,-2.530514748428466
302.12069,,0.006254607249389723,302.25,0.44999998807907104,-2.6174246644141093
302.586207,,0.00981046519242151,302.716,0.49000000953674316,-2.53011040911798
303.05172400000004,,0.014349129309724377,303.182,0.48500001430511475,-2.540907500652339
303.517241,,0.016302277721022718,303.649,0.4440000057220459,-2.6302109717420907
303.982759,,0.013807212843109436,304.115,0.47999998927116394,-2.5518347811464883
304.448276,,0.009599260409422104,304.579,0.4860000014305115,-2.5388916556356937
304.913793,,0.008678305167738955,305.045,0.49000000953674316,-2.5303743011282114
305.37931000000003,,0.012355811950211936,305.505,0.47999998927116394,-2.5524202218105527
305.844828,,0.016197022169111834,305.975,0.4880000054836273,-2.5353045401398107
306.310345,,0.015365629072289997,306.438,0.4819999933242798,-2.548734462540661
306.775862,,0.010732288344185034,306.9,0.47999998927116394,-2.5534833243700814
307.241379,,0.006980462364577174,307.368,0.49000000953674316,-2.5321099167803287
307.70689699999997,,0.004813304557867155,307.831,0.4749999940395355,-2.5652117541252446
308.172414,,0.00075554029476555,308.296,0.48399999737739563,-2.546022310888619
308.637931,,0.011683494190741259,308.76,0.4970000088214874,-2.518101656383207
309.103448,,0.02065599059419664,309.226,0.5400000214576721,-2.424791389011045
309.568966,,0.019001026310655863,309.697,0.49399998784065247,-2.525338811097023
310.034483,,0.008481872004928635,310.155,0.48899999260902405,-2.5365106716956793
310.5,,0.0004423268752328181,310.62,0.4650000035762787,-2.5890194353232143
310.96551700000003,,0.0009006016522785945,311.086,0.47600001096725464,-2.565212557206252
311.431034,,0.004272848871024007,311.553,0.49799999594688416,-2.5173728874541723
311.896552,,0.007675169605866682,312.019,0.4880000054836273,-2.5391790363845126
312.362069,,0.00502123105518993,312.487,0.4749999940395355,-2.567450260089569
312.827586,,0.002081829702499543,312.949,0.47600001096725464,-2.565151973938952
313.29310300000003,,0.008514373302274001,313.412,0.49399998784065247,-2.525752175190949
313.758621,,0.009964804042760298,313.875,0.4659999907016754,-2.586511279227588
314.224138,,0.0059633026555223345,314.345,0.47600001096725464,-2.5644308409426384
314.689655,,0.00011173991268757213,314.808,0.492000013589859,-2.5292365721350074
315.155172,,0.0037057115462887894,315.274,0.4880000054836273,-2.5375828306258885
315.62068999999997,,0.0025414426404602366,315.739,0.4779999852180481,-2.5589796947703594
316.086207,,0.0015665094679084175,316.205,0.47699999809265137,-2.5607595088753095
316.551724,,0.004192453279628026,316.672,0.49399998784065247,-2.523326382656527
317.017241,,0.002226054379325556,317.13,0.5839999914169312,-2.3268640159647895
317.482759,,0.003228125315329889,317.597,0.47999998927116394,-2.553081494538283
317.94827599999996,,0.007951573003547183,318.063,0.4860000014305115,-2.539682340798631
318.413793,,0.008779132882942717,318.535,0.4790000021457672,-2.5546521223363188
318.87931000000003,,0.0065434507394699646,318.994,0.4880000054836273,-2.5348183282104655
319.344828,,0.0045678799417539434,319.456,0.49000000953674316,-2.5302963277761044
319.810345,,0.004417511711021782,319.926,0.4830000102519989,-2.5454481186357927
320.275862,,0.004297331216197362,320.39,0.49000000953674316,-2.530167654010365
320.741379,,0.002748180536325184,320.852,0.48899999260902405,-2.5323858443335805
321.20689699999997,,0.0027854391431997787,321.318,0.39899998903274536,-2.7285734067556358
321.672414,,0.009015545087348129,321.78,0.4950000047683716,-2.5195998340733103
322.137931,,0.019481570424957285,322.246,0.49399998784065247,-2.5220154222173035
322.603448,,0.02458905083447521,322.712,0.47699999809265137,-2.5593405151057493
323.068966,,0.01794508619335795,323.177,0.5049999952316284,-2.4986687173664888
323.53448299999997,,0.004878753117587499,323.642,0.503000020980835,-2.5033876963064836
324.0,,0.004142077871555011,324.108,0.515999972820282,-2.4754466499692076
324.465517,,0.005303430156232063,324.575,0.49000000953674316,-2.53248071742565
324.931034,,0.002527076366429076,325.041,0.4819999933242798,-2.550296317092315
325.396552,,0.00030564303320131266,325.501,0.47200000286102295,-2.5724556403358547
325.86206899999996,,8.804458824918657e-05,325.971,0.49799999594688416,-2.5161590017349735
326.327586,,0.0016449353765952772,326.434,0.4860000014305115,-2.542615456985044
326.793103,,0.003868622285967959,326.897,0.4880000054836273,-2.538525955601152
327.258621,,0.00473679146558367,327.36,0.5080000162124634,-2.495167810895545
327.724138,,0.003313375035196289,327.83,0.5009999871253967,-2.5105734792677232
328.189655,,0.0018632039427320458,328.296,0.47600001096725464,-2.565130920368198
328.655172,,0.0038597281557237527,328.759,0.4959999918937683,-2.5215837392014575
329.12068999999997,,0.009294193029989904,329.225,0.4779999852180481,-2.560759342435011
329.586207,,0.013614221556750664,329.69,0.4819999933242798,-2.551940552755382
330.051724,,0.012492706308556716,330.155,0.503000020980835,-2.506023861622825
330.517241,,0.006705567347653869,330.62,0.503000020980835,-2.505802446797219
330.982759,,0.0011510670662219624,331.086,0.47999998927116394,-2.5556406002504324
331.44827599999996,,0.00024916648382989335,331.546,0.47699999809265137,-2.5618655742372805
331.913793,,0.00231826453458493,332.011,0.492000013589859,-2.528844564284668
332.37931,,0.005542164523431479,332.475,0.5070000290870667,-2.4958028897100832
332.844828,,0.00583747940256713,332.945,0.4909999966621399,-2.5302892126679284
333.310345,,0.002339244297164488,333.405,0.47699999809265137,-2.5604197515805347
333.77586199999996,,0.0013598051598740055,333.874,0.4959999918937683,-2.518668076856897
334.241379,,0.0001532167348240955,334.342,0.5009999871253967,-2.5074408164638005
334.706897,,0.00520045235336636,334.804,0.4860000014305115,-2.539819489347929
335.17241399999995,,0.006058421167393957,335.27,0.49799999594688416,-2.513416802018114
335.637931,,0.003608258598885769,335.73,0.4959999918937683,-2.517564783957011
336.103448,,0.016724980347527882,336.196,0.492000013589859,-2.5261255844765786
336.56896600000005,,0.020357530957213207,336.661,0.49399998784065247,-2.521674695761402
337.034483,,0.012446484583816907,337.126,0.48100000619888306,-2.5499663490767404
337.5,,0.003575791414681671,337.593,0.49000000953674316,-2.530391579028702
337.965517,,0.0023887729534996707,338.059,0.4909999966621399,-2.5283084670467324
338.431034,,0.006397456129331831,338.527,0.4880000054836273,-2.534999018274155
338.89655200000004,,0.007881235108818156,338.99,0.47200000286102295,-2.5700666070469915
339.36206899999996,,0.0034603094969961725,339.453,0.47600001096725464,-2.5616097722661717
339.827586,,0.003881880027801672,339.915,0.48500001430511475,-2.5423002386696423
340.293103,,0.00944314148256194,340.383,0.4749999940395355,-2.564416164148352
340.758621,,0.01143161608055377,340.846,0.4869999885559082,-2.5386226740287996
341.224138,,0.011418938911943052,341.312,0.47600001096725464,-2.5629481471025928
341.68965499999996,,0.011625458464069137,341.782,0.4729999899864197,-2.569843836647585
342.155172,,0.01271572415317081,342.24,0.49799999594688416,-2.515725493518655
342.62069,,0.01390818283256878,342.712,0.48899999260902405,-2.5356581778009635
343.086207,,0.014123699464729047,343.17,0.49000000953674316,-2.5337713089444955
343.551724,,0.012652804567043544,343.635,0.47600001096725464,-2.5645228537863116
344.01724099999996,,0.009431314600847484,344.101,0.5009999871253967,-2.5102583825152736
344.48275900000004,,0.0054632511398592255,344.567,0.47600001096725464,-2.5648714051821275
344.948276,,0.002870969070217439,345.033,0.492000013589859,-2.5301009575006006
345.413793,,0.0034380089096084717,345.495,0.3869999945163727,-2.7588876579275956
345.87931,,0.0061869610977674586,345.965,0.503000020980835,-2.5061341558283488
346.344828,,0.007198523827410752,346.427,0.4819999933242798,-2.551796189101953
346.81034500000004,,0.0036696701153800947,346.89,0.5120000243186951,-2.486288359327231
347.275862,,0.001893259254762689,347.36,0.49000000953674316,-2.5340160932066333
347.741379,,0.0041365256785887905,347.822,0.4950000047683716,-2.5228724680348487
348.206897,,0.0027079135348477518,348.288,0.48100000619888306,-2.553083631481173
348.672414,,0.004187876616954908,348.753,0.4779999852180481,-2.5592996403039168
349.13793100000004,,0.012608798587786497,349.218,0.4779999852180481,-2.5589598426741915
349.60344799999996,,0.02137642862137074,349.683,0.49900001287460327,-2.512858639936649
350.068966,,0.020526407800087253,350.149,0.48899999260902405,-2.534296060360682
350.534483,,0.010038430099476227,350.615,0.527999997138977,-2.4489899321746798
351.0,,0.00024225567558270927,351.081,0.49000000953674316,-2.5314598997514053
351.465517,,0.002795058899187041,351.546,0.46000000834465027,-2.5965318457062248
351.93103399999995,,0.0006941743921798154,352.011,0.48500001430511475,-2.541819376800098
352.396552,,0.0037933237360828305,352.475,0.5109999775886536,-2.484976288462494
352.862069,,0.0024288806211126787,352.937,0.48399999737739563,-2.5436544825751692
353.32758600000005,,0.0025239645024250166,353.405,0.4909999966621399,-2.528316408090184
353.793103,,0.007063923597565395,353.867,0.47999998927116394,-2.5522548426504192
354.258621,,0.007711652540039215,354.333,0.4959999918937683,-2.5174312377217465
354.72413800000004,,0.004253841263311338,354.798,0.503000020980835,-2.5022752343514836
355.189655,,0.000510437802085311,355.263,0.4650000035762787,-2.585215514923838
355.655172,,0.003393440807143742,355.73,0.47999998927116394,-2.5527406156549683
356.12069,,0.0030752281666194263,356.196,0.4729999899864197,-2.5682430930368585
356.586207,,0.0005692710764242618,356.66,0.4909999966621399,-2.529318237559314
357.05172400000004,,0.0015234077897911937,357.126,0.47600001096725464,-2.562318375261955
357.517241,,0.0007034384362742611,357.586,0.4749999940395355,-2.564837347865818
357.982759,,0.002923851208330496,358.052,0.48399999737739563,-2.545579207128154
358.448276,,0.005814119743088359,358.515,0.47999998927116394,-2.5546418386355536
358.913793,,0.004558658511268734,358.985,0.4909999966621399,-2.53101196879876
359.37931000000003,,0.0008605464466372954,359.445,0.48399999737739563,-2.5465744634971523
359.844828,,0.0005639686385647284,359.915,0.5,-2.5119947860211775
360.310345,,0.005948616789546431,360.375,0.49300000071525574,-2.527481875880899
360.775862,,0.0113246410827068,360.845,0.49799999594688416,-2.5167756332057136
361.241379,,0.010013779747236912,361.311,0.5019999742507935,-2.508192713192242
361.706897,,0.004920959907555373,361.773,0.47699999809265137,-2.5627314575839404
362.172414,,0.006690522860977806,362.239,0.4830000102519989,-2.549671715791041
362.63793100000004,,0.01897054178546783,362.705,0.48500001430511475,-2.5452662121939786
363.103448,,0.03114917902874356,363.171,0.4880000054836273,-2.5386231308868457
363.568966,,0.03109358986416113,363.63,0.5009999871253967,-2.5101377089466426
364.034483,,0.020592222134027376,364.096,0.4880000054836273,-2.538246127106837
364.5,,0.01153716597044666,364.56,0.48399999737739563,-2.54670290450073
364.96551700000003,,0.010185436439276585,365.026,0.49900001287460327,-2.513729685734995
365.431034,,0.011984453275464244,365.494,0.48100000619888306,-2.552625399256883
365.896552,,0.010157760357403465,365.956,0.46000000834465027,-2.5980413042350445
366.362069,,0.003492007351671814,366.427,0.4880000054836273,-2.536698729767555
366.827586,,0.004726114547491574,366.889,0.47600001096725464,-2.5625075425607524
367.29310300000003,,0.01188802812376606,367.353,0.3889999985694885,-2.7517323925776522
367.758621,,0.01841304385092065,367.815,0.4830000102519989,-2.546650387973445
368.224138,,0.02547886746468436,368.281,0.5009999871253967,-2.507180948604972
368.689655,,0.03166469288708559,368.746,0.4779999852180481,-2.557076734277806
369.155172,,0.03333315464767463,369.212,0.4959999918937683,-2.5176949667493016
369.62068999999997,,0.02896629528308988,369.679,0.5009999871253967,-2.5066872098611355
370.086207,,0.021998784119051224,370.144,0.4779999852180481,-2.5567363091597515
370.55172400000004,,0.017844247855024625,370.609,0.47600001096725464,-2.5610907807377092
371.017241,,0.018172027497303893,371.075,0.49799999594688416,-2.513214760274675
371.482759,,0.019563336182744685,371.542,0.48100000619888306,-2.5503606475145055
371.948276,,0.018420146573667567,372.0,0.4880000054836273,-2.535270180608192
372.413793,,0.015605421435222108,372.468,0.49000000953674316,-2.531119108416058
372.87931000000003,,0.014467646294417762,372.93,0.49900001287460327,-2.5117568431928623
373.344828,,0.015457360508292831,373.401,0.49000000953674316,-2.531641838650317
373.810345,,0.015762547940571286,373.864,0.47600001096725464,-2.562443570835839
374.275862,,0.014324311223479099,374.329,0.4860000014305115,-2.5409725925569133
374.741379,,0.013097588654038799,374.793,0.4830000102519989,-2.547829227302185
375.20689699999997,,0.011281254042762711,375.259,0.49000000953674316,-2.532894692145372
375.672414,,0.0031939850116135095,375.726,0.48500001430511475,-2.544089597814894
376.137931,,0.012773446560986283,376.185,0.47999998927116394,-2.5552613235235304
376.603448,,0.026973483539774586,376.652,0.4880000054836273,-2.5380790831516173
377.068966,,0.027915566739959412,377.118,0.49900001287460327,-2.514321720749295
377.53448299999997,,0.01703931511918706,377.583,0.4860000014305115,-2.5428063410589963
378.0,,0.006898383270569786,378.048,0.4880000054836273,-2.538561079251129
378.465517,,0.005924471362646123,378.516,0.4729999899864197,-2.571300061471755
378.931034,,0.011145811947954337,378.978,0.4880000054836273,-2.538625333110725
379.396552,,0.014867474466236893,379.445,0.4950000047683716,-2.5233253115976413
379.862069,,0.013239528033034475,379.908,0.4950000047683716,-2.523222467358339
380.327586,,0.008013367286076396,380.371,0.492000013589859,-2.52960542752101
380.79310300000003,,0.003248661166607144,380.835,0.48100000619888306,-2.5533726431739554
381.258621,,0.001658989695062666,381.3,0.492000013589859,-2.5291710093420576
381.724138,,0.003242155133608271,381.766,0.4790000021457672,-2.5572258167666657
382.189655,,0.006205063359463583,382.232,0.5059999823570251,-2.498111491265978
382.655172,,0.00849005348074462,382.697,0.4860000014305115,-2.541378915380332
383.12068999999997,,0.008803667806886337,383.163,0.49000000953674316,-2.532353584834047
383.586207,,0.00735355821802217,383.628,0.4950000047683716,-2.521154010040844
384.051724,,0.005925949420113333,384.093,0.5,-2.5099677346978604
384.517241,,0.0062115666994993915,384.56,0.47600001096725464,-2.5619845714858984
384.982759,,0.00738239678786088,385.026,0.5099999904632568,-2.4876704559905267
385.44827599999996,,0.0064297732766036625,385.486,0.48399999737739563,-2.5441127251374076
385.913793,,0.0022616233055059486,385.956,0.49300000071525574,-2.524345975176838
386.37931,,0.0015776579635768668,386.419,0.49000000953674316,-2.5307716019456223
386.84482799999995,,0.0007009508377740887,386.882,0.45899999141693115,-2.59825178903518
387.310345,,0.0037763277486214664,387.35,0.4860000014305115,-2.539424875771751
387.775862,,0.005410952951868113,387.813,0.4830000102519989,-2.5460115674961368
388.241379,,9.93683183668425e-05,388.279,0.4860000014305115,-2.539578290875053
388.70689699999997,,0.007703193850010969,388.746,0.5009999871253967,-2.5070494180488585
389.172414,,0.00833550472997918,389.211,0.49000000953674316,-2.531208297119505
389.637931,,0.0018523767645086836,389.672,0.49000000953674316,-2.5314390731452643
390.103448,,0.01402555115743974,390.137,0.4790000021457672,-2.5556652259006762
390.56896600000005,,0.015652873505887142,390.604,0.48100000619888306,-2.5515914342389645
391.03448299999997,,0.005172008721963989,391.07,0.47999998927116394,-2.5540675705065943
391.5,,0.006932925145377982,391.531,0.49000000953674316,-2.532583092686983
391.965517,,0.011080621252602358,392.001,0.4690000116825104,-2.5786321746671095
392.431034,,0.0077538122570438815,392.464,0.47600001096725464,-2.563665860785823
392.896552,,0.004032367334944499,392.926,0.49799999594688416,-2.5159976698649276
393.36206899999996,,0.005031562650875772,393.39,0.49300000071525574,-2.527121969504926
393.827586,,0.00945966729720511,393.86,0.5230000019073486,-2.4619547990242916
394.293103,,0.011806405149423322,394.326,0.4860000014305115,-2.542712316080619
394.75862099999995,,0.008362495199417124,394.789,0.47600001096725464,-2.56459819040467
395.224138,,0.0012672560527856951,395.255,0.4909999966621399,-2.531967797743638
395.68965499999996,,0.003676845386096387,395.719,0.4950000047683716,-2.5232507155275794
396.155172,,0.0030759681713641612,396.185,0.4950000047683716,-2.5231963798658215
396.62069,,0.0009553946476030487,396.649,0.49000000953674316,-2.53398537121697
397.086207,,0.003946054925841741,397.115,0.48100000619888306,-2.5534428917634586
397.551724,,0.004097564904794742,397.579,0.4959999918937683,-2.5205717795463447
398.017241,,0.002975951871951167,398.044,0.4779999852180481,-2.559561032323052
398.48275900000004,,0.002301375700952321,398.505,0.503000020980835,-2.504840281887048
398.94827599999996,,0.002257434635760364,398.974,0.47999998927116394,-2.554674622168586
399.413793,,0.0025702214084364606,399.435,0.4950000047683716,-2.521708602540359
399.87931,,0.0028295984154550614,399.904,0.48100000619888306,-2.5519208168858434
400.344828,,0.0017698816422597355,400.368,0.503000020980835,-2.503707697289611
400.810345,,0.0011822703331964913,400.83,0.4950000047683716,-2.520868407853612
401.27586199999996,,0.00333018242383498,401.296,0.4830000102519989,-2.5467662235603985
401.741379,,0.0009203982231940878,401.76,0.4819999933242798,-2.548729550968716
402.206897,,0.004309487119185941,402.225,0.48899999260902405,-2.5333008315934618
402.672414,,0.004424708073548422,402.692,0.4970000088214874,-2.51573547744136
403.137931,,0.004546454677844529,403.157,0.4090000092983246,-2.7073676898873495
403.60344799999996,,0.014601722241111809,403.626,0.4860000014305115,-2.539574134761196
404.068966,,0.014295737498825303,404.085,0.4909999966621399,-2.5286940935427147
404.534483,,0.003681820999656653,404.557,0.4909999966621399,-2.528755596761806
405.0,,0.006149613889447,405.015,0.4860000014305115,-2.5397563325806973
405.465517,,0.007571557596033303,405.486,0.48500001430511475,-2.542084960993982
405.931034,,0.003910191992282012,405.948,0.49000000953674316,-2.5313793122718824
406.39655200000004,,0.0021365843767204794,406.412,0.48500001430511475,-2.542491566821086
406.862069,,0.003216943373696585,406.875,0.48399999737739563,-2.544913833135848
407.327586,,0.002252116968042127,407.345,0.4699999988079071,-2.5756757771044376
407.793103,,0.0033276515419323922,407.808,0.47999998927116394,-2.5541596437809484
408.258621,,0.00897539007699104,408.274,0.4880000054836273,-2.537001577848985
408.72413800000004,,0.008556881258270541,408.738,0.5040000081062317,-2.5024060282802325
409.18965499999996,,0.0026629802048147304,409.204,0.4860000014305115,-2.5418678209024868
409.655172,,0.0021159827875400156,409.671,0.5019999742507935,-2.5072314923755266
410.12069,,0.0014388648323728573,410.137,0.47999998927116394,-2.555353213108287
410.586207,,0.002695908848419879,410.601,0.48899999260902405,-2.535901082872643
411.05172400000004,,0.0061567451380258684,411.06,0.47999998927116394,-2.5556247239548253
411.51724099999996,,0.007836510445669244,411.53,0.4970000088214874,-2.5186601969038485
411.982759,,0.008933208747520882,411.993,0.47999998927116394,-2.5557246386428973
412.448276,,0.008797987604346929,412.46,0.4819999933242798,-2.551349386989404
412.913793,,0.004754905715772567,412.923,0.48399999737739563,-2.5469300272518405
413.37931,,0.0026258488840584233,413.386,0.49399998784065247,-2.5250394224533426
413.844828,,0.006790349584977517,413.856,0.4909999966621399,-2.5314323747049587
414.31034500000004,,0.002104712932197223,414.321,0.4779999852180481,-2.5595779459296715
414.775862,,0.005955369106149199,414.784,0.4819999933242798,-2.5506587419886544
415.241379,,0.0031147532813199396,415.25,0.4830000102519989,-2.548254384673436
415.706897,,0.0155059596615687,415.716,0.39100000262260437,-2.7484520904389846
416.172414,,0.033450158250343386,416.175,0.47999998927116394,-2.5543110367207964
416.63793100000004,,0.029811702024332483,416.642,0.49000000953674316,-2.532285420466984
417.103448,,0.007498859604604327,417.108,0.4909999966621399,-2.529874964886825
417.568966,,0.008822929553731734,417.575,0.49799999594688416,-2.514406275090009
418.034483,,0.004869401358910001,418.041,0.48399999737739563,-2.5447092249899574
418.5,,0.00781433341545679,418.501,0.5019999742507935,-2.5053212228223
418.96551700000003,,0.01215794340659482,418.971,0.47600001096725464,-2.5618244007472004
419.43103399999995,,0.007479237606795914,419.431,0.503000020980835,-2.5028940541359703
419.896552,,0.004620833425897396,419.9,0.4860000014305115,-2.5398618484405584
420.362069,,0.008188172892088605,420.361,0.4779999852180481,-2.5572613421688817
420.827586,,0.011801903905042686,420.83,0.4860000014305115,-2.5398429655186505
421.293103,,0.00907851283052494,421.296,0.4860000014305115,-2.539893605553614
421.758621,,0.0026669043918879677,421.76,0.49000000953674316,-2.5312673585457106
422.22413800000004,,0.0005160237243576372,422.225,0.4959999918937683,-2.5183183935237863
422.689655,,0.0009611039650294588,422.69,0.4699999988079071,-2.575116926437378
423.15517200000005,,0.002705827976990101,423.156,0.47999998927116394,-2.553510756125435
423.62069,,0.001901364169540355,423.615,0.48100000619888306,-2.551533515358103
424.086207,,5.6814344273036e-05,424.081,0.4860000014305115,-2.540856367195266
424.55172400000004,,0.0015076300543183027,424.546,0.4860000014305115,-2.5410803140906673
425.017241,,0.004434315166563644,425.012,0.48100000619888306,-2.552198597571122
425.482759,,0.009469086041231341,425.475,0.492000013589859,-2.528452834371734
425.948276,,0.012776296411733886,425.945,0.48100000619888306,-2.55262511178664
426.413793,,0.01019147596466301,426.405,0.49000000953674316,-2.5332060588226533
426.87931000000003,,0.004499512262531249,426.874,0.4880000054836273,-2.5377282643446213
427.344828,,0.003567400474180398,427.342,0.48100000619888306,-2.553115125199601
427.810345,,0.009712997724958065,427.804,0.49000000953674316,-2.5336113211268625
428.275862,,0.015183408045369284,428.27,0.492000013589859,-2.5293227200385995
428.741379,,0.011219738478366744,428.735,0.503000020980835,-2.5053887399804853
429.20689699999997,,1.4168176110217071e-05,429.2,0.49000000953674316,-2.5337040628643464
429.672414,,0.0057130040093823385,429.66,0.47699999809265137,-2.561982175779035
430.137931,,0.002918042993997504,430.125,0.5009999871253967,-2.509615035993414
430.603448,,0.018133776511539374,430.59,0.49000000953674316,-2.533467602866067
431.068966,,0.023734951123426207,431.056,0.47600001096725464,-2.563827143875989
431.534483,,0.015259234213497928,431.523,0.48399999737739563,-2.546232526739394
432.0,,0.0042520807504390174,431.986,0.48100000619888306,-2.5525842996173673
432.46551700000003,,0.00168318077767726,432.453,0.47200000286102295,-2.5719950973794847
432.931034,,0.005052029841771274,432.916,0.492000013589859,-2.528218139763306
433.396552,,0.004695643790401318,433.386,0.4790000021457672,-2.556335528252652
433.862069,,0.002157132179668412,433.849,0.47999998927116394,-2.553956864048004
434.327586,,0.007858736181962067,434.314,0.49900001287460327,-2.5123731630470973
434.79310300000003,,0.004650113570306207,434.777,0.5009999871253967,-2.5078420320987673
435.258621,,0.0049245686224722,435.242,0.492000013589859,-2.527296060921361
435.724138,,0.011088339797785307,435.708,0.4860000014305115,-2.5402391172710836
436.189655,,0.008532018766872667,436.174,0.48899999260902405,-2.5336031334329876
436.655172,,0.000947531113795732,436.641,0.503000020980835,-2.5030331752422903
437.12068999999997,,0.005203916323228182,437.1,0.5389999747276306,-2.424564854950913
437.586207,,0.00734216138127649,437.571,0.49399998784065247,-2.522598840839782
438.051724,,0.006896393867259359,438.03,0.4880000054836273,-2.535698438758107
438.517241,,0.0057695991395847164,438.498,0.492000013589859,-2.527044532620351
438.982759,,0.004475393019462894,438.961,0.5,-2.509706928551081
439.448276,,0.003383582645948001,439.43,0.49900001287460327,-2.512004784031151
439.913793,,0.0039461451085485676,439.893,0.48500001430511475,-2.5426493188523076
440.37931000000003,,0.006847967997726382,440.356,0.48899999260902405,-2.534098603799332
440.844828,,0.009590765222573011,440.827,0.4880000054836273,-2.536456696011133
441.310345,,0.008787037305646958,441.285,0.4909999966621399,-2.530110452888477
441.775862,,0.005710496603813068,441.75,0.4909999966621399,-2.5303046454082394
442.241379,,0.00601524768027133,442.215,0.4779999852180481,-2.5588202688187387
442.70689699999997,,0.010672384125147653,442.682,0.49000000953674316,-2.5328631258334187
443.172414,,0.010919070732541915,443.148,0.48100000619888306,-2.552645691897351
443.637931,,0.0008327034071853529,443.613,0.4729999899864197,-2.5702327794730633
444.103448,,0.017279149476556913,444.079,0.48899999260902405,-2.5355109132602625
444.568966,,0.022926467459051417,444.545,0.4819999933242798,-2.5508723114731593
445.03448299999997,,0.014210340483665079,445.011,0.4909999966621399,-2.5313461697237094
445.5,,0.003231614081368841,445.471,0.48100000619888306,-2.553182779446362
445.965517,,0.0009471803560390612,445.941,0.45899999141693115,-2.6011308076951574
446.431034,,0.005242383197847213,446.404,0.49000000953674316,-2.533577828848031
446.896552,,0.007018883138447948,446.867,0.48399999737739563,-2.546602178945756
447.36206899999996,,0.0020250125121445456,447.334,0.4880000054836273,-2.537808164194247
447.827586,,0.005660155397407957,447.799,0.49000000953674316,-2.533341859273138
448.29310300000003,,0.009562136605383895,448.264,0.5139999985694885,-2.480918299374117
448.758621,,0.008060526559870685,448.731,0.4909999966621399,-2.5308677433857962
449.224138,,0.00491460988422008,449.197,0.46700000762939453,-2.5829779332142255
449.689655,,0.003783202400851459,449.656,0.4729999899864197,-2.569717348251416
450.155172,,0.004787525439323919,450.122,0.49900001287460327,-2.512877686252437
450.62068999999997,,0.006455936170241105,450.59,0.47699999809265137,-2.5606123741888434
451.086207,,0.008074994086740742,451.056,0.48100000619888306,-2.551707309727707
451.551724,,0.008910295781559888,451.516,0.48899999260902405,-2.534098641598079
452.017241,,0.007231676471428855,451.986,0.5210000276565552,-2.4642175888203366
452.482759,,0.0022942605348103356,452.449,0.45899999141693115,-2.599149734353734
452.94827599999996,,0.002961263900774287,452.911,0.49000000953674316,-2.531492869623706
453.413793,,0.00339726769122854,453.375,0.4869999885559082,-2.5379392801254013
453.87931,,0.002218686981172822,453.845,0.4779999852180481,-2.557489064669385
454.344828,,0.007515965093792882,454.31,0.49000000953674316,-2.5313206028125568
454.810345,,0.004543325911903845,454.773,0.4970000088214874,-2.516079242309663
455.27586199999996,,0.004652547665753795,455.239,0.48899999260902405,-2.5335508835786347
455.741379,,0.006715030529006576,455.704,0.4959999918937683,-2.518374811501039
456.206897,,0.006387779756313069,456.17,0.47699999809265137,-2.559873757827276
456.672414,,0.022050050147371065,456.635,0.4519999921321869,-2.614472781730735
457.137931,,0.01956058109535714,457.101,0.4830000102519989,-2.5470923487361707
457.603448,,0.001247924333404593,457.56,0.492000013589859,-2.5276616170749753
458.06896600000005,,0.017963601495991757,458.026,0.48399999737739563,-2.5452812719341398
458.53448299999997,,0.015691742370793443,458.493,0.49399998784065247,-2.5236927631135497
459.0,,0.004303836875299654,458.956,0.4909999966621399,-2.5304280853889383
459.465517,,0.0002878125418088257,459.423,0.4959999918937683,-2.5197295318428425
459.931034,,0.0046017197822174815,459.886,0.4860000014305115,-2.541700207946841
460.39655200000004,,0.00624643983313251,460.357,0.47200000286102295,-2.57237006235233
460.86206899999996,,0.00030954544581255706,460.819,0.4950000047683716,-2.5224096916908407
461.327586,,0.0058192793974069035,461.285,0.4819999933242798,-2.5508557076734704
461.793103,,0.00376267287709076,461.75,0.5049999952316284,-2.5008412179602284
462.258621,,0.004322451066300399,462.215,0.47999998927116394,-2.5553698161878007
462.724138,,0.00942047590405199,462.675,0.49000000953674316,-2.5336119900776213
463.18965499999996,,0.007504431978803301,463.141,0.4909999966621399,-2.5314276494050443
463.655172,,0.0025215453381749564,463.608,0.4880000054836273,-2.5379234289512715
464.12069,,0.00072073313335309,464.074,0.492000013589859,-2.529135456947286
464.58620699999994,,0.0015776078476369435,464.538,0.4000000059604645,-2.7294684588509814
465.051724,,0.0016535402543046763,465.004,0.4819999933242798,-2.550691975144
465.517241,,0.0015009743989619806,465.471,0.48399999737739563,-2.5461851467631056
465.98275900000004,,0.0005256918316716865,465.935,0.4880000054836273,-2.5373013576669137
466.448276,,0.0008113137698497245,466.397,0.46399998664855957,-2.5894052772635856
466.913793,,0.00023566293735883796,466.867,0.503000020980835,-2.504245044483334
467.37931,,0.00340266392550571,467.325,0.47699999809265137,-2.5606930603361233
467.844828,,0.006923337226562289,467.796,0.492000013589859,-2.5278179907755485
468.31034500000004,,0.005566783099424736,468.261,0.48100000619888306,-2.5515953162390748
468.77586199999996,,0.00032551526802197524,468.723,0.4790000021457672,-2.555777953637499
469.241379,,0.0011476523932317498,469.188,0.4950000047683716,-2.5207632029569806
469.706897,,0.00475811396177552,469.654,0.4950000047683716,-2.5206292563441384
470.172414,,0.009135792154283997,470.119,0.4909999966621399,-2.529236152221387
470.63793100000004,,0.0007195114058438279,470.586,0.5009999871253967,-2.5073714694762894
471.10344799999996,,0.016417066515235102,471.052,0.460999995470047,-2.594471657849064
471.568966,,0.025444066106074564,471.512,0.48399999737739563,-2.544351845320576
472.034483,,0.018258601616405603,471.982,0.48500001430511475,-2.542197565389753
472.5,,0.004402469947280159,472.442,0.4959999918937683,-2.5182909642255455
472.965517,,0.003410652159543174,472.912,0.48399999737739563,-2.5445255889022698
473.43103399999995,,0.0038398315188956484,473.375,0.48500001430511475,-2.5424678506344143
473.89655200000004,,0.0038192505077930955,473.838,0.49000000953674316,-2.531722385192405
474.362069,,0.006640293124226263,474.304,0.48100000619888306,-2.551500608649864
474.827586,,0.007940757133353037,474.767,0.4860000014305115,-2.5407956251001216
475.293103,,0.003367831335180008,475.233,0.46799999475479126,-2.5802123408238606
475.758621,,0.003772585099088691,475.698,0.48399999737739563,-2.545562146738742
476.22413800000004,,0.0062826042497477206,476.164,0.4860000014305115,-2.5414137958790555
476.689655,,0.002399889728862178,476.631,0.5120000243186951,-2.484971519272056
477.155172,,0.003326755434654313,477.096,0.4959999918937683,-2.520019580300657
477.62069,,0.007093558309428304,477.561,0.48100000619888306,-2.55287057764106
478.086207,,0.008976310003717385,478.027,0.49000000953674316,-2.533411271351204
478.55172400000004,,0.009587343569414116,478.489,0.46399998664855957,-2.5901779464353876
479.01724099999996,,0.007938024969089075,478.951,0.48100000619888306,-2.553232565071427
479.482759,,0.0038814449205888594,479.42,0.503000020980835,-2.5053604436458
479.948276,,0.00045935829763737,479.882,0.4959999918937683,-2.5206327964660185
480.413793,,0.0015121103286986797,480.35,0.4860000014305115,-2.542403748476069
480.87931000000003,,0.0063902757721382795,480.812,0.5429999828338623,-2.4181677021973367
481.344828,,0.008772345591584865,481.278,0.492000013589859,-2.529188528560802
481.810345,,0.003463027546737847,481.742,0.4880000054836273,-2.537779284944493
482.275862,,0.005515187329985905,482.208,0.4819999933242798,-2.5506985461690412
482.74137900000005,,0.0075600167904436725,482.675,0.4880000054836273,-2.5374498363797304
483.206897,,0.0005403314998254349,483.14,0.48899999260902405,-2.535075378039394
483.672414,,0.007066135287700179,483.605,0.46399998664855957,-2.5893328353924914
484.13793100000004,,0.0010237818155482347,484.071,0.4830000102519989,-2.5477234394758894
484.603448,,0.01888289412141599,484.539,0.5009999871253967,-2.5082923308152396
485.068966,,0.028143373709943485,484.997,0.47699999809265137,-2.5603697287407665
485.534483,,0.020692151187635472,485.46,0.5139999985694885,-2.479560949694973
486.0,,0.007487765792291987,485.93,0.5009999871253967,-2.507701284685699
486.46551700000003,,0.0019976029695869366,486.39,0.49900001287460327,-2.5118983256181355
486.931034,,0.004315111528460341,486.859,0.49000000953674316,-2.5313732621981004
487.396552,,0.005157320218197301,487.325,0.4350000023841858,-2.6510988583819883
487.862069,,0.00020105529928768974,487.788,0.5009999871253967,-2.507244803547946
488.327586,,0.006488019327117651,488.254,0.4880000054836273,-2.535541632502894
488.79310300000003,,0.00616732910997544,488.719,0.5009999871253967,-2.5072311803181813
489.258621,,0.0007436698383121306,489.184,0.49000000953674316,-2.531245444296592
489.724138,,0.007107978100008046,489.65,0.49000000953674316,-2.5313306567078966
490.189655,,0.007225624694489989,490.115,0.4819999933242798,-2.548879078718044
490.655172,,0.001672666265700716,490.575,0.47600001096725464,-2.562101084893224
491.12069,,0.005355714672530831,491.041,0.47699999809265137,-2.560099543525763
491.586207,,0.010195750486277275,491.508,0.49000000953674316,-2.531975700866639
492.05172400000004,,0.01113385099747586,491.971,0.4880000054836273,-2.536546810101094
492.517241,,0.007870462693546612,492.438,0.4230000078678131,-2.678382660515048
492.982759,,0.0012316351031622609,492.901,0.4790000021457672,-2.5566065225677774
493.448276,,0.005727286054376602,493.371,0.4970000088214874,-2.5176154167667173
493.913793,,0.007706980501303136,493.834,0.4830000102519989,-2.5483291325690547
494.37931000000003,,0.0018822522713410849,494.3,0.4830000102519989,-2.5485234370330327
494.844828,,0.006513778971961169,494.766,0.47600001096725464,-2.5639443480647612
495.310345,,0.00790514064928618,495.232,0.48100000619888306,-2.5531924129968626
495.775862,,0.0013775159481221493,495.69,0.48399999737739563,-2.5467641664706298
496.241379,,0.000497237660007008,496.155,0.48899999260902405,-2.5359412607582166
496.70689699999997,,0.012162586972785012,496.623,0.47999998927116394,-2.5555797124394095
497.172414,,0.027975149188895956,497.088,0.4880000054836273,-2.538140358588831
497.637931,,0.024937894070093433,497.553,0.4880000054836273,-2.5380895316911087
498.103448,,0.0015676912561217097,498.019,0.49900001287460327,-2.5140338972706693
498.568966,,0.0182897586234501,498.482,0.46799999475479126,-2.5814447468919117
499.03448299999997,,0.01720379791780941,498.945,0.4790000021457672,-2.557319970322771
499.5,,0.0049574392468380996,499.416,0.49000000953674316,-2.533167635278397
499.96551700000003,,0.0003091501723945216,499.878,0.4830000102519989,-2.5482085888945294
500.431034,,0.005571865035135182,500.346,0.503000020980835,-2.504409603405046
500.89655200000004,,0.008753131009875676,500.808,0.49000000953674316,-2.532496209594693
501.362069,,0.0033906278730122487,501.274,0.4819999933242798,-2.5496871905390908
501.827586,,0.0034046880563873678,501.738,0.4909999966621399,-2.5298464205894238
502.293103,,0.002366766629830746,502.204,0.5009999871253967,-2.5078391959110418
502.758621,,0.005442611957013034,502.672,0.5009999871253967,-2.5076369443809807
503.224138,,0.011621950034272532,503.13,0.4880000054836273,-2.5357820105795854
503.68965499999996,,0.011822594600256718,503.601,0.47699999809265137,-2.559601083285537
504.15517200000005,,0.008608853761843867,504.066,0.47999998927116394,-2.5529556166179046
504.62068999999997,,0.005094808817779202,504.527,0.4880000054836273,-2.5354569139919767
505.08620699999994,,0.001424429958968988,504.99,0.49000000953674316,-2.531072140227114
505.55172400000004,,0.002394238767859727,505.46,0.48100000619888306,-2.550695514943611
506.017241,,0.004360421788762427,505.923,0.492000013589859,-2.526788676860553
506.48275899999993,,0.0031565770194654195,506.39,0.49000000953674316,-2.5312452743630605
506.948276,,0.0014404453604717404,506.852,0.4819999933242798,-2.548811889253896
507.413793,,0.0037254910835156107,507.318,0.47200000286102295,-2.570770279035135
507.87931,,0.009848313603120568,507.781,0.47699999809265137,-2.5600787357044354
508.344828,,0.012951573808059226,508.246,0.46299999952316284,-2.5908053905352317
508.810345,,0.007466478747828832,508.712,0.4909999966621399,-2.5300456102879068
509.27586199999996,,0.0014155108618068592,509.178,0.4729999899864197,-2.5695125399339083
509.74137900000005,,0.0012909816626794422,509.642,0.4830000102519989,-2.5479781737333718
510.20689699999997,,0.011178842734011084,510.108,0.4909999966621399,-2.5307940063046077
510.67241399999995,,0.02214446871455559,510.575,0.492000013589859,-2.5288449013862175
511.13793100000004,,0.016255483378126857,511.041,0.49900001287460327,-2.513800932615083
511.603448,,0.002010968819713558,511.504,0.49900001287460327,-2.513977660239904
512.0689659999999,,0.01311105195375828,511.967,0.46399998664855957,-2.5903722224945915
512.534483,,0.008034950726086187,512.434,0.4950000047683716,-2.5229370840617413
513.0,,0.0024278847701337232,512.896,0.47600001096725464,-2.564392179867835
513.465517,,0.0052253677037997605,513.36,0.4860000014305115,-2.542622125646483
513.931034,,0.0009572752081717328,513.83,0.49799999594688416,-2.5164494934189388
514.396552,,0.0013602403823136408,514.296,0.47200000286102295,-2.5730208290417913
514.862069,,0.00168757509973357,514.76,0.49000000953674316,-2.5336894826901815
515.327586,,0.004481389205248448,515.225,0.4869999885559082,-2.540071052557298
515.793103,,0.0015436569295735774,515.692,0.4860000014305115,-2.5420609583016174
516.258621,,0.004549868862917637,516.15,0.4909999966621399,-2.5309504992970706
516.724138,,0.007356274797917537,516.615,0.4740000069141388,-2.5677486321404195
517.189655,,0.0056876183026718695,517.081,0.48500001430511475,-2.543530669710257
517.655172,,0.0037834853451774427,517.546,0.4950000047683716,-2.5214850418382015
518.1206900000001,,0.003945884109501036,518.012,0.5049999952316284,-2.499440373356152
518.5862070000001,,0.004090597565918,518.479,0.46700000762939453,-2.581980024238222
519.051724,,0.002647659211882943,518.942,0.48899999260902405,-2.5338186572035983
519.517241,,0.0017977480731154892,519.405,0.5,-2.5096472550420055
519.982759,,0.004081261557924101,519.874,0.5,-2.5094716231790564
520.448276,,0.007703780587048622,520.342,0.5019999742507935,-2.504974770384826
520.9137929999999,,0.007893537919930188,520.804,0.49000000953674316,-2.5310196198047015
521.37931,,0.003477462865543688,521.27,0.5019999742507935,-2.5048213145656577
521.844828,,0.0003912088066244185,521.734,0.47200000286102295,-2.570172730356023
522.310345,,0.0011421398620381999,522.2,0.4950000047683716,-2.5201033879938004
522.7758620000001,,0.004328799566633071,522.66,0.49900001287460327,-2.511474620619488
523.241379,,0.00016042893014410202,523.125,0.48500001430511475,-2.542105065235097
523.7068969999999,,0.013350451895410242,523.59,0.4819999933242798,-2.5488106365502863
524.172414,,0.0218753322821828,524.056,0.47600001096725464,-2.5620876905237004
524.637931,,0.01305903446421481,524.524,0.4959999918937683,-2.5187492175135633
525.103448,,0.006268070338691181,524.986,0.48100000619888306,-2.5516850898318673
525.568966,,0.016217377250188375,525.456,0.5120000243186951,-2.484416440417106
526.034483,,0.009152290912639454,525.919,0.49000000953674316,-2.532620749060089
526.5,,0.002449162140663256,526.382,0.5170000195503235,-2.4740668318934813
526.9655170000001,,0.005062162837780124,526.845,0.5170000195503235,-2.474323053029669
527.4310340000001,,0.0006865126044706309,527.31,0.5009999871253967,-2.509416076610752
527.8965519999999,,0.0002978882798494858,527.78,0.5149999856948853,-2.4791208806830656
528.362069,,0.007371334875653014,528.246,0.5040000081062317,-2.503256709073601
528.827586,,0.013739633991597692,528.705,0.515999972820282,-2.4772431371224064
529.293103,,0.011029810128782668,529.171,0.49900001287460327,-2.514365615255832
529.7586210000001,,0.0013975138618197778,529.637,0.6209999918937683,-2.2486068036116804
530.224138,,0.006190565111634223,530.103,0.5199999809265137,-2.4686341149590754
530.689655,,0.007150867700119965,530.568,0.5090000033378601,-2.492532647218311
531.155172,,0.004127450361179173,531.034,0.5139999985694885,-2.4815270811187125
531.62069,,0.0009519171425653508,531.497,0.5239999890327454,-2.4595860750656255
532.086207,,0.000880654966926263,531.967,0.527999997138977,-2.4506792295776365
532.5517239999999,,0.0004843731275357578,532.427,0.527999997138977,-2.4504551990522163
533.017241,,0.002872886138877853,532.89,0.515999972820282,-2.47635059746561
533.482759,,0.007347980982676196,533.36,0.5299999713897705,-2.4455848342323065
533.9482760000001,,0.00837458922325441,533.823,0.5370000004768372,-2.430061378878208
534.413793,,0.003159957944429268,534.289,0.531000018119812,-2.442860546168588
534.87931,,0.004684616211919699,534.756,0.5540000200271606,-2.392487474043006
535.344828,,0.0067127733579674395,535.222,0.5419999957084656,-2.418383682521578
535.810345,,0.0016145039115252045,535.687,0.5540000200271606,-2.392016463527056
536.275862,,0.012712979803039154,536.145,0.5419999957084656,-2.41796841182147
536.7413789999999,,0.011049301862804126,536.612,0.5669999718666077,-2.3633478158376033
537.206897,,0.008517422025878452,537.078,0.5540000200271606,-2.391557822328481
537.672414,,0.028319321023662365,537.543,0.5460000038146973,-2.4089207519941014
538.137931,,0.02454556949585516,538.008,0.5519999861717224,-2.3958313875731627
538.6034480000001,,0.0017134439296121508,538.471,0.5640000104904175,-2.369719318531148
539.0689659999999,,0.023272677780596107,538.941,0.5789999961853027,-2.3371190581890837
539.5344829999999,,0.020932140541945782,539.401,0.574999988079071,-2.345957822079969
540.0,,0.004654630946397101,539.871,0.5699999928474426,-2.3570162272822355
540.465517,,0.004898757477128044,540.337,0.5669999718666077,-2.363753808095289
540.931034,,0.002838516245467105,540.8,0.5509999990463257,-2.3988445788354853
541.396552,,7.867428174899581e-05,541.266,0.6129999756813049,-2.2640241079300205
541.862069,,0.003659986241353749,541.73,0.5929999947547913,-2.3078666167560193
542.327586,,0.00875778133636239,542.196,0.5789999961853027,-2.3386427289228533
542.7931030000001,,0.006653878461676437,542.66,0.6190000176429749,-2.251768971001532
543.258621,,0.001683488128321095,543.125,0.5839999914169312,-2.3282823810201565
543.7241379999999,,0.00750250246373914,543.59,0.6039999723434448,-2.28495072287974
544.189655,,0.006163148563220502,544.056,0.5979999899864197,-2.298237245759511
544.655172,,0.0014734356078425384,544.519,0.6330000162124634,-2.2221652450477913
545.12069,,0.0011232255425685828,544.981,0.5960000157356262,-2.3029162642736076
545.5862070000001,,0.0004223238782113172,545.445,0.5929999947547913,-2.3095501229214275
546.051724,,0.0021682483156272507,545.915,0.6050000190734863,-2.283458795819437
546.517241,,0.006254098963864556,546.379,0.6190000176429749,-2.2529628095415744
546.982759,,0.012063352191427125,546.841,0.6320000290870667,-2.224597080616273
547.448276,,0.01751334641274911,547.307,0.6179999709129333,-2.255007735395553
547.9137929999999,,0.018597307600281523,547.77,0.6269999742507935,-2.235265174817468
548.3793099999999,,0.014732296547619164,548.236,0.6019999980926514,-2.289557300515687
548.844828,,0.012097190334863757,548.701,0.5789999961853027,-2.339459657710642
549.310345,,0.01728234695820673,549.166,0.6050000190734863,-2.282583040224427
549.775862,,0.02608846214308996,549.63,0.5860000252723694,-2.323727654292947
550.241379,,0.02394523406088783,550.096,0.6259999871253967,-2.2363212696089096
550.706897,,0.00440767057308051,550.564,0.6010000109672546,-2.2905235107924327
551.172414,,0.01593571418318546,551.029,0.6230000257492065,-2.2423336805675724
551.637931,,0.013412425532056838,551.49,0.5920000076293945,-2.3096248951259297
552.103448,,0.010638142854913822,551.96,0.6159999966621399,-2.257110740227688
552.568966,,0.02862025340021696,552.423,0.5929999947547913,-2.3070203684535726
553.034483,,0.021449051431360854,552.886,0.6200000047683716,-2.248030645272411
553.5,,0.0007740578875579936,553.357,0.6650000214576721,-2.1498618291775986
553.965517,,0.017521425815502013,553.819,0.6000000238418579,-2.2913838780951457
554.4310340000001,,0.022806811140729702,554.285,0.6100000143051147,-2.26955069590492
554.896552,,0.024776929641031772,554.749,0.5789999961853027,-2.337088302558298
555.3620689999999,,0.029902278708184012,555.214,0.6050000190734863,-2.2804893046738948
555.827586,,0.03538301827359928,555.678,0.6140000224113464,-2.2609717097487594
556.293103,,0.035427032497177165,556.144,0.6179999709129333,-2.252387926027453
556.758621,,0.02983314659809125,556.609,0.5910000205039978,-2.311378476143819
557.224138,,0.023701531030042185,557.075,0.5929999947547913,-2.3072203828827273
557.689655,,0.02083978327462388,557.541,0.5849999785423279,-2.324875072350278
558.155172,,0.020827698137011873,558.007,0.6060000061988831,-2.2793679095182533
558.6206900000001,,0.021341733850462646,558.467,0.5839999914169312,-2.3275539038021407
559.0862070000001,,0.020083627434829172,558.93,0.5920000076293945,-2.310383745751041
559.5517239999999,,0.0151207773865486,559.397,0.6019999980926514,-2.288851528498929
560.017241,,0.006240455109724116,559.86,0.5759999752044678,-2.345737883988842
560.482759,,0.003479102949662841,560.325,0.593999981880188,-2.3067436641705292
560.948276,,0.00888096419383147,560.796,0.5699999928474426,-2.3592260774834966
561.413793,,0.00686461018242644,561.261,0.6000000238418579,-2.2940286429901575
561.87931,,3.206356556744675e-05,561.722,0.5809999704360962,-2.335547036973388
562.344828,,0.004308465376761801,562.188,0.5709999799728394,-2.3574157065053383
562.8103450000001,,0.000790236178078928,562.653,0.5929999947547913,-2.3095235467470334
563.275862,,0.007147675127424223,563.118,0.550000011920929,-2.4031984530044963
563.7413789999999,,0.00951743097865115,563.583,0.5370000004768372,-2.4314703869044223
564.206897,,0.002539496478187736,564.049,0.5830000042915344,-2.3311602910457454
564.672414,,0.0033305025232951086,564.512,0.5830000042915344,-2.331027575675102
565.137931,,0.004525625007726311,564.982,0.5460000038146973,-2.411468141638566
565.603448,,0.021707035234854444,565.442,0.5070000290870667,-2.496236376505638
566.068966,,0.030039351390270003,565.912,0.5299999713897705,-2.4459066047062503
566.534483,,0.02138215285676725,566.375,0.5460000038146973,-2.41081132247013
567.0,,0.007305223595286235,566.837,0.5419999957084656,-2.419279224923174
567.465517,,0.002071182295091308,567.303,0.5239999890327454,-2.458245706048778
567.931034,,0.005325767743075368,567.767,0.5379999876022339,-2.427500624604399
568.396552,,0.006199154472732705,568.233,0.5009999871253967,-2.5078794405819838
568.862069,,0.0006519856905126617,568.697,0.5329999923706055,-2.4379513967591597
569.327586,,0.008280893279492425,569.162,0.5260000228881836,-2.4530161925659653
569.793103,,0.006988766523344582,569.627,0.5419999957084656,-2.4180023309513254
570.2586210000001,,0.002916257859806496,570.093,0.5329999923706055,-2.4374888139620094
570.724138,,0.011693303485210733,570.557,0.515999972820282,-2.474442366570112
571.189655,,0.011979763272536317,571.023,0.5080000162124634,-2.4918289454431095
571.655172,,0.005454396125020455,571.486,0.5049999952316284,-2.4983650907146266
572.12069,,0.00144279258283169,571.956,0.5509999990463257,-2.398189156956264
572.586207,,0.0038758109715561454,572.416,0.5090000033378601,-2.48977374964911
573.051724,,0.0007775498184167864,572.886,0.5109999775886536,-2.485535268837209
573.517241,,0.0055948387122630614,573.349,0.5230000019073486,-2.4595443832632777
573.982759,,0.010945207527866317,573.812,0.5059999823570251,-2.4967637436030827
574.4482760000001,,0.011277178768044216,574.277,0.5170000195503235,-2.473004786692683
574.913793,,0.0056895350181662575,574.743,0.5090000033378601,-2.4906580998146577
575.37931,,0.0022450691501487725,575.209,0.5249999761581421,-2.4560347491917938
575.844828,,0.006480522226805608,575.676,0.503000020980835,-2.504203767894017
576.310345,,0.003909633972308111,576.141,0.5149999856948853,-2.4782959667938402
576.775862,,0.0011229229336177438,576.601,0.5019999742507935,-2.506844674369942
577.241379,,0.00011676521170345068,577.066,0.5139999985694885,-2.480910795369221
577.706897,,0.008212801462755248,577.539,0.503000020980835,-2.5050634332176025
578.172414,,0.01221373592911306,577.997,0.5080000162124634,-2.4943299555372134
578.6379310000001,,0.0005163006658213651,578.46,0.515999972820282,-2.4770280707160435
579.1034480000001,,0.01964106111395418,578.93,0.4950000047683716,-2.5228706554862605
579.5689659999999,,0.028071464224236318,579.393,0.49300000071525574,-2.5272808892136562
580.034483,,0.01734983101108226,579.856,0.5130000114440918,-2.4837213462714436
580.5,,0.0015567505428141647,580.322,0.492000013589859,-2.529446346567546
580.965517,,0.003527382682161259,580.785,0.4860000014305115,-2.542452921784847
581.431034,,0.001220250361871404,581.251,0.492000013589859,-2.5292794045577724
581.896552,,0.003895256264873988,581.716,0.49300000071525574,-2.5269657959437954
582.362069,,0.0012662797683346604,582.182,0.4909999966621399,-2.53115854056786
582.827586,,0.007949071025649153,582.649,0.49000000953674316,-2.5331478618283274
583.2931030000001,,0.007758033145443243,583.115,0.47999998927116394,-2.554726078558786
583.758621,,0.0013181935963092366,583.58,0.4959999918937683,-2.5196464155037126
584.2241379999999,,0.0038477277043472463,584.045,0.4880000054836273,-2.536847420812427
584.689655,,0.0036751029796815915,584.508,0.49799999594688416,-2.5148322167171515
585.155172,,0.0007072446377903616,584.97,0.49000000953674316,-2.532038511319806
585.6206900000001,,0.001832568187728584,585.438,0.5019999742507935,-2.5056840186836262
586.0862070000001,,0.0037370948817729093,585.901,0.4779999852180481,-2.5577790351181724
586.551724,,0.005110626314464517,586.371,0.5049999952316284,-2.498786823276806
587.017241,,0.0043659197474471625,586.834,0.49000000953674316,-2.5313262606082008
587.482759,,0.0016104545570867523,587.299,0.4790000021457672,-2.555183785177369
587.948276,,0.0019045099721114861,587.766,0.4880000054836273,-2.535504513491171
588.4137929999999,,0.010268065640727589,588.232,0.49300000071525574,-2.5245778472104696
588.87931,,0.02215200207737504,588.697,0.4830000102519989,-2.546369621784542
589.344828,,0.024661793716256535,589.155,0.5019999742507935,-2.5050191307734866
589.810345,,0.012073388581249636,589.62,0.5070000290870667,-2.4942060886558717
590.2758620000001,,0.004076989303814155,590.085,0.4790000021457672,-2.555322879001528
590.741379,,0.006722024691539039,590.553,0.4830000102519989,-2.5467546618709735
591.2068969999999,,0.005674501928692088,591.019,0.5,-2.5098917704765284
591.672414,,0.01541062253010492,591.486,0.48500001430511475,-2.5427679249835524
592.137931,,0.00658444065748479,591.948,0.46700000762939453,-2.582197370049106
592.603448,,0.01394193495264777,592.412,0.4650000035762787,-2.586780594161842
593.068966,,0.024645468742996668,592.882,0.492000013589859,-2.528188531437905
593.534483,,0.016707152642477425,593.345,0.4749999940395355,-2.565455308210995
594.0,,0.0024822382749580354,593.808,0.4950000047683716,-2.5221032836628403
594.4655170000001,,0.0036843850516516223,594.273,0.48100000619888306,-2.5528100312692232
594.9310340000001,,0.001906253888289706,594.738,0.46799999475479126,-2.5813172224399965
595.3965519999999,,0.0009339947514155149,595.204,0.4699999988079071,-2.5771189967511767
595.862069,,0.0038876489746412593,595.671,0.46399998664855957,-2.5903199194187736
596.327586,,0.005147587847071022,596.137,0.4959999918937683,-2.520697750208399
596.793103,,0.00045250038360026716,596.601,0.47999998927116394,-2.5556126701342556
597.2586210000001,,0.009700192377942446,597.066,0.4790000021457672,-2.5578079243273733
597.724138,,0.014528798889200346,597.527,0.48500001430511475,-2.544712307244983
598.189655,,0.011328763482198,597.99,0.47699999809265137,-2.562077971921314
598.655172,,0.0037993909531610663,598.46,0.4740000069141388,-2.5685123909256014
599.12069,,0.00199198113275577,598.923,0.48500001430511475,-2.544410625982444
599.586207,,0.0028205930151372263,599.391,0.4790000021457672,-2.55731442202013
600.0517239999999,,0.0002467077196005919,599.853,0.503000020980835,-2.5048314867293637
600.517241,,0.003731530029183017,600.319,0.4429999887943268,-2.6353339401047275
600.982759,,0.0048841862083198965,600.782,0.4959999918937683,-2.5196347408611923
601.448276,,0.0028813513686464717,601.247,0.4320000112056732,-2.6588302595898226
601.913793,,0.0019161504673679522,601.712,0.48100000619888306,-2.5518386251359493
602.37931,,0.007390300464047738,602.177,0.4860000014305115,-2.540713851675364
602.844828,,0.0091286704996057,602.645,0.47099998593330383,-2.5731742571132497
603.310345,,0.00478826116309555,603.111,0.4819999933242798,-2.549008549450526
603.775862,,5.958759211597615e-05,603.575,0.48399999737739563,-2.5444752146854293
604.2413789999999,,0.005060475182551613,604.041,0.4740000069141388,-2.5661152884822185
604.706897,,0.020212546627225332,604.505,0.47699999809265137,-2.559467251418315
605.172414,,0.030045475483881316,604.967,0.4749999940395355,-2.5637502627782585
605.637931,,0.019788466977925332,605.43,0.4860000014305115,-2.5397507679102085
606.1034480000001,,0.00341884784539778,605.9,0.48899999260902405,-2.533221224246519
606.5689659999999,,0.016804705309861816,606.364,0.4830000102519989,-2.546340019847084
607.0344829999999,,0.01001147090411588,606.827,0.46700000762939453,-2.581285257869697
607.5,,0.004333596935507482,607.292,0.47099998593330383,-2.5726958231731807
607.965517,,0.009579781274571996,607.756,0.4699999988079071,-2.5750345915133237
608.431034,,0.004280226665894398,608.222,0.46799999475479126,-2.579582615977624
608.896552,,0.0008003737282827036,608.687,0.48500001430511475,-2.542761204444494
609.362069,,0.0016059002708150836,609.153,0.47699999809265137,-2.560424441782611
609.827586,,0.007162409769803208,609.62,0.4650000035762787,-2.5868140446334817
610.293103,,0.006941474968971854,610.086,0.4690000116825104,-2.578350476573343
610.758621,,0.0008136768592197595,610.546,0.4729999899864197,-2.5698848677683994
611.2241379999999,,0.009374134156984527,611.012,0.4819999933242798,-2.550516132811326
611.689655,,0.01253563865112199,611.475,0.492000013589859,-2.5289512006118233
612.155172,,0.010237442204204111,611.945,0.4699999988079071,-2.5770788749854345
612.62069,,0.00558006212225773,612.408,0.47600001096725464,-2.564174674627809
613.0862070000001,,0.0009624361975233353,612.871,0.49000000953674316,-2.533806518692939
613.551724,,0.0019120280739803866,613.337,0.4909999966621399,-2.531721297540217
614.017241,,0.001420252550210429,613.801,0.4699999988079071,-2.5775239617588586
614.4827590000001,,0.00245742204757128,614.267,0.48399999737739563,-2.547030364883805
614.948276,,0.006458256163522994,614.734,0.49000000953674316,-2.5339217292665523
615.4137929999999,,0.005873821046575929,615.199,0.48399999737739563,-2.546913248452612
615.8793099999999,,0.00013930602940604722,615.664,0.46399998664855957,-2.5903648413899356
616.344828,,0.003974002168883833,616.13,0.46299999952316284,-2.5923853195475752
616.810345,,0.00128593219786294,616.59,0.47699999809265137,-2.5616939880942784
617.275862,,0.012513839431131765,617.055,0.45500001311302185,-2.609407207667344
617.741379,,0.013905843379023085,617.523,0.4359999895095825,-2.650564887497071
618.206897,,0.003849394649921514,617.985,0.45899999141693115,-2.6002070079654853
618.672414,,0.02535215503186191,618.456,0.460999995470047,-2.595595053023741
619.137931,,0.02431336196415209,618.919,0.4620000123977661,-2.5931627192343845
619.603448,,0.001641145114601065,619.387,0.46000000834465027,-2.5972745517771476
620.068966,,0.0253649525128608,619.849,0.4659999907016754,-2.5839723297334167
620.534483,,0.025097594441656264,620.315,0.46399998664855957,-2.5881208134700495
621.0,,0.009442126546312758,620.777,0.47200000286102295,-2.570510107315889
621.465517,,0.00029808182894927875,621.243,0.4560000002384186,-2.605219650631994
621.9310340000001,,0.0042999911098600295,621.708,0.4189999997615814,-2.6857189282441767
622.396552,,0.010243474202141452,622.174,0.45500001311302185,-2.6072191364911763
622.862069,,0.007778716795038297,622.639,0.46399998664855957,-2.5875864851018244
623.327586,,0.000107864940140235,623.104,0.45899999141693115,-2.5984981937385303
623.793103,,0.0036170531474986264,623.571,0.45899999141693115,-2.5985595254465927
624.258621,,0.0004529660980813394,624.037,0.46399998664855957,-2.587768767241303
624.724138,,0.006544510939941163,624.497,0.46399998664855957,-2.587909324159289
625.189655,,0.009172639398615408,624.967,0.4650000035762787,-2.585905206725104
625.655172,,0.007895313940018349,625.427,0.4699999988079071,-2.5752155067318623
626.1206900000001,,0.00401641139375671,625.897,0.46299999952316284,-2.590692750631814
626.5862070000001,,0.0016695764979291576,626.357,0.46299999952316284,-2.5909364074140337
627.0517239999999,,0.006568981335583247,626.827,0.46700000762939453,-2.5824756028262095
627.5172409999999,,0.006485803049450691,627.285,0.45100000500679016,-2.617590955954217
627.982759,,0.0014269124613700017,627.753,0.4650000035762787,-2.5873429835781763
628.448276,,0.0012306126503370588,628.218,0.47200000286102295,-2.5723341814506626
628.913793,,0.005627821489637617,628.683,0.4790000021457672,-2.557306487942367
629.37931,,0.0176966879103225,629.149,0.4620000123977661,-2.594541060587301
629.844828,,0.02157739433602949,629.615,0.45500001311302185,-2.609958901160577
630.3103450000001,,0.01133882231153805,630.081,0.45399999618530273,-2.612270459902083
630.7758620000001,,0.0022652589457777916,630.545,0.453000009059906,-2.614543893944679
631.2413789999999,,0.0037640701758183226,631.011,0.4690000116825104,-2.579739227201383
631.706897,,0.008022779274240508,631.472,0.45100000500679016,-2.618965676119538
632.172414,,0.017415302539789877,631.941,0.45500001311302185,-2.6102186782041903
632.637931,,0.010496535794729492,632.404,0.44600000977516174,-2.6297521155726975
633.103448,,0.006719428703498072,632.867,0.46000000834465027,-2.5991364954532434
633.568966,,0.015414689493402205,633.333,0.49900001287460327,-2.5140164525899853
634.034483,,0.00817269338132627,633.798,0.4650000035762787,-2.5879027006654463
634.5,,0.0034165737374109734,634.264,0.45100000500679016,-2.6181867955791316
634.9655170000001,,0.006195636550762154,634.731,0.45899999141693115,-2.6005185584218204
635.431034,,0.0008811707311373392,635.197,0.4790000021457672,-2.5566906835216443
635.8965519999999,,0.002795596525803852,635.656,0.47600001096725464,-2.562962290712926
636.362069,,0.0003777341314975811,636.122,0.46399998664855957,-2.588839831436977
636.827586,,0.006338066019668016,636.59,0.43700000643730164,-2.647403671800829
637.293103,,0.008028313184368665,637.055,0.45399999618530273,-2.6101220572547144
637.7586210000001,,0.00356102943096425,637.516,0.46399998664855957,-2.5881127635202397
638.224138,,0.0022929167893590554,637.985,0.4620000123977661,-2.5922747480606567
638.689655,,0.00373699267494916,638.446,0.4819999933242798,-2.5485393111831445
639.155172,,0.00019999955443022002,638.916,0.46399998664855957,-2.587629704633749
639.62069,,0.005554208324587223,639.379,0.46399998664855957,-2.587545669104764
640.086207,,0.007852433887137017,639.841,0.47999998927116394,-2.552647196082359
640.551724,,0.005755516204295047,640.307,0.4440000057220459,-2.6310839048856125
641.017241,,0.0010215773007155205,640.77,0.45500001311302185,-2.6071705508661256
641.482759,,0.003730911116877705,641.236,0.47600001096725464,-2.561515822326078
641.9482760000001,,0.006633008915005854,641.701,0.4749999940395355,-2.563833020799359
642.413793,,0.006904818335049154,642.167,0.453000009059906,-2.611939745531192
642.87931,,0.005143591630554431,642.631,0.4429999887943268,-2.6339369417062435
643.344828,,0.0034041597804860767,643.097,0.44999998807907104,-2.6189260636031557
643.810345,,0.003453242957391489,643.564,0.4690000116825104,-2.5777931742377396
644.275862,,0.004281755555117527,644.029,0.46299999952316284,-2.591140258016201
644.7413789999999,,0.0031679694104015752,644.49,0.4519999921321869,-2.6153864327775005
645.206897,,0.0006570332347455608,644.959,0.45100000500679016,-2.617844360551558
645.672414,,0.001968737212402612,645.42,0.45899999141693115,-2.60068475612694
646.1379310000001,,0.010081962012785387,645.889,0.46299999952316284,-2.592221677680239
646.6034480000001,,0.019668678175021406,646.35,0.45899999141693115,-2.601162118796479
647.0689659999999,,0.02265364725464137,646.819,0.46000000834465027,-2.5991768383214335
647.534483,,0.018016269002849958,647.285,0.48899999260902405,-2.536150653153828
648.0,,0.011183995772205373,647.749,0.4519999921321869,-2.616871307220847
648.465517,,0.005809097152307243,648.214,0.4779999852180481,-2.5602899557978183
648.931034,,0.0012521633575189358,648.678,0.4560000002384186,-2.60823460212526
649.396552,,0.0032782028782769347,649.144,0.47999998927116394,-2.555911506282503
649.862069,,0.006611144075341689,649.608,0.45100000500679016,-2.6190076429264324
650.327586,,0.007615170177178422,650.074,0.46399998664855957,-2.5905540641110307
650.7931030000001,,0.006941189943578646,650.538,0.48100000619888306,-2.553342595772142
651.258621,,0.006461465676701465,651.004,0.46399998664855957,-2.5901663777404225
651.7241379999999,,0.007594950917873991,651.472,0.45500001311302185,-2.609528489560015
652.189655,,0.010028364234795117,651.934,0.47699999809265137,-2.561327468133986
652.655172,,0.011952924108604199,652.397,0.4230000078678131,-2.67868680106638
653.12069,,0.011756538183312211,652.86,0.45500001311302185,-2.6086747190815416
653.5862070000001,,0.009428935938003397,653.326,0.4729999899864197,-2.5691642375817483
654.051724,,0.006216665793110603,653.797,0.46799999475479126,-2.579770474393302
654.517241,,0.003310631735774549,654.255,0.4569999873638153,-2.603464941415848
654.982759,,0.0015384134813212832,654.727,0.46399998664855957,-2.587968379795102
655.448276,,0.0021882125645222863,655.185,0.4569999873638153,-2.6030049693332966
655.9137929999999,,0.006472119834398699,655.65,0.4659999907016754,-2.583221616609305
656.37931,,0.012615727563822208,656.116,0.4830000102519989,-2.546052302662758
656.844828,,0.014816418658870468,656.583,0.4620000123977661,-2.5917186792372404
657.310345,,0.008752587798228007,657.049,0.47999998927116394,-2.5524677081195346
657.7758620000001,,0.0008198926486070704,657.512,0.4699999988079071,-2.5742700561401555
658.241379,,0.0024701149972641673,657.981,0.48100000619888306,-2.5503717418603005
658.7068969999999,,0.007198243442907795,658.442,0.48500001430511475,-2.541773098388229
659.172414,,0.014920516361193679,658.911,0.4620000123977661,-2.59204425305875
659.637931,,0.005634341554229511,659.372,0.46700000762939453,-2.5813558697475916
660.103448,,0.015355236310511174,659.835,0.47600001096725464,-2.561990000466923
660.568966,,0.026556843898735256,660.3,0.48399999737739563,-2.5448326543137867
661.034483,,0.01775911024620202,660.766,0.46799999475479126,-2.5799849074710166
661.5,,0.0015114532077064567,661.232,0.4749999940395355,-2.5650422628678475
661.965517,,0.005194151786254616,661.697,0.4860000014305115,-2.5413900774356257
662.4310340000001,,9.226413059984573e-05,662.163,0.4729999899864197,-2.570021275144441
662.8965519999999,,0.006978096780245483,662.627,0.4429999887943268,-2.635677130458082
663.362069,,0.008019120386397944,663.093,0.4819999933242798,-2.550985762086261
663.827586,,0.0035697305894518026,663.557,0.45100000500679016,-2.6187708843122883
664.293103,,0.0009181078088521851,664.022,0.4830000102519989,-2.5492645446929525
664.7586210000001,,0.0013194037395607937,664.486,0.47699999809265137,-2.5625033507220527
665.224138,,0.0021645920974960866,664.955,0.46399998664855957,-2.5909437302338816
665.689655,,0.005969719895802919,665.416,0.4959999918937683,-2.521291996957553
666.155172,,0.0064762311283982415,665.886,0.4880000054836273,-2.5387301739231822
666.62069,,0.0032287091813131964,666.349,0.46399998664855957,-2.5909701849307316
667.086207,,0.000719012495307929,666.812,0.4650000035762787,-2.588689229125702
667.5517239999999,,0.0019903385462490555,667.277,0.4959999918937683,-2.5209965717195066
668.017241,,0.0003976644862148487,667.741,0.48100000619888306,-2.5534726286355034
668.482759,,0.000996566171293895,668.207,0.492000013589859,-2.529260088891246
668.948276,,0.0008360297224387974,668.672,0.48399999737739563,-2.5464051707291286
669.413793,,0.005673863014011922,669.137,0.47999998927116394,-2.554807155050928
669.87931,,0.009826212073511314,669.605,0.47200000286102295,-2.5719046949057933
670.3448279999999,,0.00928347855321086,670.071,0.47600001096725464,-2.562849440385235
670.810345,,0.0039170456501767545,670.535,0.5019999742507935,-2.5058645198114418
671.275862,,0.001464630411689943,671.001,0.5070000290870667,-2.494640511048329
671.7413789999999,,0.0018223074468026851,671.463,0.47600001096725464,-2.561867358927339
672.206897,,0.001562479852073391,671.926,0.44999998807907104,-2.6182313379668205
672.672414,,0.0016123837812188444,672.394,0.4790000021457672,-2.5548095658293315
673.137931,,0.005124507102958093,672.856,0.47099998593330383,-2.5720449757665684
673.6034480000001,,0.012457853088571032,673.322,0.4819999933242798,-2.5479387845721404
674.068966,,0.012192438308143058,673.792,0.453000009059906,-2.6110362169884533
674.5344829999999,,0.005137450806398006,674.25,0.33899998664855957,-2.8593824991732144
675.0,,0.0007267659217045605,674.716,0.47200000286102295,-2.569669153263789
