Trial: ,42
Threshold: ,0.0
Maximum EMG: ,0.0
Success: ,True

EMG Time,Raw EMG,Filtered EMG,Force Time,Raw Force (V),Filtered Force (N)
0.0,samples,0.0,0.466,0.5339999794960022,-2.436910957561581
0.46551699999999996,time,0.0,0.931,0.5199999809265137,-2.4672906404124246
0.9310339999999999,value,0.0,1.398,0.5170000195503235,-2.473698902255673
1.396552,,0.0,1.863,0.527999997138977,-2.4496037912809685
1.862069,,0.0,2.328,0.5210000276565552,-2.464725316422455
2.327586,,0.0,2.793,0.6209999918937683,-2.246734479905563
2.793103,,0.0,3.254,0.5249999761581421,-2.45576371517222
3.258621,,0.0,3.724,0.5170000195503235,-2.473082135938399
3.724138,,0.0,4.187,0.5379999876022339,-2.427235533661846
4.189654999999999,,0.0,4.649,0.5130000114440918,-2.481625209230824
4.655172,,0.0,5.117,0.5070000290870667,-2.494642287695652
5.12069,,0.0,5.58,0.5120000243186951,-2.4837184855017505
5.586207,,0.0,6.045,0.4729999899864197,-2.568681321117688
6.051723999999999,,0.0,6.513,0.515999972820282,-2.475021760730675
6.517241,,0.0,6.978,0.5180000066757202,-2.4707121070706743
6.982759,,0.0,7.442,0.503000020980835,-2.5034629602386196
7.448276,,0.0,7.908,0.5170000195503235,-2.473054599488916
7.913793000000001,,0.0,8.373,0.5339999794960022,-2.4361286003460996
8.379309999999998,,0.0,8.839,0.527999997138977,-2.449325486632603
8.844828000000001,,0.0,9.302,0.515999972820282,-2.475604787005016
9.310345,,0.0,9.764,0.5180000066757202,-2.4713897264575757
9.775862,,0.0,10.235,0.503000020980835,-2.504214714750296
10.241379,,0.0,10.698,0.5130000114440918,-2.4825723977974476
10.706897,,0.0,11.161,0.5099999904632568,-2.4892469493804765
11.172414,,0.0,11.624,0.531000018119812,-2.4436234543454662
11.637931,,0.0,12.089,0.5410000085830688,-2.421949911335448
12.103447999999998,,0.0,12.559,0.5210000276565552,-2.4656166016409977
12.568966000000001,,0.0,13.025,0.5120000243186951,-2.485296837744734
13.034483,,0.0,13.491,0.515999972820282,-2.476631761928207
13.5,,0.0,13.949,0.515999972820282,-2.4766566522700324
13.965517,,0.0,14.414,0.5180000066757202,-2.472298716182757
14.431034,,0.0,14.88,0.503000020980835,-2.5049525575295606
14.896552,,0.0,15.346,0.5329999923706055,-2.439542646039499
15.362069,,0.0,15.812,0.515999972820282,-2.476505530255265
15.827586000000002,,0.0,16.28,0.5019999742507935,-2.506911247277377
16.293103,,0.0,16.742,0.5130000114440918,-2.4828329553560557
16.758621,,0.0,17.206,0.531000018119812,-2.4434893675065874
17.224138,,0.0,17.676,0.515999972820282,-2.4760297273455087
17.689655,,0.0,18.139,0.5009999871253967,-2.5085630735648783
18.155172,,0.0,18.601,0.5210000276565552,-2.464841646912931
18.62069,,0.0,19.067,0.5130000114440918,-2.482124698265949
19.086207,,0.0,19.531,0.5080000162124634,-2.4928783794554628
19.551724,,0.0,19.996,0.5339999794960022,-2.4361047363452806
20.017241000000002,,0.0,20.462,0.5099999904632568,-2.4882776610180666
20.482758999999998,,0.0,20.927,0.5289999842643738,-2.4467864945776494
20.948276,,0.0,21.391,0.5260000228881836,-2.4532461048485477
21.413793000000002,,0.0,21.856,0.503000020980835,-2.503301977056913
21.87931,,0.0,22.324,0.5120000243186951,-2.4836667243912274
22.344828,,0.0,22.79,0.5120000243186951,-2.4836660195668667
22.810344999999998,,0.0,23.25,0.5049999952316284,-2.4989427017511976
23.275862,,0.0,23.72,0.5419999957084656,-2.418384394535455
23.741379,,0.0,24.183,0.5170000195503235,-2.472925656545957
24.206897,,0.0,24.645,0.5339999794960022,-2.435984900029752
24.672414,,0.0,25.117,0.5210000276565552,-2.4644218069012234
25.137931,,0.0,25.579,0.5149999856948853,-2.4776236703924135
25.603448,,0.0,26.045,0.5239999890327454,-2.4581574805130475
26.068966,,0.0,26.509,0.49900001287460327,-2.5127731544026535
26.534483,,0.0,26.975,0.5120000243186951,-2.484604085045943
27.0,,0.0,27.44,0.515999972820282,-2.47604218470632
27.465517,,0.0,27.905,0.5339999794960022,-2.4369728925582974
27.931034,,0.0,28.365,0.5130000114440918,-2.482859864968658
28.396552,,0.0,28.831,0.5210000276565552,-2.4655511955597995
28.862069,,0.0,29.294,0.4959999918937683,-2.520120062768462
29.327586,,0.0,29.764,0.515999972820282,-2.4766288873003495
29.793103000000002,,0.0,30.228,0.5180000066757202,-2.4723295636407245
30.258620999999998,,0.0,30.69,0.5,-2.5115775607615958
30.724138,,0.0,31.158,0.515999972820282,-2.4767249509005014
31.189655000000002,,0.0,31.62,0.5109999775886536,-2.4875967798237943
31.655172000000004,,0.0,32.086,0.5099999904632568,-2.4897272039522877
32.12069,,0.0,32.549,0.5339999794960022,-2.437365579094012
32.586207,,0.0,33.014,0.5170000195503235,-2.4743040671314014
33.051724,,0.0,33.479,0.5080000162124634,-2.493792226647216
33.517241000000006,,0.0,33.945,0.5109999775886536,-2.4871195262081742
33.982759,,0.0,34.41,0.5099999904632568,-2.48914826328213
34.448276,,0.0,34.875,0.5249999761581421,-2.4563097654167043
34.913793,,0.0,35.339,0.5070000290870667,-2.495362175800794
35.37931,,0.0,35.804,0.5049999952316284,-2.4995573608721493
35.844828,,0.0,36.272,0.5040000081062317,-2.501580111143562
36.310345,,0.0,36.735,0.515999972820282,-2.475291431722276
36.775862,,0.0,37.203,0.5059999823570251,-2.496948028933883
37.241378999999995,,0.0,37.665,0.5239999890327454,-2.4576213556717885
37.706897000000005,,0.0,38.135,0.4970000088214874,-2.516356245327963
38.172414,,0.0,38.598,0.5210000276565552,-2.4640054299979455
38.637931,,0.0,39.063,0.5080000162124634,-2.492292008868306
39.103448,,0.0,39.528,0.5149999856948853,-2.4770340991183732
39.568965999999996,,0.0,39.993,0.5170000195503235,-2.4726980884632237
40.034483,,0.0,40.457,0.5149999856948853,-2.4771049815466064
40.5,,0.0,40.923,0.5270000100135803,-2.4510373234634204
40.965517,,0.0,41.39,0.48500001430511475,-2.542641700795911
41.431034,,0.0,41.849,0.5180000066757202,-2.470870204133216
41.896552,,0.0,42.32,0.5099999904632568,-2.4884422459550426
42.362069000000005,,0.0,42.779,0.531000018119812,-2.442847359106114
42.827586000000004,,0.0,43.246,0.5199999809265137,-2.466978319457595
43.293103,,0.0,43.709,0.5210000276565552,-2.4649693258866456
43.758621,,0.0,44.176,0.5199999809265137,-2.4673170003345173
44.224138,,0.0,44.639,0.5239999890327454,-2.4587653870149007
44.689655,,0.0,45.105,0.5139999985694885,-2.4807041227650037
45.155172,,0.0,45.575,0.5249999761581421,-2.4568760822534026
45.620689999999996,,0.0,46.034,0.5199999809265137,-2.467886894092457
46.086206999999995,,0.0,46.506,0.5040000081062317,-2.5028400348467588
46.551724,,0.0,46.964,0.515999972820282,-2.4767659254742145
47.017241,,0.0,47.435,0.5170000195503235,-2.474629212047455
47.482759,,0.0,47.901,0.5270000100135803,-2.4528553693440633
47.948276,,0.0,48.366,0.5230000019073486,-2.461552363597499
48.413793,,0.0,48.824,0.5239999890327454,-2.4593262036823655
48.879310000000004,,0.0,49.294,0.5109999775886536,-2.487572784772487
49.344828,,0.0,49.757,0.550000011920929,-2.4025030481343634
49.810345,,0.0,50.22,0.5149999856948853,-2.478629429347485
50.275862,,0.0,50.69,0.5090000033378601,-2.491555238344958
50.741379,,0.0,51.154,0.5210000276565552,-2.465250677856396
51.206897,,0.0,51.616,0.503000020980835,-2.504295761461581
51.672414,,0.0,52.082,0.5199999809265137,-2.4670834918889155
52.137931,,0.0,52.545,0.44999998807907104,-2.6194151158652796
52.603448,,0.0,53.011,0.5059999823570251,-2.497244859349816
53.068966,,0.0,53.476,0.5339999794960022,-2.4360881964309966
53.534483,,0.0,53.942,0.5379999876022339,-2.4272328179276097
54.0,,0.0,54.406,0.527999997138977,-2.4488958768153855
54.465517,,0.0,54.872,0.5189999938011169,-2.4684017926674393
54.931034,,0.0,55.339,0.5059999823570251,-2.4966476412336056
55.396552,,0.0,55.805,0.5090000033378601,-2.4900632967471514
55.862069,,0.0,56.268,0.5019999742507935,-2.505295597269218
56.327586,,0.0,56.731,0.515999972820282,-2.474806811225619
56.793102999999995,,0.0,57.199,0.5130000114440918,-2.481384952627994
57.258621000000005,,0.0,57.661,0.503000020980835,-2.5032425351485506
57.724138,,0.0,58.124,0.5910000205039978,-2.3116180966864666
58.189655,,0.0,58.594,0.5249999761581421,-2.4555266912503204
58.655172,,0.0,59.06,0.5040000081062317,-2.501414775470792
59.120689999999996,,0.0,59.524,0.503000020980835,-2.5037470102571993
59.586207,,0.0,59.989,0.5,-2.510449851579834
60.051724,,0.0,60.453,0.5210000276565552,-2.4648731920348106
60.517241,,0.0,60.919,0.5019999742507935,-2.506445416141537
60.982758999999994,,0.0,61.383,0.5170000195503235,-2.473940929085575
61.448276,,0.0,61.849,0.5109999775886536,-2.487180582602382
61.913793,,0.0,62.313,0.5090000033378601,-2.491692807417095
62.379310000000004,,0.0,62.779,0.515999972820282,-2.4765800363532784
62.84482800000001,,0.0,63.24,0.5009999871253967,-2.509376055149311
63.310345000000005,,0.0,63.709,0.515999972820282,-2.4767878300316446
63.775862000000004,,0.0,64.172,0.5109999775886536,-2.4877446448608698
64.241379,,0.0,64.634,0.5009999871253967,-2.509564795009798
64.706897,,0.0,65.1,0.5139999985694885,-2.4812451012355483
65.172414,,0.0,65.57,0.5009999871253967,-2.509539033698516
65.637931,,0.0,66.036,0.5099999904632568,-2.4898719926152433
66.103448,,0.0,66.495,0.5049999952316284,-2.5006768497105445
66.56896599999999,,0.0,66.961,0.5070000290870667,-2.4962042267479525
67.03448300000001,,0.0,67.427,0.5299999713897705,-2.445956027515237
67.5,,0.0,67.893,0.5210000276565552,-2.46540337408829
67.965517,,0.0,68.358,0.5130000114440918,-2.4826558753774974
68.431034,,0.0,68.824,0.5199999809265137,-2.467217774050896
68.896552,,0.0,69.287,0.5180000066757202,-2.4713819298117654
69.362069,,0.0,69.749,0.5299999713897705,-2.4450451191154507
69.827586,,0.0,70.217,0.6169999837875366,-2.255313276672548
70.293103,,0.0,70.679,0.5249999761581421,-2.4555675354519813
70.75862099999999,,0.0,71.15,0.5170000195503235,-2.472830732689136
71.22413800000001,,0.0,71.612,0.5019999742507935,-2.5053679789510617
71.689655,,0.0,72.078,0.5080000162124634,-2.492182072114735
72.15517200000001,,0.0,72.541,0.5099999904632568,-2.4877434988360014
72.62069,,0.0,73.007,0.5270000100135803,-2.450660076541348
73.086207,,0.0,73.472,0.515999972820282,-2.4746153136487385
73.551724,,0.0,73.938,0.5270000100135803,-2.450677077814383
74.017241,,0.0,74.403,0.5299999713897705,-2.4442045032642508
74.482759,,0.0,74.868,0.531000018119812,-2.442123478191254
74.94827599999999,,0.0,75.335,0.5289999842643738,-2.446610362002617
75.41379300000001,,0.0,75.801,0.5009999871253967,-2.5077708189130155
75.87931,,0.0,76.263,0.5170000195503235,-2.473095677868497
76.344828,,0.0,76.724,0.5130000114440918,-2.482013267704919
76.810345,,0.0,77.195,0.5170000195503235,-2.4735149923239894
77.275862,,0.0,77.657,0.5249999761581421,-2.4563088022478734
77.741379,,0.0,78.12,0.5070000290870667,-2.4957469579291045
78.206897,,0.0,78.59,0.5149999856948853,-2.4785335601230423
78.67241399999999,,0.0,79.056,0.503000020980835,-2.5048795406368143
79.137931,,0.0,79.521,0.527999997138977,-2.4505955299044118
79.603448,,0.0,79.979,0.49300000071525574,-2.527004299634468
80.068966,,0.0,80.446,0.515999972820282,-2.477020551504259
80.53448300000001,,0.0,80.912,0.5260000228881836,-2.4553234063908613
81.0,,0.0,81.376,0.5170000195503235,-2.4749811214248916
81.465517,,0.0,81.842,0.5170000195503235,-2.4749894637664056
81.931034,,0.0,82.306,0.5170000195503235,-2.4749556543783178
82.396552,,0.0,82.775,0.5210000276565552,-2.4661655201213466
82.86206899999999,,0.0,83.235,0.5099999904632568,-2.490015402885351
83.327586,,0.0,83.705,0.5720000267028809,-2.3547861982396747
83.79310299999999,,0.0,84.168,0.5170000195503235,-2.4744247836744093
84.258621,,0.0,84.631,0.5170000195503235,-2.474209809396639
84.72413800000001,,0.0,85.096,0.503000020980835,-2.5044758730213186
85.189655,,0.0,85.559,0.5070000290870667,-2.495513828175104
85.65517200000001,,0.0,86.025,0.5070000290870667,-2.495261739765103
86.12069,,0.0,86.491,0.5239999890327454,-2.4579754915754135
86.586207,,0.0,86.957,0.5370000004768372,-2.4294134641702803
87.051724,,0.0,87.424,0.5130000114440918,-2.4814784549248428
87.517241,,0.0,87.89,0.48899999260902405,-2.533568790908611
87.98275899999999,,0.0,88.351,0.492000013589859,-2.526868535314674
88.448276,,0.0,88.816,0.5019999742507935,-2.5049564817095193
88.913793,,0.0,89.279,0.4970000088214874,-2.5157665220829597
89.37931,,0.0,89.749,0.5120000243186951,-2.483048767078931
89.844828,,0.0,90.213,0.527999997138977,-2.4481983414452744
90.310345,,0.0,90.676,0.5070000290870667,-2.49400329350742
90.775862,,0.0,91.143,0.5080000162124634,-2.491922693369907
91.241379,,0.0,91.605,0.5040000081062317,-2.5007776744739023
91.706897,,0.0,92.071,0.527999997138977,-2.448668443701996
92.17241399999999,,0.0,92.534,0.5170000195503235,-2.472843926377728
92.63793100000001,,0.0,93.0,0.5120000243186951,-2.4839733676904885
93.103448,,0.0,93.465,0.531000018119812,-2.4428339653675097
93.568966,,0.0,93.931,0.43799999356269836,-2.6457153891497853
94.03448300000001,,0.0,94.398,0.515999972820282,-2.476053299372781
94.5,,0.0,94.863,0.515999972820282,-2.4763216241680466
94.965517,,0.0,95.328,0.5120000243186951,-2.485290386524113
95.431034,,0.0,95.793,0.5210000276565552,-2.465914647330837
95.896552,,0.0,96.254,0.5210000276565552,-2.4661168756244316
96.36206899999999,,0.0,96.724,0.503000020980835,-2.505498533837999
96.827586,,0.0,97.187,0.5199999809265137,-2.468586170217954
97.293103,,0.0,97.649,0.5130000114440918,-2.4839154987829324
97.758621,,0.0,98.117,0.5360000133514404,-2.433836403590013
98.224138,,0.0,98.58,0.4970000088214874,-2.518783312477189
98.689655,,0.0,99.046,0.5210000276565552,-2.4664259136637003
99.155172,,0.0,99.513,0.5120000243186951,-2.4859165102641954
99.62069,,0.0,99.979,0.5379999876022339,-2.429109756868959
100.086207,,0.0,100.443,0.527999997138977,-2.4506937733400678
100.551724,,0.0,100.909,0.5189999938011169,-2.470064868200526
101.017241,,0.0,101.376,0.5289999842643738,-2.448014964899426
101.482759,,0.0,101.834,0.5040000081062317,-2.5021994841394632
101.948276,,0.0,102.302,0.4880000054836273,-2.536767849144309
102.413793,,0.0,102.765,0.5210000276565552,-2.464583530118215
102.87931,,0.0,103.235,0.5249999761581421,-2.4555894552467277
103.344828,,0.0,103.698,0.5090000033378601,-2.4901858158860817
103.810345,,0.0,104.161,0.531000018119812,-2.442019601755836
104.275862,,0.0,104.624,0.5130000114440918,-2.4810328532107553
104.741379,,0.0,105.089,0.5149999856948853,-2.476513401748471
105.206897,,0.0,105.559,0.5189999938011169,-2.467682346761817
105.672414,,0.0,106.025,0.5090000033378601,-2.4894020770776732
106.13793100000001,,0.0,106.484,0.515999972820282,-2.474137111780189
106.603448,,0.0,106.949,0.5080000162124634,-2.4916048030268256
107.068966,,0.0,107.416,0.5720000267028809,-2.352260950856251
107.534483,,0.0,107.882,0.4970000088214874,-2.515797181191756
108.0,,0.0,108.346,0.5049999952316284,-2.498550762285759
108.46551699999999,,0.0,108.812,0.4880000054836273,-2.5358117581382036
108.931034,,0.0,109.28,0.48899999260902405,-2.533892022011854
109.396552,,0.0,109.742,0.5270000100135803,-2.4513886827483877
109.862069,,0.0,110.21,0.5249999761581421,-2.456047600662831
110.32758600000001,,0.0,110.672,0.5239999890327454,-2.458533861627834
110.793103,,0.0,111.135,0.5040000081062317,-2.5024112976476
111.258621,,0.0,111.605,0.5120000243186951,-2.485274396436483
111.724138,,0.0,112.064,0.5049999952316284,-2.500796061490489
112.189655,,0.0,112.536,0.5170000195503235,-2.474893185714244
112.655172,,0.0,112.994,0.5379999876022339,-2.4293439766940748
113.12069,,0.0,113.461,0.515999972820282,-2.4774308097140483
113.586207,,0.0,113.927,0.5049999952316284,-2.5015020270893276
114.051724,,0.0,114.395,0.5239999890327454,-2.4601602851745477
114.51724100000001,,0.0,114.86,0.5139999985694885,-2.4819435227978883
114.982759,,0.0,115.325,0.5130000114440918,-2.4840629351958965
115.448276,,0.0,115.79,0.515999972820282,-2.4774136253196892
115.913793,,0.0,116.253,0.5049999952316284,-2.5012144323922185
116.37931,,0.0,116.716,0.5009999871253967,-2.5097192520612137
116.84482799999999,,0.0,117.184,0.515999972820282,-2.4767906593553937
117.310345,,0.0,117.646,0.5139999985694885,-2.480867069657256
117.77586199999999,,0.0,118.113,0.5120000243186951,-2.484919999351414
118.241379,,0.0,118.575,0.503000020980835,-2.5042097581131113
118.70689700000001,,0.0,119.041,0.5230000019073486,-2.4603148458524995
119.172414,,0.0,119.509,0.5130000114440918,-2.481785152740854
119.63793100000001,,0.0,119.974,0.5070000290870667,-2.4945567155056128
120.103448,,0.0,120.439,0.5230000019073486,-2.459423590594655
120.568966,,0.0,120.904,0.5379999876022339,-2.4265025895066947
121.034483,,0.0,121.368,0.5170000195503235,-2.4720536871200034
121.5,,0.0,121.834,0.503000020980835,-2.5024024873557758
121.96551699999999,,0.0,122.294,0.5289999842643738,-2.4456591371683722
122.431034,,0.0,122.764,0.5170000195503235,-2.471761018261113
122.896552,,0.0,123.224,0.5170000195503235,-2.47177758043185
123.362069,,0.0,123.694,0.515999972820282,-2.4740314320661003
123.827586,,0.0,124.157,0.49000000953674316,-2.530808455618798
124.293103,,0.0,124.62,0.5149999856948853,-2.476528384561888
124.758621,,0.0,125.085,0.5149999856948853,-2.476762420960356
125.22413800000001,,0.0,125.555,0.503000020980835,-2.5031807903348686
125.68965500000002,,0.0,126.014,0.5199999809265137,-2.466450847906822
126.15517200000001,,0.0,126.48,0.4000000059604645,-2.7282204085037343
126.62069000000001,,0.0,126.946,0.5009999871253967,-2.5085251754339244
127.086207,,0.0,127.413,0.5109999775886536,-2.4870907815433645
127.55172400000001,,0.0,127.879,0.5249999761581421,-2.4569316779676176
128.017241,,0.0,128.339,0.5260000228881836,-2.455072990983012
128.48275900000002,,0.0,128.804,0.5230000019073486,-2.461896455198344
128.948276,,0.0,129.272,0.5109999775886536,-2.4882860786734367
129.413793,,0.0,129.735,0.5070000290870667,-2.497197119962092
129.87931,,0.0,130.203,0.5299999713897705,-2.4472290163553527
130.344828,,0.0,130.665,0.515999972820282,-2.4778096131689242
130.81034499999998,,0.0,131.135,0.5109999775886536,-2.488718488475883
131.275862,,0.0,131.598,0.5080000162124634,-2.495205800485193
131.741379,,0.0,132.063,0.531000018119812,-2.4449851208215527
132.206897,,0.0,132.527,0.5929999947547913,-2.309735281371941
132.67241399999997,,0.0,132.994,0.43799999356269836,-2.647195843820561
133.13793099999998,,0.0,133.458,0.515999972820282,-2.4769851078254175
133.60344800000001,,0.0,133.924,0.5120000243186951,-2.485386101667846
134.06896600000002,,0.0,134.39,0.5099999904632568,-2.489401218870713
134.53448300000002,,0.0,134.849,0.5040000081062317,-2.5021131312939002
135.0,,0.0,135.32,0.503000020980835,-2.5039258144001026
135.465517,,0.0,135.779,0.5130000114440918,-2.481779014567925
135.931034,,0.0,136.247,0.5019999742507935,-2.5054008674236754
136.396552,,0.0,136.716,0.515999972820282,-2.4745843305817723
136.862069,,0.0,137.176,0.5099999904632568,-2.4873786002626996
137.327586,,0.0,137.639,0.5009999871253967,-2.506755844722489
137.793103,,0.0,138.104,0.4959999918937683,-2.517473524436953
138.258621,,0.0,138.575,0.5210000276565552,-2.4628923879430475
138.724138,,0.0,139.041,0.503000020980835,-2.50205735616288
139.189655,,0.0,139.499,0.5090000033378601,-2.4890008058949884
139.655172,,0.0,139.964,0.5120000243186951,-2.4825459751222194
140.12069,,0.0,140.431,0.5049999952316284,-2.4979411756488976
140.586207,,0.0,140.897,0.5130000114440918,-2.4807156706294964
141.05172399999998,,0.0,141.361,0.5170000195503235,-2.4722574218163538
141.51724099999998,,0.0,141.827,0.4749999940395355,-2.564062302242736
141.982759,,0.0,142.295,0.515999972820282,-2.4750757976421447
142.44827600000002,,0.0,142.757,0.503000020980835,-2.5037615779010616
142.913793,,0.0,143.225,0.5049999952316284,-2.4997813515856677
143.37931,,0.0,143.687,0.515999972820282,-2.476194842416392
143.844828,,0.0,144.15,0.5820000171661377,-2.3327703079044686
144.310345,,0.0,144.62,0.46799999475479126,-2.5814783983829064
144.77586200000002,,0.0,145.085,0.5230000019073486,-2.461961439008205
145.241379,,0.0,145.548,0.5109999775886536,-2.4883712228250583
145.706897,,0.0,146.014,0.5059999823570251,-2.499478544589666
146.172414,,0.0,146.48,0.5289999842643738,-2.4495248929269224
146.637931,,0.0,146.945,0.5130000114440918,-2.484474152317912
147.103448,,0.0,147.41,0.49799999594688416,-2.517177897319417
147.568966,,0.0,147.876,0.5149999856948853,-2.4800974961904982
148.034483,,0.0,148.335,0.503000020980835,-2.506131504354135
148.5,,0.0,148.801,0.5170000195503235,-2.4754575215693193
148.965517,,0.0,149.269,0.5249999761581421,-2.457797146886334
149.43103399999998,,0.0,149.731,0.5120000243186951,-2.4858366384988506
149.89655199999999,,0.0,150.194,0.515999972820282,-2.476796798421008
150.362069,,0.0,150.664,0.5130000114440918,-2.4829751183427273
150.82758600000003,,0.0,151.124,0.5049999952316284,-2.5000260283133113
151.293103,,0.0,151.595,0.5170000195503235,-2.4734951349869685
151.758621,,0.0,152.06,0.515999972820282,-2.475290047484524
152.224138,,0.0,152.525,0.46299999952316284,-2.5903907316478563
152.68965500000002,,0.0,152.99,0.5130000114440918,-2.4811194735245263
153.155172,,0.0,153.449,0.550000011920929,-2.400208744439325
153.62069,,0.0,153.915,0.5019999742507935,-2.504529490511862
154.086207,,0.0,154.38,0.515999972820282,-2.473829120691082
154.551724,,0.0,154.845,0.515999972820282,-2.473691893134959
155.017241,,0.0,155.317,0.5230000019073486,-2.458370254989572
155.482759,,0.0,155.775,0.49399998784065247,-2.5215490339621347
155.948276,,0.0,156.243,0.47699999809265137,-2.5586544993644895
156.413793,,0.0,156.705,0.5059999823570251,-2.4956113761537067
156.87931,,0.0,157.169,0.5120000243186951,-2.4827412182614252
157.34482799999998,,0.0,157.639,0.5260000228881836,-2.4524988495756768
157.81034499999998,,0.0,158.104,0.5049999952316284,-2.498557859110632
158.275862,,0.0,158.568,0.5170000195503235,-2.4727606393470305
158.741379,,0.0,159.033,0.5149999856948853,-2.477493080087707
159.20689700000003,,0.0,159.499,0.5120000243186951,-2.484420599288951
159.672414,,0.0,159.964,0.5830000042915344,-2.330131307048782
160.137931,,0.0,160.424,0.574999988079071,-2.347943564270034
160.60344800000001,,0.0,160.89,0.5019999742507935,-2.5073446786061253
161.06896600000002,,0.0,161.357,0.5299999713897705,-2.44667006890524
161.534483,,0.0,161.823,0.5070000290870667,-2.497064923047119
162.0,,0.0,162.291,0.5109999775886536,-2.4885863688850427
162.465517,,0.0,162.753,0.5109999775886536,-2.488765129501553
162.931034,,0.0,163.221,0.5099999904632568,-2.491059692684922
163.396552,,0.0,163.683,0.5130000114440918,-2.4845731295197786
163.862069,,0.0,164.146,0.5040000081062317,-2.5041623341526997
164.327586,,0.0,164.609,0.5009999871253967,-2.5106123874761597
164.793103,,0.0,165.074,0.5120000243186951,-2.4864965057542645
165.258621,,0.0,165.541,0.5070000290870667,-2.4971785808635616
165.72413799999998,,0.0,166.007,0.43799999356269836,-2.6472414001186206
166.189655,,0.0,166.472,0.5070000290870667,-2.496606886554826
166.655172,,0.0,166.937,0.5099999904632568,-2.4897276611954378
167.12069,,0.0,167.402,0.5260000228881836,-2.4544987020226134
167.58620699999997,,0.0,167.868,0.5260000228881836,-2.454111565324831
168.051724,,0.0,168.335,0.4959999918937683,-2.519079333391879
168.517241,,0.0,168.801,0.5139999985694885,-2.4794799425404332
168.98275900000002,,0.0,169.263,0.5149999856948853,-2.476937327490144
169.44827600000002,,0.0,169.725,0.5049999952316284,-2.4983905009148075
169.913793,,0.0,170.195,0.5690000057220459,-2.3586637853331958
170.37931,,0.0,170.657,0.5260000228881836,-2.452100429448203
170.844828,,0.0,171.125,0.5109999775886536,-2.4845914221785317
171.310345,,0.0,171.587,0.5090000033378601,-2.4888237635949513
171.775862,,0.0,172.053,0.5180000066757202,-2.469159369571571
172.241379,,0.0,172.516,0.49900001287460327,-2.5105677085360063
172.706897,,0.0,172.982,0.515999972820282,-2.4736155452961883
173.172414,,0.0,173.45,0.5,-2.508627245868514
173.637931,,0.0,173.915,0.5049999952316284,-2.4979518172002195
174.103448,,0.0,174.38,0.5210000276565552,-2.4633690540284903
174.568966,,0.0,174.846,0.515999972820282,-2.474587218595984
175.034483,,0.0,175.306,0.5419999957084656,-2.418305858474727
175.5,,0.0,175.775,0.503000020980835,-2.503664359202122
175.96551699999998,,0.0,176.236,0.5109999775886536,-2.4866431436031116
176.43103399999998,,0.0,176.705,0.5270000100135803,-2.452196936029085
176.896552,,0.0,177.168,0.49799999594688416,-2.515781591028098
177.36206900000002,,0.0,177.631,0.5049999952316284,-2.500914619449084
177.827586,,0.0,178.097,0.5049999952316284,-2.5012663578186283
178.293103,,0.0,178.56,0.515999972820282,-2.4776098328442067
178.758621,,0.0,179.026,0.527999997138977,-2.4517210008302928
179.224138,,0.0,179.491,0.503000020980835,-2.506380294380227
179.68965500000002,,0.0,179.957,0.5120000243186951,-2.486897915340232
180.155172,,0.0,180.424,0.503000020980835,-2.506559644571024
180.62069,,0.0,180.89,0.5109999775886536,-2.489110765507795
181.086207,,0.0,181.35,0.5130000114440918,-2.4846599416938604
181.551724,,0.0,181.816,0.48500001430511475,-2.545497701854481
182.01724099999998,,0.0,182.284,0.5070000290870667,-2.4973372031971603
182.482759,,0.0,182.746,0.5109999775886536,-2.4883330012916742
182.948276,,0.0,183.209,0.5059999823570251,-2.498884980808369
183.413793,,0.0,183.679,0.5170000195503235,-2.474536963824024
183.87931,,0.0,184.139,0.503000020980835,-2.5046250973560724
184.34482799999998,,0.0,184.609,0.503000020980835,-2.5041947427442306
184.81034499999998,,0.0,185.074,0.5170000195503235,-2.473258949711782
185.27586200000002,,0.0,185.541,0.49799999594688416,-2.514227374594101
185.74137900000002,,0.0,185.999,0.5120000243186951,-2.48332227839437
186.206897,,0.0,186.465,0.42100000381469727,-2.6812114980577353
186.672414,,0.0,186.931,0.4970000088214874,-2.515315415970971
187.137931,,0.0,187.398,0.5059999823570251,-2.4954466635992127
187.60344800000001,,0.0,187.864,0.5049999952316284,-2.4974284793736756
188.06896600000002,,0.0,188.328,0.5239999890327454,-2.4559072572443243
188.534483,,0.0,188.793,0.5009999871253967,-2.505963095155115
189.0,,0.0,189.254,0.5059999823570251,-2.4950929384145515
189.465517,,0.0,189.723,0.5049999952316284,-2.4973707569462666
189.931034,,0.0,190.187,0.503000020980835,-2.501900671018596
190.39655199999999,,0.0,190.649,0.4970000088214874,-2.5152140826576415
190.862069,,0.0,191.12,0.515999972820282,-2.4741230656158755
191.327586,,0.0,191.583,0.5049999952316284,-2.498443875744938
191.793103,,0.0,192.049,0.5099999904632568,-2.4879482920008287
192.25862099999998,,0.0,192.513,0.503000020980835,-2.503626688660592
192.72413799999998,,0.0,192.979,0.5370000004768372,-2.429997589841007
193.189655,,0.0,193.439,0.5109999775886536,-2.487090461004174
193.655172,,0.0,193.905,0.5059999823570251,-2.4984216072061525
194.12069000000002,,0.0,194.369,0.5009999871253967,-2.509730274133522
194.586207,,0.0,194.835,0.5059999823570251,-2.499217572043556
195.051724,,0.0,195.305,0.5009999871253967,-2.5104448183667865
195.517241,,0.0,195.767,0.503000020980835,-2.5063646972047757
195.98275900000002,,0.0,196.235,0.5040000081062317,-2.5043979223713824
196.448276,,0.0,196.698,0.515999972820282,-2.4783936226594583
196.913793,,0.0,197.161,0.5130000114440918,-2.4849914769267523
197.37931,,0.0,197.624,0.5789999961853027,-2.34118162679198
197.844828,,0.0,198.089,0.5070000290870667,-2.4979434062013532
198.310345,,0.0,198.559,0.5070000290870667,-2.497764887254587
198.775862,,0.0,199.024,0.515999972820282,-2.4779073683173856
199.241379,,0.0,199.484,0.5070000290870667,-2.4972011829202807
199.706897,,0.0,199.95,0.5049999952316284,-2.5011900502708193
200.172414,,0.0,200.417,0.503000020980835,-2.5051354482981596
200.63793099999998,,0.0,200.883,0.5070000290870667,-2.495977999640123
201.103448,,0.0,201.351,0.5149999856948853,-2.478088090989076
201.568966,,0.0,201.809,0.49900001287460327,-2.5124814176282606
202.034483,,0.0,202.279,0.4909999966621399,-2.5294560761778637
202.5,,0.0,202.742,0.5090000033378601,-2.489810235423659
202.965517,,0.0,203.209,0.5249999761581421,-2.454558396300742
203.431034,,0.0,203.672,0.5040000081062317,-2.4999644951123545
203.896552,,0.0,204.135,0.5090000033378601,-2.488784794028031
204.36206900000002,,0.0,204.605,0.49399998784065247,-2.5212464108456363
204.827586,,0.0,205.07,0.515999972820282,-2.4731731549940763
205.293103,,0.0,205.534,0.4970000088214874,-2.5145039003916034
205.758621,,0.0,206.0,0.5090000033378601,-2.488378321694134
206.224138,,0.0,206.459,0.5339999794960022,-2.4340111766319583
206.689655,,0.0,206.925,0.4659999907016754,-2.582336535158383
207.155172,,0.0,207.391,0.4970000088214874,-2.515050193989801
207.62069,,0.0,207.857,0.492000013589859,-2.526262643943101
208.086207,,0.0,208.324,0.5009999871253967,-2.507031398756296
208.551724,,0.0,208.79,0.515999972820282,-2.4747737497909497
209.01724099999998,,0.0,209.25,0.5040000081062317,-2.5013718387679185
209.482759,,0.0,209.72,0.5249999761581421,-2.4560930441680484
209.948276,,0.0,210.183,0.49900001287460327,-2.513214662484701
210.413793,,0.0,210.646,0.5260000228881836,-2.4548576414695003
210.87930999999998,,0.0,211.117,0.5199999809265137,-2.4683713410212214
211.344828,,0.0,211.579,0.515999972820282,-2.4774892696149675
211.810345,,0.0,212.045,0.5730000138282776,-2.353658071664923
212.27586200000002,,0.0,212.509,0.503000020980835,-2.5064526023241998
212.741379,,0.0,212.975,0.5329999923706055,-2.441311786270142
213.206897,,0.0,213.439,0.49000000953674316,-2.53513620752151
213.672414,,0.0,213.904,0.5109999775886536,-2.4894475163530974
214.137931,,0.0,214.369,0.5130000114440918,-2.4850714353360375
214.60344800000001,,0.0,214.835,0.46799999475479126,-2.5830113007361635
215.068966,,0.0,215.298,0.5270000100135803,-2.4542943584492694
215.534483,,0.0,215.76,0.5239999890327454,-2.4605804152686437
216.0,,0.0,216.228,0.5149999856948853,-2.4798715639931435
216.465517,,0.0,216.69,0.4970000088214874,-2.5187138784474055
216.93103399999998,,0.0,217.158,0.49399998784065247,-2.5248319502631182
217.39655199999999,,0.0,217.62,0.5009999871253967,-2.5091316477751513
217.862069,,0.0,218.086,0.5180000066757202,-2.4716258259198836
218.327586,,0.0,218.556,0.492000013589859,-2.527796629743348
218.793103,,0.0,219.014,0.4970000088214874,-2.51643868607843
219.25862099999998,,0.0,219.479,0.4950000047683716,-2.5203548039531687
219.724138,,0.0,219.945,0.5170000195503235,-2.47201950320233
220.18965500000002,,0.0,220.409,0.5009999871253967,-2.5065207325358076
220.65517200000002,,0.0,220.875,0.5090000033378601,-2.4887926996773566
221.12069,,0.0,221.339,0.49300000071525574,-2.5234199224213634
221.586207,,0.0,221.805,0.5049999952316284,-2.4971197322000176
222.051724,,0.0,222.272,0.5099999904632568,-2.4861492793721114
222.517241,,0.0,222.734,0.4959999918937683,-2.516654520470088
222.98275900000002,,0.0,223.203,0.49900001287460327,-2.5102043421883833
223.448276,,0.0,223.665,0.5199999809265137,-2.4646174934592118
223.913793,,0.0,224.135,0.503000020980835,-2.501892675623902
224.37931,,0.0,224.598,0.5239999890327454,-2.456445680167994
224.844828,,0.0,225.063,0.503000020980835,-2.5025590912006854
225.31034499999998,,0.0,225.528,0.5139999985694885,-2.4790026406149837
225.775862,,0.0,225.993,0.503000020980835,-2.5034113068202544
226.241379,,0.0,226.457,0.5019999742507935,-2.5060556961910216
226.706897,,0.0,226.922,0.503000020980835,-2.504351114248995
227.172414,,0.0,227.387,0.5,-2.5113558108366765
227.63793099999998,,0.0,227.852,0.49799999594688416,-2.51616258768316
228.103448,,0.0,228.319,0.4300000071525574,-2.6647289861956667
228.56896600000002,,0.0,228.784,0.5049999952316284,-2.501706063741527
229.03448300000002,,0.0,229.246,0.5049999952316284,-2.5020263896038384
229.5,,0.0,229.709,0.5120000243186951,-2.487029388144435
229.965517,,0.0,230.179,0.4819999933242798,-2.552568325209591
230.431034,,0.0,230.642,0.5130000114440918,-2.4851301545175786
230.896552,,0.0,231.108,0.5070000290870667,-2.498218880355494
231.362069,,0.0,231.574,0.49300000071525574,-2.5286529200030787
231.827586,,0.0,232.04,0.5180000066757202,-2.4740375112246333
232.293103,,0.0,232.505,0.5299999713897705,-2.4476659084688706
232.758621,,0.0,232.964,0.4970000088214874,-2.519260966394639
233.224138,,0.0,233.436,0.5109999775886536,-2.488396862361886
233.689655,,0.0,233.894,0.4909999966621399,-2.5315551668095013
234.155172,,0.0,234.361,0.5019999742507935,-2.5071365084616852
234.62069,,0.0,234.827,0.5009999871253967,-2.5088361581772474
235.086207,,0.0,235.294,0.5210000276565552,-2.464772494445848
235.55172399999998,,0.0,235.756,0.5080000162124634,-2.492606985412705
236.01724099999998,,0.0,236.224,0.4959999918937683,-2.5182805099075707
236.482759,,0.0,236.686,0.5049999952316284,-2.498234738489579
236.94827600000002,,0.0,237.154,0.503000020980835,-2.502199662866158
237.413793,,0.0,237.617,0.5120000243186951,-2.482256775761717
237.87931,,0.0,238.083,0.44699999690055847,-2.623602446418866
238.344828,,0.0,238.546,0.49799999594688416,-2.512302696084177
238.810345,,0.0,239.012,0.5009999871253967,-2.5056611367776807
239.27586200000002,,0.0,239.477,0.4950000047683716,-2.5187127096637143
239.741379,,0.0,239.942,0.5090000033378601,-2.488277315048008
240.206897,,0.0,240.409,0.5,-2.5080347283516167
240.672414,,0.0,240.874,0.5049999952316284,-2.4973705290475796
241.137931,,0.0,241.339,0.5049999952316284,-2.4976722533288465
241.603448,,0.0,241.805,0.5130000114440918,-2.4806082390909823
242.068966,,0.0,242.268,0.5170000195503235,-2.4723110950315434
242.534483,,0.0,242.731,0.5210000276565552,-2.464053409093855
243.0,,0.0,243.194,0.5040000081062317,-2.50157337366836
243.465517,,0.0,243.664,0.5009999871253967,-2.508604455855497
243.93103399999998,,0.0,244.124,0.5040000081062317,-2.5025613764252785
244.39655199999999,,0.0,244.594,0.49399998784065247,-2.5248240631352648
244.862069,,0.0,245.06,0.503000020980835,-2.5056614263566015
245.327586,,0.0,245.525,0.5149999856948853,-2.479918369062822
245.793103,,0.0,245.99,0.48399999737739563,-2.5478003937280675
246.258621,,0.0,246.45,0.5019999742507935,-2.508862140682627
246.724138,,0.0,246.915,0.515999972820282,-2.4785630846335027
247.18965500000002,,0.0,247.38,0.5090000033378601,-2.4939332819391007
247.655172,,0.0,247.846,0.503000020980835,-2.507038890454334
248.12069,,0.0,248.313,0.5090000033378601,-2.493913865762373
248.586207,,0.0,248.779,0.515999972820282,-2.478524465369944
249.051724,,0.0,249.239,0.5080000162124634,-2.4957326510582765
249.517241,,0.0,249.709,0.4830000102519989,-2.5499030901425543
249.982759,,0.0,250.172,0.503000020980835,-2.505968813080817
250.44827600000002,,0.0,250.635,0.5090000033378601,-2.4924805027396095
250.913793,,0.0,251.101,0.5019999742507935,-2.5072713403049867
251.37931000000003,,0.0,251.564,0.5130000114440918,-2.482816633984305
251.844828,,0.0,252.029,0.5009999871253967,-2.508455809851239
252.31034499999998,,0.0,252.494,0.4970000088214874,-2.516665903832858
252.77586200000002,,0.0,252.96,0.5070000290870667,-2.4943904155505754
253.241379,,0.0,253.425,0.515999972820282,-2.4743234490933617
253.706897,,0.0,253.89,0.5009999871253967,-2.5065871940835223
254.172414,,0.0,254.357,0.49900001287460327,-2.510584757995694
254.63793099999998,,0.0,254.823,0.5009999871253967,-2.5059353556271047
255.10344800000001,,0.0,255.291,0.503000020980835,-2.5013621804334045
255.56896600000002,,0.0,255.753,0.5139999985694885,-2.4772639664203693
256.03448299999997,,0.0,256.217,0.5080000162124634,-2.4902892337371503
256.5,,0.0,256.679,0.5090000033378601,-2.4881521728055103
256.965517,,0.0,257.15,0.5180000066757202,-2.4686729353242027
257.431034,,0.0,257.612,0.503000020980835,-2.5015646354444026
257.896552,,0.0,258.078,0.5130000114440918,-2.4800676530146295
258.362069,,0.0,258.542,0.5120000243186951,-2.4826047679427226
258.827586,,0.0,259.007,0.5009999871253967,-2.506987046876336
259.29310300000003,,0.0,259.472,0.5139999985694885,-2.4791281114066437
259.758621,,0.0,259.938,0.5199999809265137,-2.4665521610517973
260.224138,,0.0,260.403,0.503000020980835,-2.5041025398540744
260.689655,,0.0,260.868,0.492000013589859,-2.528584113788904
261.155172,,0.0,261.335,0.4869999885559082,-2.5399822272571626
261.62068999999997,,0.0,261.801,0.48399999737739563,-2.5469966614291595
262.086207,,0.0,262.261,0.4259999990463257,-2.673797333875393
262.551724,,0.0,262.724,0.515999972820282,-2.4781056146466907
263.017241,,0.0,263.194,0.5320000052452087,-2.4435668734484377
263.482759,,0.0,263.657,0.4950000047683716,-2.524418041898277
263.94827599999996,,0.0,264.12,0.4950000047683716,-2.5245740110824246
264.413793,,0.0,264.59,0.5239999890327454,-2.4614590145917887
264.87931,,0.0,265.049,0.5120000243186951,-2.4875750521742663
265.34482799999995,,0.0,265.516,0.4970000088214874,-2.5201342585911215
265.810345,,0.0,265.982,0.5210000276565552,-2.4676367453049477
266.27586199999996,,0.0,266.446,0.5040000081062317,-2.5043802674245375
266.741379,,0.0,266.911,0.515999972820282,-2.477867824945965
267.206897,,0.0,267.376,0.4970000088214874,-2.518829272106266
267.672414,,0.0,267.842,0.515999972820282,-2.4769511197120835
268.137931,,0.0,268.305,0.5180000066757202,-2.4720728508738743
268.603448,,0.0,268.775,0.503000020980835,-2.5042101887100094
269.06896600000005,,0.0,269.236,0.503000020980835,-2.503663285556457
269.53448299999997,,0.0,269.706,0.5070000290870667,-2.4944140682476603
270.0,,0.0,270.169,0.5180000066757202,-2.4699426420220094
270.465517,,0.0,270.631,0.5170000195503235,-2.471658273923186
270.931034,,0.0,271.096,0.5,-2.5082901685803978
271.396552,,0.0,271.566,0.5170000195503235,-2.4709186739485256
271.86206899999996,,0.0,272.024,0.49399998784065247,-2.5207746777091273
272.327586,,0.0,272.491,0.5080000162124634,-2.490110328094276
272.793103,,0.0,272.956,0.4790000021457672,-2.5532236284374337
273.258621,,0.0,273.42,0.49900001287460327,-2.509681629841835
273.724138,,0.0,273.886,0.4880000054836273,-2.5337758152696055
274.18965499999996,,0.0,274.35,0.4959999918937683,-2.5165700104062165
274.655172,,0.0,274.816,0.5239999890327454,-2.455878418857474
275.12069,,0.0,275.279,0.503000020980835,-2.50201779419619
275.586207,,0.0,275.749,0.5130000114440918,-2.480684874225992
276.051724,,0.0,276.213,0.4909999966621399,-2.529121312038706
276.517241,,0.0,276.675,0.5049999952316284,-2.499164039119845
276.98275900000004,,0.0,277.143,0.5070000290870667,-2.49537155132116
277.448276,,0.0,277.605,0.5130000114440918,-2.4828680212944967
277.913793,,0.0,278.071,0.5289999842643738,-2.448563560544969
278.37931,,0.0,278.534,0.503000020980835,-2.5057306050883965
278.844828,,0.0,279.0,0.49000000953674316,-2.5345285968407367
279.31034500000004,,0.0,279.464,0.5070000290870667,-2.497906338240682
279.77586199999996,,0.0,279.93,0.5149999856948853,-2.480817950315177
280.241379,,0.0,280.395,0.5040000081062317,-2.505038580408551
280.706897,,0.0,280.861,0.48899999260902405,-2.537881168856056
281.172414,,0.0,281.328,0.5040000081062317,-2.5052666775235743
281.637931,,0.0,281.794,0.503000020980835,-2.5074104159496886
282.10344799999996,,0.0,282.254,0.5070000290870667,-2.4985611010706483
282.568966,,0.0,282.724,0.5170000195503235,-2.476543500409482
283.034483,,0.0,283.187,0.5120000243186951,-2.487115491278318
283.5,,0.0,283.649,0.5230000019073486,-2.462748291734786
283.965517,,0.0,284.12,0.503000020980835,-2.505850308257769
284.431034,,0.0,284.583,0.492000013589859,-2.529290617964654
284.89655200000004,,0.0,285.049,0.5669999718666077,-2.3653284809290214
285.362069,,0.0,285.514,0.5130000114440918,-2.482388752458294
285.827586,,0.0,285.979,0.5070000290870667,-2.4948694102349043
286.293103,,0.0,286.439,0.5070000290870667,-2.494293126431485
286.758621,,0.0,286.904,0.503000020980835,-2.502464350490313
287.22413800000004,,0.0,287.369,0.5080000162124634,-2.4910775128726477
287.689655,,0.0,287.834,0.5019999742507935,-2.5037210496367384
288.155172,,0.0,288.302,0.5090000033378601,-2.488120552154421
288.62069,,0.0,288.765,0.5130000114440918,-2.4791454207506876
289.086207,,0.0,289.235,0.49000000953674316,-2.5290916911964563
289.55172400000004,,0.0,289.698,0.4950000047683716,-2.518139676781704
290.01724099999996,,0.0,290.161,0.5139999985694885,-2.4767925002146893
290.482759,,0.0,290.624,0.5070000290870667,-2.4921942567078634
290.948276,,0.0,291.089,0.49900001287460327,-2.5098746300446124
291.413793,,0.0,291.559,0.5009999871253967,-2.505861382382183
291.87931,,0.0,292.024,0.503000020980835,-2.501930596159816
292.344828,,0.0,292.484,0.5170000195503235,-2.471925433279014
292.81034500000004,,0.0,292.95,0.5009999871253967,-2.5073338369677187
293.275862,,0.0,293.417,0.4690000116825104,-2.577638703084281
293.74137900000005,,0.0,293.883,0.5040000081062317,-2.5019951658146087
294.206897,,0.0,294.347,0.503000020980835,-2.5047845571000598
294.672414,,0.0,294.813,0.5040000081062317,-2.503198781162077
295.13793100000004,,0.0,295.276,0.48100000619888306,-2.5538646572423667
295.603448,,0.0,295.746,0.5149999856948853,-2.4802945119940034
296.068966,,0.0,296.209,0.5199999809265137,-2.4698353823469157
296.534483,,0.0,296.672,0.5379999876022339,-2.430969178609502
297.0,,0.0,297.135,0.5189999938011169,-2.472616919608626
297.46551700000003,,0.0,297.605,0.5149999856948853,-2.4814812544506064
297.931034,,0.0,298.071,0.4959999918937683,-2.5229176070001134
298.396552,,0.0,298.534,0.492000013589859,-2.5315658300029282
298.862069,,0.0,299.0,0.5009999871253967,-2.511785495838347
299.327586,,0.0,299.464,0.5109999775886536,-2.489724862012791
299.79310300000003,,0.0,299.93,0.5130000114440918,-2.4849993280252036
300.258621,,0.0,300.394,0.5009999871253967,-2.510692092445108
300.724138,,0.0,300.86,0.5210000276565552,-2.4665987729475716
301.189655,,0.0,301.324,0.4819999933242798,-2.5509928484411035
301.65517200000005,,0.0,301.79,0.5210000276565552,-2.4654169819547787
302.12069,,0.0,302.25,0.49300000071525574,-2.525794076811968
302.586207,,0.0,302.72,0.5260000228881836,-2.453275735896822
303.05172400000004,,0.0,303.183,0.46399998664855957,-2.5877511507227218
303.517241,,0.0,303.646,0.5049999952316284,-2.497867072574929
303.982759,,0.0,304.117,0.515999972820282,-2.4734007629107797
304.448276,,0.0,304.579,0.5080000162124634,-2.490401401522808
304.913793,,0.0,305.045,0.5260000228881836,-2.4508431239661435
305.37931000000003,,0.0,305.509,0.4880000054836273,-2.533386107688131
305.844828,,0.0,305.975,0.5009999871253967,-2.5049235145391733
306.310345,,0.0,306.439,0.49300000071525574,-2.5223229920613477
306.775862,,0.0,306.904,0.5040000081062317,-2.4984396924006615
307.241379,,0.0,307.369,0.5009999871253967,-2.505166621932748
307.70689699999997,,0.0,307.835,0.4819999933242798,-2.546855582223407
308.172414,,0.0,308.298,0.492000013589859,-2.525459101942188
308.637931,,0.0,308.76,0.5099999904632568,-2.4867167293625707
309.103448,,0.0,309.228,0.5009999871253967,-2.5068658908233767
309.568966,,0.0,309.69,0.48399999737739563,-2.5444959830172658
310.034483,,0.0,310.154,0.5099999904632568,-2.4884780408339644
310.5,,0.0,310.624,0.503000020980835,-2.504369428543613
310.96551700000003,,0.0,311.09,0.5049999952316284,-2.5006470133345324
311.431034,,0.0,311.552,0.4860000014305115,-2.5426508386605318
311.896552,,0.0,312.018,0.5170000195503235,-2.4756780327384154
312.362069,,0.0,312.483,0.515999972820282,-2.4783596238552494
312.827586,,0.0,312.948,0.4970000088214874,-2.5201783354135032
313.29310300000003,,0.0,313.415,0.4959999918937683,-2.5226905706365206
313.758621,,0.0,313.881,0.5049999952316284,-2.5033151043087876
314.224138,,0.0,314.339,0.5270000100135803,-2.455507894889891
314.689655,,0.0,314.805,0.49900001287460327,-2.5165194194017935
315.155172,,0.0,315.276,0.5139999985694885,-2.4837351894711626
315.62068999999997,,0.0,315.738,0.503000020980835,-2.5074851114389536
316.086207,,0.0,316.206,0.4959999918937683,-2.5224166539265735
316.551724,,0.0,316.668,0.515999972820282,-2.478430558593284
317.017241,,0.0,317.131,0.5199999809265137,-2.469220651616912
317.482759,,0.0,317.594,0.5139999985694885,-2.4817298795072613
317.94827599999996,,0.0,318.059,0.5130000114440918,-2.483296052159303
318.413793,,0.0,318.524,0.5239999890327454,-2.4586875761874176
318.87931000000003,,0.0,318.99,0.5180000066757202,-2.4711047859645237
319.344828,,0.0,319.457,0.5120000243186951,-2.4835312212740352
319.810345,,0.0,319.922,0.515999972820282,-2.4742009288555162
320.275862,,0.0,320.388,0.5109999775886536,-2.4845272799702376
320.741379,,0.0,320.853,0.5019999742507935,-2.5036352223515665
321.20689699999997,,0.0,321.318,0.515999972820282,-2.4727170939704393
321.672414,,0.0,321.783,0.4860000014305115,-2.5377557023766366
322.137931,,0.0,322.246,0.49000000953674316,-2.52882748101071
322.603448,,0.0,322.709,0.49900001287460327,-2.5091202922299725
323.068966,,0.0,323.18,0.503000020980835,-2.500423362393595
323.53448299999997,,0.0,323.642,0.5210000276565552,-2.4613412941054484
324.0,,0.0,324.108,0.503000020980835,-2.5008021291376563
324.465517,,0.0,324.574,0.503000020980835,-2.501151598510034
324.931034,,0.0,325.039,0.515999972820282,-2.473272401622408
325.396552,,0.0,325.499,0.5009999871253967,-2.5064750194527328
325.86206899999996,,0.0,325.965,0.6039999723434448,-2.2826590708513406
326.327586,,0.0,326.432,0.503000020980835,-2.503329644232873
326.793103,,0.0,326.897,0.4569999873638153,-2.60420028444087
327.258621,,0.0,327.362,0.515999972820282,-2.4763206761983563
327.724138,,0.0,327.828,0.5669999718666077,-2.3658554309320845
328.189655,,0.0,328.291,0.49900001287460327,-2.514612780688786
328.655172,,0.0,328.76,0.5070000290870667,-2.4977388281928645
329.12068999999997,,0.0,329.224,0.5109999775886536,-2.4895092809317934
329.586207,,0.0,329.686,0.5109999775886536,-2.489908496548992
330.051724,,0.0,330.15,0.5299999713897705,-2.448814777528861
330.517241,,0.0,330.62,0.5130000114440918,-2.4860439013895537
330.982759,,0.0,331.086,0.4909999966621399,-2.534052583260172
331.44827599999996,,0.0,331.548,0.4950000047683716,-2.5253010267604146
331.913793,,0.0,332.014,0.5049999952316284,-2.5033633396678794
332.37931,,0.0,332.479,0.5189999938011169,-2.4726005108763873
332.844828,,0.0,332.945,0.5189999938011169,-2.4722353951176976
333.310345,,0.0,333.41,0.515999972820282,-2.4783137719655044
333.77586199999996,,0.0,333.869,0.5019999742507935,-2.508279083096568
334.241379,,0.0,334.336,0.49799999594688416,-2.5163967643524425
334.706897,,0.0,334.801,0.5130000114440918,-2.4830774743670045
335.17241399999995,,0.0,335.265,0.5130000114440918,-2.4824144680349467
335.637931,,0.0,335.734,0.515999972820282,-2.4752121777417786
336.103448,,0.0,336.195,0.515999972820282,-2.4745627745513676
336.56896600000005,,0.0,336.664,0.4659999907016754,-2.5828837752537286
337.034483,,0.0,337.128,0.492000013589859,-2.5256857161670965
337.5,,0.0,337.59,0.5130000114440918,-2.479455936059252
337.965517,,0.0,338.056,0.4959999918937683,-2.5161036848347855
338.431034,,0.0,338.521,0.5210000276565552,-2.4613487136388144
338.89655200000004,,0.0,338.986,0.4970000088214874,-2.5134571667327186
339.36206899999996,,0.0,339.454,0.5120000243186951,-2.480713508831892
339.827586,,0.0,339.919,0.5860000252723694,-2.3195454762809598
340.293103,,0.0,340.383,0.515999972820282,-2.4722158075013883
340.758621,,0.0,340.849,0.5040000081062317,-2.4986337254020667
341.224138,,0.0,341.314,0.5040000081062317,-2.499011016266607
341.68965499999996,,0.0,341.779,0.5249999761581421,-2.453728372550722
342.155172,,0.0,342.243,0.5040000081062317,-2.50002596367206
342.62069,,0.0,342.705,0.4950000047683716,-2.520240980300813
343.086207,,0.0,343.169,0.4950000047683716,-2.520891558749058
343.551724,,0.0,343.638,0.5199999809265137,-2.467099205009443
344.01724099999996,,0.0,344.104,0.5059999823570251,-2.498276036459419
344.48275900000004,,0.0,344.568,0.5299999713897705,-2.4466449818271636
344.948276,,0.0,345.034,0.5249999761581421,-2.458154714445666
345.413793,,0.0,345.499,0.503000020980835,-2.5066425183474124
345.87931,,0.0,345.964,0.5090000033378601,-2.4940529609945097
346.344828,,0.0,346.424,0.5009999871253967,-2.511874527665724
346.81034500000004,,0.0,346.89,0.503000020980835,-2.5078074075947967
347.275862,,0.0,347.355,0.47699999809265137,-2.5646318725005512
347.741379,,0.0,347.82,0.5120000243186951,-2.488442335102252
348.206897,,0.0,348.29,0.49799999594688416,-2.5188875340763306
348.672414,,0.0,348.753,0.5149999856948853,-2.4816762090575772
349.13793100000004,,0.0,349.221,0.515999972820282,-2.4792094423979085
349.60344799999996,,0.0,349.683,0.5180000066757202,-2.4744581293205856
350.068966,,0.0,350.151,0.5189999938011169,-2.4717913863509344
350.534483,,0.0,350.613,0.5090000033378601,-2.4930103469669866
351.0,,0.0,351.078,0.49799999594688416,-2.516346349591746
351.465517,,0.0,351.542,0.515999972820282,-2.4764593131949297
351.93103399999995,,0.0,352.008,0.5059999823570251,-2.497552351364558
352.396552,,0.0,352.472,0.503000020980835,-2.503394080769395
352.862069,,0.0,352.938,0.492000013589859,-2.526686237237805
353.32758600000005,,0.0,353.405,0.4009999930858612,-2.724314392627986
353.793103,,0.0,353.864,0.492000013589859,-2.525493600958993
354.258621,,0.0,354.336,0.5090000033378601,-2.4879735027744125
354.72413800000004,,0.0,354.794,0.5090000033378601,-2.487583480406681
355.189655,,0.0,355.265,0.5180000066757202,-2.46769019787401
355.655172,,0.0,355.727,0.49900001287460327,-2.508912575965982
356.12069,,0.0,356.191,0.4909999966621399,-2.52628950703357
356.586207,,0.0,356.661,0.5189999938011169,-2.4653566531655358
357.05172400000004,,0.0,357.124,0.503000020980835,-2.5004034618749778
357.517241,,0.0,357.587,0.41600000858306885,-2.6902498383527145
357.982759,,0.0,358.052,0.503000020980835,-2.5011194672569927
358.448276,,0.0,358.516,0.4819999933242798,-2.5473779026963697
358.913793,,0.0,358.982,0.5099999904632568,-2.4869603112961562
359.37931000000003,,0.0,359.447,0.515999972820282,-2.474532301763024
359.844828,,0.0,359.912,0.4959999918937683,-2.518788357681458
360.310345,,0.0,360.38,0.5049999952316284,-2.4998825242910483
360.775862,,0.0,360.845,0.5070000290870667,-2.4962246532905565
361.241379,,0.0,361.306,0.5059999823570251,-2.499078805754917
361.706897,,0.0,361.775,0.5009999871253967,-2.5106028010457635
362.172414,,0.0,362.236,0.49900001287460327,-2.51552711703681
362.63793100000004,,0.0,362.706,0.5249999761581421,-2.4593680245695118
363.103448,,0.0,363.168,0.5270000100135803,-2.4553991353539057
363.568966,,0.0,363.631,0.515999972820282,-2.4796433618439657
364.034483,,0.0,364.097,0.47699999809265137,-2.5647727263241533
364.5,,0.0,364.559,0.5130000114440918,-2.486382549832162
364.96551700000003,,0.0,365.025,0.5149999856948853,-2.481943706889346
365.431034,,0.0,365.491,0.5130000114440918,-2.4860982548780646
365.896552,,0.0,365.956,0.5099999904632568,-2.4923167036312073
366.362069,,0.0,366.42,0.49000000953674316,-2.5354674421277617
366.827586,,0.0,366.886,0.49399998784065247,-2.526239614908759
367.29310300000003,,0.0,367.351,0.5170000195503235,-2.475541674075166
367.758621,,0.0,367.816,0.5009999871253967,-2.5097528078501012
368.224138,,0.0,368.279,0.4959999918937683,-2.5199602937394925
368.689655,,0.0,368.749,0.5109999775886536,-2.486577489589425
369.155172,,0.0,369.209,0.49399998784065247,-2.5229153118973158
369.62068999999997,,0.0,369.679,0.4959999918937683,-2.5178843193793017
370.086207,,0.0,370.142,0.5080000162124634,-2.491112820940378
370.55172400000004,,0.0,370.605,0.515999972820282,-2.473120562921348
371.017241,,0.0,371.071,0.5009999871253967,-2.5053185172679315
371.482759,,0.0,371.535,0.49900001287460327,-2.509290557538671
371.948276,,0.0,372.001,0.5149999856948853,-2.47415540221955
372.413793,,0.0,372.465,0.4970000088214874,-2.513210839544484
372.87931000000003,,0.0,372.93,0.5009999871253967,-2.5044579567056906
373.344828,,0.0,373.398,0.5130000114440918,-2.4783988388669695
373.810345,,0.0,373.864,0.4129999876022339,-2.696470427852396
374.275862,,0.0,374.329,0.49799999594688416,-2.5116093780447213
374.741379,,0.0,374.795,0.5130000114440918,-2.4793597667154623
375.20689699999997,,0.0,375.257,0.5009999871253967,-2.5060246317442365
375.672414,,0.0,375.72,0.49799999594688416,-2.513156683526213
376.137931,,0.0,376.188,0.5009999871253967,-2.507273999505546
376.603448,,0.0,376.649,0.4860000014305115,-2.5406442985658724
377.068966,,0.0,377.121,0.5189999938011169,-2.469455580263638
377.53448299999997,,0.0,377.583,0.5230000019073486,-2.4614411051201053
378.0,,0.0,378.048,0.4959999918937683,-2.5209365985318057
378.465517,,0.0,378.514,0.5299999713897705,-2.4474861325037858
378.931034,,0.0,378.979,0.5130000114440918,-2.4850788508508215
379.396552,,0.0,379.439,0.5090000033378601,-2.4942646602023113
379.862069,,0.0,379.905,0.421999990940094,-2.684181646884543
380.327586,,0.0,380.376,0.49900001287460327,-2.5166939370516728
380.79310300000003,,0.0,380.834,0.5659999847412109,-2.3708760205014086
381.258621,,0.0,381.305,0.5009999871253967,-2.512515592437937
381.724138,,0.0,381.768,0.5090000033378601,-2.4949898627300833
382.189655,,0.0,382.231,0.5170000195503235,-2.4773440762107284
382.655172,,0.0,382.694,0.49900001287460327,-2.5162297777643112
383.12068999999997,,0.0,383.165,0.515999972820282,-2.4787597873250418
383.586207,,0.0,383.627,0.4959999918937683,-2.521810060103176
384.051724,,0.0,384.093,0.49799999594688416,-2.516856907877324
384.517241,,0.0,384.556,0.5379999876022339,-2.4290597629928743
384.982759,,0.0,385.022,0.503000020980835,-2.5046249456596787
385.44827599999996,,0.0,385.486,0.49799999594688416,-2.5148162274669192
385.913793,,0.0,385.952,0.5149999856948853,-2.4770846710077965
386.37931,,0.0,386.416,0.5249999761581421,-2.4546316591114468
386.84482799999995,,0.0,386.882,0.5070000290870667,-2.493228728631602
387.310345,,0.0,387.348,0.503000020980835,-2.5013923703832353
387.775862,,0.0,387.814,0.492000013589859,-2.5248916298219855
388.241379,,0.0,388.276,0.550000011920929,-2.3981627820314606
388.70689699999997,,0.0,388.739,0.4950000047683716,-2.5177302762852856
389.172414,,0.0,389.209,0.5170000195503235,-2.46965914014154
389.637931,,0.0,389.671,0.49000000953674316,-2.5284642835913105
390.103448,,0.0,390.135,0.49000000953674316,-2.5285694194745547
390.56896600000005,,0.0,390.605,0.515999972820282,-2.4721500379179653
391.03448299999997,,0.0,391.07,0.48899999260902405,-2.531311767250939
391.5,,0.0,391.534,0.4620000123977661,-2.5905768865186696
391.965517,,0.0,391.999,0.5040000081062317,-2.4996057107045844
392.431034,,0.0,392.466,0.515999972820282,-2.4740667464552484
392.896552,,0.0,392.924,0.49000000953674316,-2.531369481278061
393.36206899999996,,0.0,393.39,0.5130000114440918,-2.4819516307189358
393.827586,,0.0,393.856,0.4830000102519989,-2.5480141791228377
394.293103,,0.0,394.321,0.4970000088214874,-2.518206860669101
394.75862099999995,,0.0,394.787,0.4959999918937683,-2.5210486435616635
395.224138,,0.0,395.25,0.5009999871253967,-2.510767034540477
395.68965499999996,,0.0,395.72,0.503000020980835,-2.506950727192476
396.155172,,0.0,396.183,0.531000018119812,-2.446401671626318
396.62069,,0.0,396.646,0.5189999938011169,-2.472895877793962
397.086207,,0.0,397.117,0.5049999952316284,-2.503634038321468
397.551724,,0.0,397.579,0.5049999952316284,-2.503751395587071
398.017241,,0.0,398.045,0.503000020980835,-2.5081031179963413
398.48275900000004,,0.0,398.509,0.4959999918937683,-2.523225874999366
398.94827599999996,,0.0,398.975,0.5040000081062317,-2.5055507251571156
399.413793,,0.0,399.44,0.49799999594688416,-2.518266343470919
399.87931,,0.0,399.906,0.5130000114440918,-2.4851308123123124
400.344828,,0.0,400.365,0.49799999594688416,-2.517269391097851
400.810345,,0.0,400.831,0.49799999594688416,-2.516659855434012
401.27586199999996,,0.0,401.299,0.5299999713897705,-2.446283837395488
401.741379,,0.0,401.761,0.49000000953674316,-2.5327406389152762
402.206897,,0.0,402.224,0.492000013589859,-2.527686649895855
402.672414,,0.0,402.694,0.5070000290870667,-2.4943245284450337
403.137931,,0.0,403.157,0.515999972820282,-2.47406907926253
403.60344799999996,,0.0,403.62,0.5009999871253967,-2.506155307595814
404.068966,,0.0,404.085,0.5019999742507935,-2.5034561127069934
404.534483,,0.0,404.556,0.4880000054836273,-2.5335259847673606
405.0,,0.0,405.014,0.49399998784065247,-2.52012602004358
405.465517,,0.0,405.48,0.5049999952316284,-2.4959456342707487
405.931034,,0.0,405.946,0.45899999141693115,-2.5960679866113896
406.39655200000004,,0.0,406.413,0.49900001287460327,-2.508949682705822
406.862069,,0.0,406.879,0.515999972820282,-2.472061632996324
407.327586,,0.0,407.339,0.4819999933242798,-2.5464001526381406
407.793103,,0.0,407.804,0.492000013589859,-2.5249860550765275
408.258621,,0.0,408.272,0.5040000081062317,-2.4993109611342863
408.72413800000004,,0.0,408.734,0.49799999594688416,-2.5129325849154736
409.18965499999996,,0.0,409.202,0.49900001287460327,-2.511367417549328
409.655172,,0.0,409.665,0.5049999952316284,-2.4989537407077056
410.12069,,0.0,410.135,0.5049999952316284,-2.4996358821453772
410.586207,,0.0,410.598,0.503000020980835,-2.5046780053494406
411.05172400000004,,0.0,411.063,0.5040000081062317,-2.503165882798473
411.51724099999996,,0.0,411.527,0.49399998784065247,-2.5255801651737535
411.982759,,0.0,411.993,0.492000013589859,-2.530507477450733
412.448276,,0.0,412.457,0.4909999966621399,-2.5331813344662133
412.913793,,0.0,412.923,0.515999972820282,-2.4791198647849604
413.37931,,0.0,413.388,0.4909999966621399,-2.5338874929031445
413.844828,,0.0,413.854,0.48399999737739563,-2.5493276941626464
414.31034500000004,,0.0,414.321,0.4880000054836273,-2.5406859351242868
414.775862,,0.0,414.779,0.5019999742507935,-2.510138615131432
415.241379,,0.0,415.246,0.48399999737739563,-2.5491901326100597
415.706897,,0.0,415.709,0.5139999985694885,-2.483553790608186
416.172414,,0.0,416.179,0.4869999885559082,-2.541996153608023
416.63793100000004,,0.0,416.642,0.5019999742507935,-2.5088430143141136
417.103448,,0.0,417.108,0.49399998784065247,-2.5257213455115624
417.568966,,0.0,417.574,0.4909999966621399,-2.531646233671006
418.034483,,0.0,418.04,0.5009999871253967,-2.5092075426022955
418.5,,0.0,418.506,0.503000020980835,-2.504176613455362
418.96551700000003,,0.0,418.964,0.4959999918937683,-2.5187530319940237
419.43103399999995,,0.0,419.431,0.515999972820282,-2.474525956653119
419.896552,,0.0,419.897,0.4880000054836273,-2.5349141046653534
420.362069,,0.0,420.365,0.4880000054836273,-2.5343599490728206
420.827586,,0.0,420.824,0.49399998784065247,-2.5208112361105393
421.293103,,0.0,421.294,0.4950000047683716,-2.5182474110375095
421.758621,,0.0,421.757,0.4650000035762787,-2.5833256775110187
422.22413800000004,,0.0,422.225,0.49000000953674316,-2.5286913310390418
422.689655,,0.0,422.687,0.49399998784065247,-2.5199263472498727
423.15517200000005,,0.0,423.15,0.492000013589859,-2.5243515839555117
423.62069,,0.0,423.62,0.49799999594688416,-2.5114637094469536
424.086207,,0.0,424.086,0.4259999990463257,-2.668621665126795
424.55172400000004,,0.0,424.549,0.49300000071525574,-2.523050566858547
425.017241,,0.0,425.014,0.49000000953674316,-2.530074368431798
425.482759,,0.0,425.48,0.5130000114440918,-2.480525809104904
425.948276,,0.0,425.939,0.5080000162124634,-2.4920336202545728
426.413793,,0.0,426.405,0.5199999809265137,-2.466539012086986
426.87931000000003,,0.0,426.871,0.48899999260902405,-2.534740795328475
427.344828,,0.0,427.336,0.5249999761581421,-2.456967437482269
427.810345,,0.0,427.802,0.49000000953674316,-2.5338519662721466
428.275862,,0.0,428.264,0.49399998784065247,-2.5257243552327218
428.741379,,0.0,428.734,0.5059999823570251,-2.500104904602173
429.20689699999997,,0.0,429.195,0.49000000953674316,-2.5354087558398866
429.672414,,0.0,429.664,0.5080000162124634,-2.4965463163472874
430.137931,,0.0,430.124,0.48399999737739563,-2.549084405026416
430.603448,,0.0,430.594,0.5090000033378601,-2.49475851409901
431.068966,,0.0,431.06,0.5009999871253967,-2.512213647852269
431.534483,,0.0,431.525,0.48899999260902405,-2.5382684833723883
432.0,,0.0,431.99,0.5170000195503235,-2.477065618584385
432.46551700000003,,0.0,432.45,0.4880000054836273,-2.53994040959576
432.931034,,0.0,432.915,0.4819999933242798,-2.5526112588555607
433.396552,,0.0,433.38,0.4869999885559082,-2.541235268512289
433.862069,,0.0,433.846,0.49399998784065247,-2.5254351847266907
434.327586,,0.0,434.313,0.48899999260902405,-2.5357289230919835
434.79310300000003,,0.0,434.779,0.47699999809265137,-2.5612420925479307
435.258621,,0.0,435.239,0.48899999260902405,-2.534456357524726
435.724138,,0.0,435.709,0.5070000290870667,-2.4946064428855554
436.189655,,0.0,436.172,0.5049999952316284,-2.4983560234784576
436.655172,,0.0,436.635,0.4880000054836273,-2.5348302210229403
437.12068999999997,,0.0,437.1,0.5009999871253967,-2.506007552469004
437.586207,,0.0,437.571,0.5009999871253967,-2.505584846495745
438.051724,,0.0,438.029,0.503000020980835,-2.5008948190196874
438.517241,,0.0,438.495,0.5070000290870667,-2.491947436993525
438.982759,,0.0,438.961,0.5040000081062317,-2.498357334806167
439.448276,,0.0,439.427,0.48399999737739563,-2.541914975050276
439.913793,,0.0,439.893,0.4880000054836273,-2.533296694395724
440.37931000000003,,0.0,440.357,0.49000000953674316,-2.5291444123352465
440.844828,,0.0,440.823,0.5009999871253967,-2.505486134838754
441.310345,,0.0,441.291,0.49000000953674316,-2.529849923771585
441.775862,,0.0,441.753,0.49799999594688416,-2.512898924712021
442.241379,,0.0,442.217,0.48899999260902405,-2.5330496013597363
442.70689699999997,,0.0,442.679,0.49900001287460327,-2.5118537125345552
443.172414,,0.0,443.15,0.49399998784065247,-2.5233670959121413
443.637931,,0.0,443.612,0.4950000047683716,-2.521818770608307
444.103448,,0.0,444.078,0.48899999260902405,-2.5355120888103144
444.568966,,0.0,444.542,0.5019999742507935,-2.507782987142785
445.03448299999997,,0.0,445.007,0.5,-2.5126869013693844
445.5,,0.0,445.472,0.49399998784065247,-2.526242100237986
445.965517,,0.0,445.937,0.5090000033378601,-2.4939674734620443
446.431034,,0.0,446.402,0.4909999966621399,-2.533497802077884
446.896552,,0.0,446.867,0.4959999918937683,-2.522819521712435
447.36206899999996,,0.0,447.331,0.49000000953674316,-2.5360005567164965
447.827586,,0.0,447.797,0.48899999260902405,-2.5381796854006704
448.29310300000003,,0.0,448.265,0.49799999594688416,-2.5184637537736463
448.758621,,0.0,448.727,0.49000000953674316,-2.535679699650908
449.224138,,0.0,449.191,0.4950000047683716,-2.524474917982413
449.689655,,0.0,449.661,0.47699999809265137,-2.5632908173564255
450.155172,,0.0,450.124,0.5070000290870667,-2.49745568462838
450.62068999999997,,0.0,450.587,0.46399998664855957,-2.590601076845441
451.086207,,0.0,451.052,0.49000000953674316,-2.5333756287975646
451.551724,,0.0,451.516,0.49000000953674316,-2.532768897577588
452.017241,,0.0,451.982,0.492000013589859,-2.5277967262789085
452.482759,,0.0,452.447,0.503000020980835,-2.5032271042043757
452.94827599999996,,0.0,452.912,0.492000013589859,-2.526616418769173
453.413793,,0.0,453.376,0.4880000054836273,-2.5348016584029045
453.87931,,0.0,453.842,0.4959999918937683,-2.516905910643281
454.344828,,0.0,454.314,0.5040000081062317,-2.4990866830778034
454.810345,,0.0,454.772,0.49399998784065247,-2.520571353331651
455.27586199999996,,0.0,455.235,0.49000000953674316,-2.5290815754975116
455.741379,,0.0,455.705,0.49799999594688416,-2.5115519250145626
456.206897,,0.0,456.165,0.49799999594688416,-2.5115579861470008
456.672414,,0.0,456.635,0.4950000047683716,-2.518206101800722
457.137931,,0.0,457.101,0.4880000054836273,-2.5336716347140165
457.603448,,0.0,457.564,0.46799999475479126,-2.5775564198861964
458.06896600000005,,0.0,458.029,0.4909999966621399,-2.527846816861217
458.53448299999997,,0.0,458.494,0.49000000953674316,-2.530499483692575
459.0,,0.0,458.96,0.4729999899864197,-2.568070579518273
459.465517,,0.0,459.42,0.5,-2.5098246666125137
459.931034,,0.0,459.885,0.4830000102519989,-2.547464740673464
460.39655200000004,,0.0,460.35,0.48100000619888306,-2.552432109729994
460.86206899999996,,0.0,460.816,0.49300000071525574,-2.5268867800581964
461.327586,,0.0,461.284,0.4970000088214874,-2.5187401058612386
461.793103,,0.0,461.747,0.4830000102519989,-2.549761066857922
462.258621,,0.0,462.209,0.48399999737739563,-2.5480387474101613
462.724138,,0.0,462.679,0.49000000953674316,-2.5353457002611224
463.18965499999996,,0.0,463.142,0.4880000054836273,-2.5399926750239823
463.655172,,0.0,463.605,0.503000020980835,-2.5075042269942647
464.12069,,0.0,464.071,0.4790000021457672,-2.559878981317059
464.58620699999994,,0.0,464.534,0.4819999933242798,-2.553323998585184
465.051724,,0.0,465.0,0.503000020980835,-2.5074477187474606
465.517241,,0.0,465.464,0.49300000071525574,-2.52900743680942
465.98275900000004,,0.0,465.931,0.49399998784065247,-2.526506833543677
466.448276,,0.0,466.398,0.5019999742507935,-2.50867056564353
466.913793,,0.0,466.864,0.49000000953674316,-2.5343346261117556
467.37931,,0.0,467.324,0.5019999742507935,-2.5076536831168608
467.844828,,0.0,467.79,0.49000000953674316,-2.533219260485069
468.31034500000004,,0.0,468.258,0.4860000014305115,-2.54133304869546
468.77586199999996,,0.0,468.721,0.503000020980835,-2.5036911068251912
469.241379,,0.0,469.191,0.492000013589859,-2.5270657103480922
469.706897,,0.0,469.653,0.5270000100135803,-2.4502544319608575
470.172414,,0.0,470.121,0.4790000021457672,-2.554320094333196
470.63793100000004,,0.0,470.583,0.47999998927116394,-2.551697872464041
471.10344799999996,,0.0,471.049,0.48899999260902405,-2.5317267234832395
471.568966,,0.0,471.509,0.5090000033378601,-2.4878811626720783
472.034483,,0.0,471.975,0.49399998784065247,-2.5203868426429166
472.5,,0.0,472.439,0.4860000014305115,-2.5377460197004913
472.965517,,0.0,472.905,0.48500001430511475,-2.539961443181178
473.43103399999995,,0.0,473.373,0.48399999737739563,-2.542282693893779
473.89655200000004,,0.0,473.838,0.5009999871253967,-2.505489221015498
474.362069,,0.0,474.302,0.5090000033378601,-2.488396089929107
474.827586,,0.0,474.764,0.5170000195503235,-2.4713842489891134
475.293103,,0.0,475.235,0.48899999260902405,-2.532872266860441
475.758621,,0.0,475.698,0.49799999594688416,-2.5138042712826967
476.22413800000004,,0.0,476.161,0.5009999871253967,-2.507845705716431
476.689655,,0.0,476.624,0.48899999260902405,-2.5345864590741263
477.155172,,0.0,477.089,0.492000013589859,-2.5286489566898736
477.62069,,0.0,477.559,0.5289999842643738,-2.4486199559385065
478.086207,,0.0,478.025,0.4970000088214874,-2.51888135275274
478.55172400000004,,0.0,478.491,0.5080000162124634,-2.495408141874547
479.01724099999996,,0.0,478.949,0.492000013589859,-2.530691157080969
479.482759,,0.0,479.42,0.5419999957084656,-2.422102502029013
479.948276,,0.0,479.885,0.515999972820282,-2.478998800703302
480.413793,,0.0,480.351,0.5040000081062317,-2.5052941893178917
480.87931000000003,,0.0,480.809,0.49300000071525574,-2.5293080282268487
481.344828,,0.0,481.28,0.4819999933242798,-2.553218454583241
481.810345,,0.0,481.742,0.48399999737739563,-2.5487054816754204
482.275862,,0.0,482.209,0.503000020980835,-2.5070592294671123
482.74137900000005,,0.0,482.671,0.49799999594688416,-2.517611685099659
483.206897,,0.0,483.135,0.492000013589859,-2.530264241934998
483.672414,,0.0,483.605,0.4819999933242798,-2.551566491029782
484.13793100000004,,0.0,484.071,0.49300000071525574,-2.5270672551353446
484.603448,,0.0,484.534,0.4880000054836273,-2.5373928847446576
485.068966,,0.0,485.0,0.5,-2.5106651042459633
485.534483,,0.0,485.466,0.49399998784065247,-2.5231542270951492
486.0,,0.0,485.924,0.4880000054836273,-2.5356623755207752
486.46551700000003,,0.0,486.391,0.4950000047683716,-2.5198845829615095
486.931034,,0.0,486.857,0.46700000762939453,-2.5804123542663775
487.396552,,0.0,487.324,0.492000013589859,-2.5255393654186773
487.862069,,0.0,487.79,0.47600001096725464,-2.5600708012305207
488.327586,,0.0,488.25,0.49900001287460327,-2.5097241601388167
488.79310300000003,,0.0,488.72,0.4909999966621399,-2.5270115409396867
489.258621,,0.0,489.183,0.49399998784065247,-2.5204335141596785
489.724138,,0.0,489.646,0.47099998593330383,-2.5706016114625623
490.189655,,0.0,490.117,0.4729999899864197,-2.566403440295588
490.655172,,0.0,490.579,0.5,-2.5078337360537994
491.12069,,0.0,491.044,0.48899999260902405,-2.532138602714008
491.586207,,0.0,491.509,0.48100000619888306,-2.549982793105702
492.05172400000004,,0.0,491.975,0.5299999713897705,-2.4437061249209613
492.517241,,0.0,492.439,0.4950000047683716,-2.520482156516431
492.982759,,0.0,492.904,0.5080000162124634,-2.4927135045916904
493.448276,,0.0,493.368,0.4880000054836273,-2.5368544257010646
493.913793,,0.0,493.834,0.4909999966621399,-2.5308837215458637
494.37931000000003,,0.0,494.294,0.49000000953674316,-2.5336080539442363
494.844828,,0.0,494.764,0.4779999852180481,-2.560261828349563
495.310345,,0.0,495.228,0.49399998784065247,-2.525862395443289
495.775862,,0.0,495.69,0.5019999742507935,-2.5088269096619116
496.241379,,0.0,496.158,0.48500001430511475,-2.546180198726495
496.70689699999997,,0.0,496.62,0.49000000953674316,-2.5355169585008164
497.172414,,0.0,497.086,0.4950000047683716,-2.5247606517790655
497.637931,,0.0,497.549,0.47999998927116394,-2.5574803583041206
498.103448,,0.0,498.014,0.5009999871253967,-2.5116707581810056
498.568966,,0.0,498.479,0.4880000054836273,-2.539838998643776
499.03448299999997,,0.0,498.944,0.48899999260902405,-2.5374149919561
499.5,,0.0,499.409,0.49000000953674316,-2.5349075211936394
499.96551700000003,,0.0,499.875,0.4860000014305115,-2.5432201138562585
500.431034,,0.0,500.34,0.48500001430511475,-2.5449359573036014
500.89655200000004,,0.0,500.806,0.5960000157356262,-2.302594532423731
501.362069,,0.0,501.276,0.5009999871253967,-2.509019614032683
501.827586,,0.0,501.738,0.5,-2.510634550477658
502.293103,,0.0,502.205,0.503000020980835,-2.5035369343604477
502.758621,,0.0,502.668,0.49900001287460327,-2.5117092177784888
503.224138,,0.0,503.131,0.5049999952316284,-2.498130934481806
503.68965499999996,,0.0,503.594,0.503000020980835,-2.5020330511751223
504.15517200000005,,0.0,504.06,0.5070000290870667,-2.492928415355911
504.62068999999997,,0.0,504.524,0.47600001096725464,-2.560154036177503
505.08620699999994,,0.0,504.99,0.49799999594688416,-2.511998891975769
505.55172400000004,,0.0,505.457,0.4970000088214874,-2.5140468195833248
506.017241,,0.0,505.923,0.47600001096725464,-2.5597658251669215
506.48275899999993,,0.0,506.387,0.48500001430511475,-2.540224870087149
506.948276,,0.0,506.853,0.4749999940395355,-2.5621757848257376
507.413793,,0.0,507.317,0.48500001430511475,-2.54064581751573
507.87931,,0.0,507.782,0.4909999966621399,-2.52791424978663
508.344828,,0.0,508.25,0.49000000953674316,-2.530505731972627
508.810345,,0.0,508.712,0.4950000047683716,-2.520084783620322
509.27586199999996,,0.0,509.18,0.49399998784065247,-2.522780253873458
509.74137900000005,,0.0,509.642,0.492000013589859,-2.5276826457729697
510.20689699999997,,0.0,510.108,0.4959999918937683,-2.5195246878089104
510.67241399999995,,0.0,510.573,0.4880000054836273,-2.537504677010552
511.13793100000004,,0.0,511.039,0.49300000071525574,-2.52713961053753
511.603448,,0.0,511.499,0.48899999260902405,-2.536343501174606
512.0689659999999,,0.0,511.965,0.4909999966621399,-2.5324215631586204
512.534483,,0.0,512.431,0.49399998784065247,-2.526253712307883
513.0,,0.0,512.897,0.4950000047683716,-2.5243644295715537
513.465517,,0.0,513.362,0.4880000054836273,-2.5398169899808325
513.931034,,0.0,513.827,0.48100000619888306,-2.5551765156367288
514.396552,,0.0,514.29,0.48899999260902405,-2.537760403770125
514.862069,,0.0,514.76,0.48100000619888306,-2.5551064927425595
515.327586,,0.0,515.224,0.48500001430511475,-2.546215529207627
515.793103,,0.0,515.686,0.492000013589859,-2.5307008743451247
516.258621,,0.0,516.15,0.4880000054836273,-2.539071684358989
516.724138,,0.0,516.62,0.492000013589859,-2.529944290785474
517.189655,,0.0,517.085,0.4830000102519989,-2.5490833651623923
517.655172,,0.0,517.548,0.503000020980835,-2.505000058527622
518.1206900000001,,0.0,518.014,0.4959999918937683,-2.5197142405291726
518.5862070000001,,0.0,518.479,0.4860000014305115,-2.540954867654519
519.051724,,0.0,518.945,0.4779999852180481,-2.5578463932822766
519.517241,,0.0,519.405,0.5049999952316284,-2.4985098767771308
519.982759,,0.0,519.871,0.5009999871253967,-2.506751295029896
520.448276,,0.0,520.335,0.5299999713897705,-2.4431507513471806
520.9137929999999,,0.0,520.801,0.49000000953674316,-2.529943010418946
521.37931,,0.0,521.269,0.5009999871253967,-2.5057020792250655
521.844828,,0.0,521.731,0.5460000038146973,-2.4074727952055173
522.310345,,0.0,522.194,0.4959999918937683,-2.5163059959967327
522.7758620000001,,0.0,522.664,0.503000020980835,-2.5010508742882656
523.241379,,0.0,523.128,0.49399998784065247,-2.5207501126329457
523.7068969999999,,0.0,523.59,0.40799999237060547,-2.7083001592748577
524.172414,,0.0,524.056,0.4880000054836273,-2.5342854509482193
524.637931,,0.0,524.521,0.4970000088214874,-2.5150356674254515
525.103448,,0.0,524.987,0.5090000033378601,-2.4893174592323155
525.568966,,0.0,525.454,0.48899999260902405,-2.533369954353341
526.034483,,0.0,525.92,0.4950000047683716,-2.5208168414329393
526.5,,0.0,526.38,0.49000000953674316,-2.5322522306239152
526.9655170000001,,0.0,526.846,0.5009999871253967,-2.5088355611684587
527.4310340000001,,0.0,527.313,0.48899999260902405,-2.5355168089785027
527.8965519999999,,0.0,527.779,0.5019999742507935,-2.5077041451583786
528.362069,,0.0,528.239,0.4959999918937683,-2.5212419544388136
528.827586,,0.0,528.709,0.5170000195503235,-2.4758974967995493
529.293103,,0.0,529.172,0.47600001096725464,-2.56555808454113
529.7586210000001,,0.0,529.635,0.49000000953674316,-2.5353121200704165
530.224138,,0.0,530.1,0.5180000066757202,-2.474476057052766
530.689655,,0.0,530.571,0.5040000081062317,-2.505048068298863
531.155172,,0.0,531.029,0.5070000290870667,-2.498485629845839
531.62069,,0.0,531.494,0.5090000033378601,-2.494005620024284
532.086207,,0.0,531.96,0.503000020980835,-2.5068623305253017
532.5517239999999,,0.0,532.424,0.492000013589859,-2.5305272161225623
533.017241,,0.0,532.89,0.5139999985694885,-2.482221199207389
533.482759,,0.0,533.355,0.5210000276565552,-2.466530453774884
533.9482760000001,,0.0,533.82,0.49900001287460327,-2.5139698898933216
534.413793,,0.0,534.291,0.5040000081062317,-2.5025511189998206
534.87931,,0.0,534.753,0.5040000081062317,-2.5020077164088916
535.344828,,0.0,535.22,0.5149999856948853,-2.477498159900896
535.810345,,0.0,535.683,0.5249999761581421,-2.4551826923978517
536.275862,,0.0,536.146,0.527999997138977,-2.448149182245059
536.7413789999999,,0.0,536.609,0.4970000088214874,-2.5152372061232033
537.206897,,0.0,537.075,0.5379999876022339,-2.4255245378960617
537.672414,,0.0,537.541,0.515999972820282,-2.4731404613318166
538.137931,,0.0,538.006,0.5199999809265137,-2.4641951062243814
538.6034480000001,,0.0,538.473,0.5289999842643738,-2.444447615663138
539.0689659999999,,0.0,538.938,0.5339999794960022,-2.4335098419490153
539.5344829999999,,0.0,539.405,0.5389999747276306,-2.422668263908106
540.0,,0.0,539.871,0.531000018119812,-2.4402436375563017
540.465517,,0.0,540.336,0.5529999732971191,-2.3925497478115862
540.931034,,0.0,540.794,0.5540000200271606,-2.390689437314131
541.396552,,0.0,541.265,0.5419999957084656,-2.4172239191764255
541.862069,,0.0,541.727,0.5419999957084656,-2.417675233752537
542.327586,,0.0,542.195,0.550000011920929,-2.4007442331669213
542.7931030000001,,0.0,542.657,0.5410000085830688,-2.420881790553258
543.258621,,0.0,543.12,0.5879999995231628,-2.3190294959691213
543.7241379999999,,0.0,543.59,0.5630000233650208,-2.3740365060349404
544.189655,,0.0,544.056,0.5630000233650208,-2.374557416996057
544.655172,,0.0,544.52,0.5410000085830688,-2.422973633984463
545.12069,,0.0,544.979,0.6069999933242798,-2.279618410939816
545.5862070000001,,0.0,545.446,0.5540000200271606,-2.395457654007167
546.051724,,0.0,545.912,0.5809999704360962,-2.336929364390251
546.517241,,0.0,546.379,0.5730000138282776,-2.354569025055274
546.982759,,0.0,546.845,0.5910000205039978,-2.315472455413946
547.448276,,0.0,547.306,0.5709999799728394,-2.3590696058165292
547.9137929999999,,0.0,547.775,0.6449999809265137,-2.1977770943388446
548.3793099999999,,0.0,548.238,0.5419999957084656,-2.4220109618882844
548.844828,,0.0,548.701,0.5920000076293945,-2.3128239950246545
549.310345,,0.0,549.165,0.5690000057220459,-2.36259959435807
549.775862,,0.0,549.635,0.6190000176429749,-2.253264472138914
550.241379,,0.0,550.101,0.5889999866485596,-2.318163907921573
550.706897,,0.0,550.564,0.578000009059906,-2.3416262925048112
551.172414,,0.0,551.029,0.5910000205039978,-2.312775036365736
551.637931,,0.0,551.494,0.5929999947547913,-2.3078791583473866
552.103448,,0.0,551.96,0.5879999995231628,-2.3182405133886568
552.568966,,0.0,552.425,0.5360000133514404,-2.431022816163156
553.034483,,0.0,552.89,0.5929999947547913,-2.3063735972621373
553.5,,0.0,553.35,0.5799999833106995,-2.334284446453478
553.965517,,0.0,553.816,0.5709999799728394,-2.3535475212748915
554.4310340000001,,0.0,554.283,0.5849999785423279,-2.322779306413738
554.896552,,0.0,554.746,0.6549999713897705,-2.1700907625870673
555.3620689999999,,0.0,555.209,0.5669999718666077,-2.361716994489201
555.827586,,0.0,555.679,0.5830000042915344,-2.326856268355589
556.293103,,0.0,556.143,0.5690000057220459,-2.3574488982776804
556.758621,,0.0,556.605,0.5929999947547913,-2.3053434083802054
557.224138,,0.0,557.071,0.5839999914169312,-2.325217499070116
557.689655,,0.0,557.534,0.5630000233650208,-2.3713112659075017
558.155172,,0.0,558.0,0.5879999995231628,-2.3172528952569444
558.6206900000001,,0.0,558.464,0.5929999947547913,-2.306819560758281
559.0862070000001,,0.0,558.93,0.5789999961853027,-2.3378177774116007
559.5517239999999,,0.0,559.395,0.5669999718666077,-2.364481046450355
560.017241,,0.0,559.861,0.5929999947547913,-2.3083618066407596
560.482759,,0.0,560.328,0.578000009059906,-2.341556577342928
560.948276,,0.0,560.793,0.578000009059906,-2.3420450310907253
561.413793,,0.0,561.254,0.5709999799728394,-2.357742700292262
561.87931,,0.0,561.723,0.5669999718666077,-2.366849436769617
562.344828,,0.0,562.187,0.5789999961853027,-2.341030669967384
562.8103450000001,,0.0,562.65,0.5659999847412109,-2.369600969339728
563.275862,,0.0,563.12,0.550000011920929,-2.4046227950455563
563.7413789999999,,0.0,563.583,0.5410000085830688,-2.424305773491948
564.206897,,0.0,564.049,0.5820000171661377,-2.334965434592759
564.672414,,0.0,564.509,0.5540000200271606,-2.395860696010036
565.137931,,0.0,564.975,0.5720000267028809,-2.3564501044975525
565.603448,,0.0,565.44,0.5320000052452087,-2.4433198621434946
566.068966,,0.0,565.905,0.527999997138977,-2.451686603250461
566.534483,,0.0,566.372,0.5440000295639038,-2.4164199447991024
567.0,,0.0,566.838,0.5199999809265137,-2.468251527564767
567.465517,,0.0,567.305,0.5149999856948853,-2.4786553662907793
567.931034,,0.0,567.768,0.5199999809265137,-2.4672548647302026
568.396552,,0.0,568.231,0.492000013589859,-2.527747624062801
568.862069,,0.0,568.694,0.5339999794960022,-2.435748509134798
569.327586,,0.0,569.162,0.5170000195503235,-2.472317091430778
569.793103,,0.0,569.624,0.515999972820282,-2.4740688649882876
570.2586210000001,,0.0,570.09,0.5049999952316284,-2.497661601497229
570.724138,,0.0,570.559,0.5090000033378601,-2.4886405737026758
571.189655,,0.0,571.025,0.5260000228881836,-2.451371682572127
571.655172,,0.0,571.491,0.5080000162124634,-2.490436429685711
572.12069,,0.0,571.956,0.5009999871253967,-2.5056215994170374
572.586207,,0.0,572.42,0.5009999871253967,-2.5056438464094564
573.051724,,0.0,572.886,0.5139999985694885,-2.4774301041233286
573.517241,,0.0,573.351,0.49000000953674316,-2.52990910764125
573.982759,,0.0,573.809,0.49799999594688416,-2.512748409952529
574.4482760000001,,0.0,574.28,0.47999998927116394,-2.5523015570740837
574.913793,,0.0,574.742,0.5049999952316284,-2.4982311891597972
575.37931,,0.0,575.206,0.49000000953674316,-2.5313525287778633
575.844828,,0.0,575.676,0.4909999966621399,-2.5296476679822004
576.310345,,0.0,576.139,0.49000000953674316,-2.5323178101503196
576.775862,,0.0,576.601,0.5019999742507935,-2.5066680533196255
577.241379,,0.0,577.067,0.49300000071525574,-2.526756838115271
577.706897,,0.0,577.531,0.515999972820282,-2.477101023483649
578.172414,,0.0,577.996,0.48899999260902405,-2.536335702337737
578.6379310000001,,0.0,578.461,0.5049999952316284,-2.5018345397218065
579.1034480000001,,0.0,578.926,0.4860000014305115,-2.5435217290009207
579.5689659999999,,0.0,579.391,0.49300000071525574,-2.5284913216626803
580.034483,,0.0,579.857,0.5090000033378601,-2.493773732736771
580.5,,0.0,580.321,0.515999972820282,-2.478579926246042
580.965517,,0.0,580.787,0.48399999737739563,-2.548267892584878
581.431034,,0.0,581.25,0.4830000102519989,-2.5503347183528757
581.896552,,0.0,581.721,0.492000013589859,-2.5305363243600874
582.362069,,0.0,582.183,0.5090000033378601,-2.493235570415896
582.827586,,0.0,582.646,0.492000013589859,-2.5299435515815922
583.2931030000001,,0.0,583.117,0.5049999952316284,-2.501237247711487
583.758621,,0.0,583.579,0.48399999737739563,-2.5465623100313826
584.2241379999999,,0.0,584.045,0.503000020980835,-2.5047121091917965
584.689655,,0.0,584.51,0.48399999737739563,-2.545635527748766
585.155172,,0.0,584.976,0.4880000054836273,-2.5364495151326634
585.6206900000001,,0.0,585.435,0.5019999742507935,-2.5054909858520062
586.0862070000001,,0.0,585.901,0.492000013589859,-2.5268472358519305
586.551724,,0.0,586.366,0.49900001287460327,-2.511206841260438
587.017241,,0.0,586.832,0.503000020980835,-2.502154215251545
587.482759,,0.0,587.294,0.46700000762939453,-2.580309892247855
587.948276,,0.0,587.765,0.4959999918937683,-2.5169244916294704
588.4137929999999,,0.0,588.228,0.4880000054836273,-2.5342257759800746
588.87931,,0.0,588.69,0.47999998927116394,-2.5516072447801896
589.344828,,0.0,589.154,0.503000020980835,-2.5015316342301532
589.810345,,0.0,589.624,0.49000000953674316,-2.529966698185473
590.2758620000001,,0.0,590.09,0.46399998664855957,-2.58680009542027
590.741379,,0.0,590.552,0.49000000953674316,-2.5304140435336167
591.2068969999999,,0.0,591.018,0.4880000054836273,-2.5350918614312405
591.672414,,0.0,591.483,0.48100000619888306,-2.5507140847859158
592.137931,,0.0,591.949,0.492000013589859,-2.5271601750062875
592.603448,,0.0,592.413,0.4959999918937683,-2.5188832412148265
593.068966,,0.0,592.879,0.47200000286102295,-2.571621302627755
593.534483,,0.0,593.343,0.4650000035762787,-2.587322301206687
594.0,,0.0,593.809,0.47200000286102295,-2.5725089128176926
594.4655170000001,,0.0,594.272,0.49000000953674316,-2.533703214132687
594.9310340000001,,0.0,594.734,0.49000000953674316,-2.5340727590901233
595.3965519999999,,0.0,595.202,0.45100000500679016,-2.6193583783129513
595.862069,,0.0,595.664,0.4830000102519989,-2.5498999190584555
596.327586,,0.0,596.135,0.5809999704360962,-2.336580752463072
596.793103,,0.0,596.598,0.4909999966621399,-2.532769499973802
597.2586210000001,,0.0,597.063,0.4050000011920929,-2.720165908132435
597.724138,,0.0,597.528,0.4729999899864197,-2.571975702431604
598.189655,,0.0,597.993,0.48899999260902405,-2.537001046455688
598.655172,,0.0,598.457,0.48100000619888306,-2.554241985920198
599.12069,,0.0,598.923,0.5009999871253967,-2.5104146071283324
599.586207,,0.0,599.387,0.49000000953674316,-2.5340668022161035
600.0517239999999,,0.0,599.853,0.49900001287460327,-2.514097381672988
600.517241,,0.0,600.318,0.4880000054836273,-2.5376637656973604
600.982759,,0.0,600.783,0.49000000953674316,-2.5328831916320658
601.448276,,0.0,601.246,0.492000013589859,-2.5280914300735473
601.913793,,0.0,601.709,0.47200000286102295,-2.57123255914232
602.37931,,0.0,602.179,0.4880000054836273,-2.535958627823612
602.844828,,0.0,602.642,0.4779999852180481,-2.5573587029216363
603.310345,,0.0,603.108,0.492000013589859,-2.526511779340472
603.775862,,0.0,603.573,0.492000013589859,-2.526216837594583
604.2413789999999,,0.0,604.039,0.48399999737739563,-2.54341070297821
604.706897,,0.0,604.506,0.49000000953674316,-2.5301701636189518
605.172414,,0.0,604.964,0.492000013589859,-2.5257157604200784
605.637931,,0.0,605.432,0.49300000071525574,-2.523514017680796
606.1034480000001,,0.0,605.898,0.5379999876022339,-2.425525139629299
606.5689659999999,,0.0,606.365,0.4880000054836273,-2.5345786747197194
607.0344829999999,,0.0,606.831,0.43799999356269836,-2.643701052979701
607.5,,0.0,607.291,0.47999998927116394,-2.5524523850579577
607.965517,,0.0,607.76,0.4860000014305115,-2.539690879394225
608.431034,,0.0,608.224,0.49799999594688416,-2.5139022497627836
608.896552,,0.0,608.687,0.48399999737739563,-2.54479171292144
609.362069,,0.0,609.15,0.4729999899864197,-2.5691667979661164
609.827586,,0.0,609.62,0.48100000619888306,-2.5521567647808374
610.293103,,0.0,610.085,0.45100000500679016,-2.617932115939156
610.758621,,0.0,610.549,0.46799999475479126,-2.5812953631827478
611.2241379999999,,0.0,611.014,0.48899999260902405,-2.535915466822789
611.689655,,0.0,611.479,0.49000000953674316,-2.534067312202219
612.155172,,0.0,611.945,0.46399998664855957,-2.590991401107089
612.62069,,0.0,612.409,0.4749999940395355,-2.567246187698505
613.0862070000001,,0.0,612.875,0.46700000762939453,-2.584829575435774
613.551724,,0.0,613.336,0.47999998927116394,-2.5565908483458823
614.017241,,0.0,613.801,0.4860000014305115,-2.543529121713155
614.4827590000001,,0.0,614.265,0.47999998927116394,-2.5565372284945798
614.948276,,0.0,614.734,0.4699999988079071,-2.5781883187569457
615.4137929999999,,0.0,615.195,0.46399998664855957,-2.591058270207788
615.8793099999999,,0.0,615.664,0.47600001096725464,-2.5646524904559724
616.344828,,0.0,616.124,0.47200000286102295,-2.5730532205517616
616.810345,,0.0,616.595,0.46700000762939453,-2.583590515224247
617.275862,,0.0,617.061,0.4620000123977661,-2.594097265104223
617.741379,,0.0,617.52,0.46399998664855957,-2.589335305279978
618.206897,,0.0,617.986,0.4790000021457672,-2.5562449158326466
618.672414,,0.0,618.454,0.46399998664855957,-2.588520593895597
619.137931,,0.0,618.919,0.46399998664855957,-2.58813581285698
619.603448,,0.0,619.383,0.48100000619888306,-2.5507451061041366
620.068966,,0.0,619.849,0.4569999873638153,-2.602720950463757
620.534483,,0.0,620.314,0.46299999952316284,-2.5893891264827307
621.0,,0.0,620.78,0.47999998927116394,-2.5521519130829127
621.465517,,0.0,621.242,0.45100000500679016,-2.61519804995591
621.9310340000001,,0.0,621.705,0.46700000762939453,-2.5802750051792804
622.396552,,0.0,622.173,0.45899999141693115,-2.5977114860637407
622.862069,,0.0,622.636,0.45100000500679016,-2.615219509618903
623.327586,,0.0,623.101,0.46299999952316284,-2.5892237393981614
623.793103,,0.0,623.564,0.45500001311302185,-2.606865069884719
624.258621,,0.0,624.03,0.46799999475479126,-2.578811988917532
624.724138,,0.0,624.494,0.3610000014305115,-2.8122469730051876
625.189655,,0.0,624.96,0.46399998664855957,-2.5882075089803087
625.655172,,0.0,625.425,0.45100000500679016,-2.616919953288151
626.1206900000001,,0.0,625.891,0.46399998664855957,-2.5890021040163655
626.5862070000001,,0.0,626.357,0.45100000500679016,-2.6177306666805227
627.0517239999999,,0.0,626.823,0.4569999873638153,-2.605053819493254
627.5172409999999,,0.0,627.284,0.46700000762939453,-2.583638477546904
627.982759,,0.0,627.754,0.45100000500679016,-2.6188323744569364
628.448276,,0.0,628.217,0.46799999475479126,-2.582084759712139
628.913793,,0.0,628.679,0.48399999737739563,-2.547460030271374
629.37931,,0.0,629.15,0.4410000145435333,-2.641312553015259
629.844828,,0.0,629.612,0.46700000762939453,-2.584771008589079
630.3103450000001,,0.0,630.078,0.4490000009536743,-2.624019909416838
630.7758620000001,,0.0,630.542,0.45100000500679016,-2.619625093842083
631.2413789999999,,0.0,631.008,0.4399999976158142,-2.6434839985272895
631.706897,,0.0,631.472,0.4560000002384186,-2.608454328301252
632.172414,,0.0,631.938,0.4560000002384186,-2.6082233037449085
632.637931,,0.0,632.405,0.492000013589859,-2.52950768612922
633.103448,,0.0,632.864,0.44699999690055847,-2.627218227134294
633.568966,,0.0,633.332,0.453000009059906,-2.6137846017065516
634.034483,,0.0,633.797,0.4490000009536743,-2.6221168298460125
634.5,,0.0,634.261,0.44699999690055847,-2.6260833594935336
634.9655170000001,,0.0,634.724,0.4519999921321869,-2.6148034314886472
635.431034,,0.0,635.194,0.45399999618530273,-2.6100755578717787
635.8965519999999,,0.0,635.656,0.43799999356269836,-2.644591300036831
636.362069,,0.0,636.124,0.4429999887943268,-2.633394509976777
636.827586,,0.0,636.587,0.4390000104904175,-2.6418541991981406
637.293103,,0.0,637.052,0.43799999356269836,-2.6438345949065116
637.7586210000001,,0.0,637.516,0.44699999690055847,-2.6240909181536627
638.224138,,0.0,637.982,0.4620000123977661,-2.591341110412689
638.689655,,0.0,638.447,0.46299999952316284,-2.58915931982234
639.155172,,0.0,638.912,0.4429999887943268,-2.6327957986794366
639.62069,,0.0,639.379,0.42100000381469727,-2.6808549296936586
640.086207,,0.0,639.845,0.45100000500679016,-2.6156859365403538
640.551724,,0.0,640.306,0.4429999887943268,-2.6333603034881583
641.017241,,0.0,640.775,0.4880000054836273,-2.535611634037385
641.482759,,0.0,641.235,0.45100000500679016,-2.616547362228479
641.9482760000001,,0.0,641.706,0.4519999921321869,-2.6147195907501635
642.413793,,0.0,642.168,0.46299999952316284,-2.5911196622897927
642.87931,,0.0,642.631,0.4729999899864197,-2.569700590228246
643.344828,,0.0,643.097,0.45100000500679016,-2.617988671853224
643.810345,,0.0,643.559,0.46299999952316284,-2.5921823921405824
644.275862,,0.0,644.025,0.44699999690055847,-2.62734776078302
644.7413789999999,,0.0,644.49,0.4699999988079071,-2.577505794081663
645.206897,,0.0,644.956,0.4440000057220459,-2.634369444485764
645.672414,,0.0,645.42,0.45399999618530273,-2.612747393612891
646.1379310000001,,0.0,645.886,0.46399998664855957,-2.5910661131825385
646.6034480000001,,0.0,646.351,0.45100000500679016,-2.619431254838725
647.0689659999999,,0.0,646.817,0.45100000500679016,-2.6194109276770976
647.534483,,0.0,647.28,0.4569999873638153,-2.6062568713239496
648.0,,0.0,647.749,0.45100000500679016,-2.619187540047439
648.465517,,0.0,648.21,0.43799999356269836,-2.6473150068986238
648.931034,,0.0,648.679,0.45100000500679016,-2.6187505576546055
649.396552,,0.0,649.143,0.43799999356269836,-2.646791931900808
649.862069,,0.0,649.605,0.45399999618530273,-2.6116223190060217
650.327586,,0.0,650.071,0.4410000145435333,-2.6396131614517886
650.7931030000001,,0.0,650.534,0.45899999141693115,-2.6000559435570967
651.258621,,0.0,651.0,0.4490000009536743,-2.6215012698896563
651.7241379999999,,0.0,651.464,0.44699999690055847,-2.6255285670639004
652.189655,,0.0,651.93,0.45399999618530273,-2.6099694886649836
652.655172,,0.0,652.395,0.4429999887943268,-2.633657038388106
653.12069,,0.0,652.861,0.44600000977516174,-2.626883031716844
653.5862070000001,,0.0,653.328,0.43799999356269836,-2.644121230891656
654.051724,,0.0,653.793,0.4300000071525574,-2.6614123592349053
654.517241,,0.0,654.254,0.453000009059906,-2.6112223032996713
654.982759,,0.0,654.723,0.43799999356269836,-2.6438795219472766
655.448276,,0.0,655.187,0.45399999618530273,-2.609057199567182
655.9137929999999,,0.0,655.649,0.44999998807907104,-2.6178646615582264
656.37931,,0.0,656.121,0.4560000002384186,-2.6049387423763313
656.844828,,0.0,656.583,0.44699999690055847,-2.6247407906444535
657.310345,,0.0,657.049,0.44600000977516174,-2.6271556161352003
657.7758620000001,,0.0,657.509,0.44999998807907104,-2.6187117212721978
658.241379,,0.0,657.974,0.460999995470047,-2.59504263259909
658.7068969999999,,0.0,658.44,0.4699999988079071,-2.5757461973940776
659.172414,,0.0,658.905,0.44200000166893005,-2.637065320917835
659.637931,,0.0,659.373,0.4519999921321869,-2.615592166962777
660.103448,,0.0,659.838,0.44699999690055847,-2.626785666614774
660.568966,,0.0,660.302,0.49000000953674316,-2.5333809469038577
661.034483,,0.0,660.765,0.44699999690055847,-2.627307995033675
661.5,,0.0,661.235,0.4560000002384186,-2.6079064908826397
661.965517,,0.0,661.698,0.46799999475479126,-2.581924555416197
662.4310340000001,,0.0,662.161,0.4690000116825104,-2.5798580274181764
662.8965519999999,,0.0,662.631,0.46299999952316284,-2.5929893291817683
663.362069,,0.0,663.089,0.45500001311302185,-2.6104241943575897
663.827586,,0.0,663.559,0.46299999952316284,-2.592947746281591
664.293103,,0.0,664.025,0.46399998664855957,-2.59067076235822
664.7586210000001,,0.0,664.484,0.4560000002384186,-2.6079540889446347
665.224138,,0.0,664.95,0.46399998664855957,-2.5903368230198547
665.689655,,0.0,665.417,0.4440000057220459,-2.6336859618306994
666.155172,,0.0,665.882,0.4659999907016754,-2.585503759621756
666.62069,,0.0,666.347,0.4569999873638153,-2.6048393791731503
667.086207,,0.0,666.813,0.45899999141693115,-2.6001981312172906
667.5517239999999,,0.0,667.276,0.4650000035762787,-2.586839485525924
668.017241,,0.0,667.745,0.46799999475479126,-2.580022662443479
668.482759,,0.0,668.206,0.45399999618530273,-2.610257375403643
668.948276,,0.0,668.676,0.43799999356269836,-2.64487279317451
669.413793,,0.0,669.136,0.5519999861717224,-2.3962932255012803
669.87931,,0.0,669.605,0.453000009059906,-2.6117994768633648
670.3448279999999,,0.0,670.071,0.46299999952316284,-2.5898732756354135
670.810345,,0.0,670.534,0.44699999690055847,-2.6246379504497157
671.275862,,0.0,671.0,0.4569999873638153,-2.60280649838709
671.7413789999999,,0.0,671.464,0.45899999141693115,-2.5984537688560714
672.206897,,0.0,671.93,0.45100000500679016,-2.615936309520298
672.672414,,0.0,672.395,0.4490000009536743,-2.620393904955082
673.137931,,0.0,672.854,0.45100000500679016,-2.616180327025301
673.6034480000001,,0.0,673.321,0.4519999921321869,-2.614183810253785
674.068966,,0.0,673.787,0.45899999141693115,-2.599147353379011
674.5344829999999,,0.0,674.25,0.4480000138282776,-2.62335129431225
675.0,,0.0,674.72,0.4410000145435333,-2.6388579964270535
675.465517,,0.0,675.18,0.44699999690055847,-2.6260516186269105
675.931034,,0.0,675.65,0.4259999990463257,-2.6720697659178505
676.396552,,0.0,676.121,0.44999998807907104,-2.6200414321503427
676.862069,,0.0,676.575,0.45899999141693115,-2.6006765676866244
677.327586,,0.0,677.041,0.45100000500679016,-2.6183241609431254
677.793103,,0.0,677.506,0.4569999873638153,-2.605439379015237
678.2586210000001,,0.0,677.972,0.4429999887943268,-2.6360906379731897
678.7241379999999,,0.0,678.439,0.4569999873638153,-2.6056984814203594
679.1896549999999,,0.0,678.905,0.45899999141693115,-2.601405442219013
679.655172,,0.0,679.365,0.4359999895095825,-2.651532435252103
680.12069,,0.0,679.831,0.45500001311302185,-2.610110227118234
680.5862070000001,,0.0,680.298,0.46000000834465027,-2.5991442615222784
681.051724,,0.0,680.761,0.4189999997615814,-2.6883542666783327
681.517241,,0.0,681.224,0.45399999618530273,-2.611949906366178
681.9827590000001,,0.0,681.694,0.4480000138282776,-2.6248379168095175
682.448276,,0.0,682.154,0.4519999921321869,-2.615913035224371
682.9137929999999,,0.0,682.624,0.44699999690055847,-2.6265765320780026
683.3793099999999,,0.0,683.09,0.492000013589859,-2.52829499592571
683.844828,,0.0,683.552,0.42100000381469727,-2.6827319737012147
684.310345,,0.0,684.018,0.45100000500679016,-2.6171298175860582
684.775862,,0.0,684.484,0.4490000009536743,-2.621257002520651
685.241379,,0.0,684.95,0.453000009059906,-2.6123316206017497
685.706897,,0.0,685.41,0.4449999928474426,-2.6295761462930383
686.172414,,0.0,685.875,0.5009999871253967,-2.5074181110011224
686.637931,,0.0,686.34,0.4490000009536743,-2.6205889324797065
687.103448,,0.0,686.806,0.4429999887943268,-2.6335813541517843
687.5689659999999,,0.0,687.269,0.4429999887943268,-2.633544785822653
688.034483,,0.0,687.738,0.46799999475479126,-2.5790854505160032
688.5,,0.0,688.206,0.4880000054836273,-2.5355609921785764
688.965517,,0.0,688.668,0.45100000500679016,-2.616258829277862
689.4310340000001,,0.0,689.131,0.45100000500679016,-2.6163838362478007
689.896552,,0.0,689.594,0.4490000009536743,-2.6208998124206895
690.362069,,0.0,690.061,0.4519999921321869,-2.6145508949674308
690.827586,,0.0,690.528,0.45100000500679016,-2.6169385714611075
691.293103,,0.0,690.994,0.4560000002384186,-2.6062693880331467
691.758621,,0.0,691.461,0.46399998664855957,-2.5890715630086896
692.224138,,0.0,691.919,0.43299999833106995,-2.656840887344702
692.689655,,0.0,692.391,0.48399999737739563,-2.5459533930269505
693.155172,,0.0,692.849,0.4699999988079071,-2.576662156132356
693.6206900000001,,0.0,693.317,0.4519999921321869,-2.616062818991747
694.0862070000001,,0.0,693.782,0.45100000500679016,-2.6183987571273035
694.551724,,0.0,694.25,0.4620000123977661,-2.5945584891353692
695.0172409999999,,0.0,694.713,0.45100000500679016,-2.6186120492696046
695.482759,,0.0,695.176,0.44999998807907104,-2.6208402082416447
695.948276,,0.0,695.639,0.45100000500679016,-2.6186708973924784
696.4137929999999,,0.0,696.105,0.46299999952316284,-2.5924960613772554
696.87931,,0.0,696.575,0.4699999988079071,-2.577174650778427
697.344828,,0.0,697.034,0.4410000145435333,-2.6402473430618865
697.8103450000001,,0.0,697.506,0.44999998807907104,-2.6204987367755486
698.2758620000001,,0.0,697.964,0.4620000123977661,-2.594186100961921
698.741379,,0.0,698.432,0.4490000009536743,-2.6223170738161774
699.206897,,0.0,698.897,0.39100000262260437,-2.7484722321270203
699.672414,,0.0,699.365,0.44699999690055847,-2.6262545294320008
700.137931,,0.0,699.831,0.4690000116825104,-2.578109467737984
700.603448,,0.0,700.291,0.46700000762939453,-2.5822556866333537
701.068966,,0.0,700.754,0.4449999928474426,-2.629985392757061
701.534483,,0.0,701.224,0.46299999952316284,-2.5905864842687945
702.0,,0.0,701.686,0.4880000054836273,-2.53595952595974
702.4655170000001,,0.0,702.154,0.43799999356269836,-2.644758554175688
702.931034,,0.0,702.616,0.4569999873638153,-2.603263305893638
703.3965519999999,,0.0,703.082,0.45100000500679016,-2.6162702796120665
703.862069,,0.0,703.545,0.43799999356269836,-2.644566009490667
704.327586,,0.0,704.011,0.45500001311302185,-2.6075413668739698
704.793103,,0.0,704.476,0.44699999690055847,-2.625021420803525
705.2586210000001,,0.0,704.942,0.4690000116825104,-2.577178096817352
705.724138,,0.0,705.409,0.46299999952316284,-2.590369663796068
706.189655,,0.0,705.875,0.46399998664855957,-2.5883391543441827
706.6551720000001,,0.0,706.339,0.45100000500679016,-2.6168335840374843
707.12069,,0.0,706.805,0.46000000834465027,-2.5974163693674943
707.586207,,0.0,707.265,0.46299999952316284,-2.5910833431675515
708.051724,,0.0,707.735,0.46000000834465027,-2.597827655292078
708.517241,,0.0,708.195,0.44600000977516174,-2.6285362159673347
708.982759,,0.0,708.664,0.4490000009536743,-2.622200717201678
709.4482760000001,,0.0,709.128,0.47200000286102295,-2.5722784592351684
709.913793,,0.0,709.59,0.4620000123977661,-2.594231158162699
710.37931,,0.0,710.055,0.46299999952316284,-2.5921929539637505
710.844828,,0.0,710.521,0.47200000286102295,-2.572695268080548
711.310345,,0.0,710.987,0.460999995470047,-2.596736766476093
711.775862,,0.0,711.454,0.4569999873638153,-2.605491909156299
712.2413789999999,,0.0,711.919,0.45100000500679016,-2.6185678086175264
712.706897,,0.0,712.384,0.4560000002384186,-2.6076423654521053
713.172414,,0.0,712.85,0.4869999885559082,-2.5400363370011463
713.637931,,0.0,713.316,0.453000009059906,-2.614008434939249
714.1034480000001,,0.0,713.775,0.4440000057220459,-2.6334846469230504
714.5689659999999,,0.0,714.243,0.45399999618530273,-2.611541992682647
715.034483,,0.0,714.705,0.44600000977516174,-2.628795501526012
715.5,,0.0,715.169,0.45399999618530273,-2.6111768825495902
715.965517,,0.0,715.638,0.43799999356269836,-2.6458382830244442
716.431034,,0.0,716.104,0.4490000009536743,-2.621675143232043
716.896552,,0.0,716.568,0.43700000643730164,-2.647626348800125
717.362069,,0.0,717.034,0.45100000500679016,-2.6169441382256324
717.827586,,0.0,717.494,0.46399998664855957,-2.588457164757283
718.2931030000001,,0.0,717.96,0.4560000002384186,-2.6057427941585343
718.758621,,0.0,718.427,0.47999998927116394,-2.553336753660953
719.2241379999999,,0.0,718.893,0.45899999141693115,-2.598998213627062
719.689655,,0.0,719.358,0.43799999356269836,-2.6446914510173833
720.155172,,0.0,719.824,0.4650000035762787,-2.5858436875325745
720.62069,,0.0,720.287,0.46299999952316284,-2.5902110171708137
721.0862070000001,,0.0,720.749,0.45500001311302185,-2.6076837127366006
721.551724,,0.0,721.22,0.45899999141693115,-2.599044974491411
722.017241,,0.0,721.683,0.44699999690055847,-2.6252945695687244
722.482759,,0.0,722.146,0.44600000977516174,-2.6276059628341986
722.948276,,0.0,722.609,0.4440000057220459,-2.632119002245027
723.4137929999999,,0.0,723.074,0.453000009059906,-2.6126847415026777
723.87931,,0.0,723.541,0.45899999141693115,-2.5997983263255655
724.344828,,0.0,724.007,0.47200000286102295,-2.5716665636931406
724.810345,,0.0,724.472,0.45500001311302185,-2.608893171302525
725.2758620000001,,0.0,724.937,0.4259999990463257,-2.6722574334274047
725.741379,,0.0,725.402,0.45100000500679016,-2.617963535460902
726.2068969999999,,0.0,725.867,0.46799999475479126,-2.5810816376665104
726.672414,,0.0,726.332,0.45899999141693115,-2.6008215345170336
727.137931,,0.0,726.798,0.4650000035762787,-2.5878543520510746
727.603448,,0.0,727.261,0.46000000834465027,-2.5988218158256773
728.068966,,0.0,727.731,0.421999990940094,-2.6816527819361227
728.534483,,0.0,728.194,0.4729999899864197,-2.57055129526637
729.0,,0.0,728.657,0.46299999952316284,-2.592313544451958
729.465517,,0.0,729.12,0.453000009059906,-2.614042439217194
729.9310340000001,,0.0,729.59,0.45100000500679016,-2.618311371535923
730.3965519999999,,0.0,730.049,0.4659999907016754,-2.585515407352869
730.8620689999999,,0.0,730.516,0.45100000500679016,-2.618054548396044
731.327586,,0.0,730.982,0.45899999141693115,-2.6004652231880536
731.793103,,0.0,731.45,0.4699999988079071,-2.5763252838660438
732.2586210000001,,0.0,731.916,0.4399999976158142,-2.641501017638451
732.724138,,0.0,732.381,0.4959999918937683,-2.5193097647621525
733.189655,,0.0,732.839,0.45899999141693115,-2.599734904809123
733.655172,,0.0,733.313,0.43299999833106995,-2.6562037102319382
734.12069,,0.0,733.772,0.44699999690055847,-2.62554247153846
734.586207,,0.0,734.24,0.453000009059906,-2.61233128071933
735.0517239999999,,0.0,734.702,0.4519999921321869,-2.614395526070831
735.517241,,0.0,735.165,0.4519999921321869,-2.6143094237724376
735.982759,,0.0,735.634,0.47600001096725464,-2.5619662600867468
736.448276,,0.0,736.1,0.4569999873638153,-2.603336789952028
736.913793,,0.0,736.563,0.45399999618530273,-2.6098815203012014
737.37931,,0.0,737.028,0.4490000009536743,-2.6208163919004055
737.844828,,0.0,737.494,0.4620000123977661,-2.5925669509691454
738.310345,,0.0,737.959,0.4519999921321869,-2.6144552372135936
738.775862,,0.0,738.424,0.45500001311302185,-2.6080464187544488
739.2413789999999,,0.0,738.89,0.45399999618530273,-2.6103736126271304
739.706897,,0.0,739.354,0.4560000002384186,-2.6061812248605176
740.172414,,0.0,739.819,0.4690000116825104,-2.578034410420314
740.637931,,0.0,740.28,0.44999998807907104,-2.619609304534755
741.1034480000001,,0.0,740.75,0.4650000035762787,-2.58710924651232
741.568966,,0.0,741.213,0.46299999952316284,-2.5916395189155237
742.034483,,0.0,741.675,0.4449999928474426,-2.6310160210630253
742.5,,0.0,742.143,0.46700000762939453,-2.583229509159552
742.965517,,0.0,742.605,0.46000000834465027,-2.5986019293345533
743.431034,,0.0,743.071,0.43799999356269836,-2.6466286066889837
743.896552,,0.0,743.534,0.46399998664855957,-2.5900520348591782
744.362069,,0.0,744.0,0.4569999873638153,-2.605340250292728
744.827586,,0.0,744.465,0.45100000500679016,-2.6184179115310475
745.293103,,0.0,744.931,0.46299999952316284,-2.592248093318637
745.7586210000001,,0.0,745.395,0.46700000762939453,-2.583476102064603
746.2241379999999,,0.0,745.861,0.45500001311302185,-2.609532950009085
746.6896549999999,,0.0,746.328,0.46399998664855957,-2.58981177693448
747.155172,,0.0,746.793,0.46299999952316284,-2.591854205591923
747.62069,,0.0,747.254,0.46399998664855957,-2.5895209177645984
748.086207,,0.0,747.724,0.41999998688697815,-2.685214222141492
748.551724,,0.0,748.187,0.44699999690055847,-2.626217393126775
749.017241,,0.0,748.649,0.4580000042915344,-2.602078146535633
749.4827590000001,,0.0,749.12,0.45899999141693115,-2.599729270257974
749.9482760000001,,0.0,749.583,0.45899999141693115,-2.59956804298825
750.4137929999999,,0.0,750.048,0.47200000286102295,-2.5710982550506927
750.8793099999999,,0.0,750.514,0.4580000042915344,-2.6014703903550407
751.344828,,0.0,750.98,0.4390000104904175,-2.6427588771883235
751.810345,,0.0,751.439,0.44999998807907104,-2.6187151880989337
752.275862,,0.0,751.905,0.44999998807907104,-2.6186662291891247
752.741379,,0.0,752.372,0.46700000762939453,-2.5816107830305826
753.206897,,0.0,752.838,0.45899999141693115,-2.5990522404477034
753.672414,,0.0,753.306,0.4429999887943268,-2.6339532507987387
754.1379310000001,,0.0,753.767,0.44699999690055847,-2.6253108554389994
754.603448,,0.0,754.235,0.44999998807907104,-2.61887442092437
755.0689659999999,,0.0,754.698,0.460999995470047,-2.595032330764399
755.534483,,0.0,755.161,0.45500001311302185,-2.6082464096121214
756.0,,0.0,755.624,0.45100000500679016,-2.6171178283537864
756.465517,,0.0,756.089,0.45100000500679016,-2.617284356864095
756.931034,,0.0,756.56,0.45100000500679016,-2.6174552621400617
757.396552,,0.0,757.019,0.4659999907016754,-2.5849450028962546
757.862069,,0.0,757.484,0.47200000286102295,-2.5720349115156345
758.3275860000001,,0.0,757.95,0.4519999921321869,-2.615756795930018
758.793103,,0.0,758.416,0.46000000834465027,-2.598459225542593
759.258621,,0.0,758.882,0.45399999618530273,-2.6116416068833685
759.724138,,0.0,759.346,0.44699999690055847,-2.6269781464877693
760.189655,,0.0,759.812,0.4650000035762787,-2.587821343903653
760.655172,,0.0,760.275,0.45500001311302185,-2.609637465271867
761.1206900000001,,0.0,760.745,0.47200000286102295,-2.5725997293199443
761.5862070000001,,0.0,761.206,0.46299999952316284,-2.592176358927101
762.051724,,0.0,761.676,0.45500001311302185,-2.6095451243352614
762.517241,,0.0,762.139,0.45100000500679016,-2.618172807197486
762.982759,,0.0,762.602,0.46299999952316284,-2.591918588334388
763.448276,,0.0,763.067,0.4790000021457672,-2.556929267414344
763.9137929999999,,0.0,763.531,0.4390000104904175,-2.643928081692377
764.37931,,0.0,763.997,0.5130000114440918,-2.482549376715828
764.844828,,0.0,764.461,0.414000004529953,-2.6980705630791606
765.310345,,0.0,764.927,0.4569999873638153,-2.604224102617559
765.7758620000001,,0.0,765.395,0.45399999618530273,-2.6106016660658597
766.241379,,0.0,765.86,0.4429999887943268,-2.6344193284642374
766.706897,,0.0,766.325,0.4569999873638153,-2.603786568229976
767.172414,,0.0,766.791,0.4560000002384186,-2.605853227746864
767.637931,,0.0,767.254,0.4699999988079071,-2.5752629250290617
768.103448,,0.0,767.716,0.44699999690055847,-2.6253080808116116
768.568966,,0.0,768.18,0.46399998664855957,-2.5882349322275577
769.034483,,0.0,768.65,0.4699999988079071,-2.5751552291003756
769.5,,0.0,769.12,0.46399998664855957,-2.5882473980878027
769.9655170000001,,0.0,769.575,0.46299999952316284,-2.5904736385031524
770.4310340000001,,0.0,770.041,0.47200000286102295,-2.5709391044088545
770.8965519999999,,0.0,770.505,0.4519999921321869,-2.614608713550159
771.362069,,0.0,770.971,0.45100000500679016,-2.616904615743383
771.827586,,0.0,771.435,0.4490000009536743,-2.6213964660324396
772.293103,,0.0,771.901,0.460999995470047,-2.595399931236604
772.7586210000001,,0.0,772.368,0.45500001311302185,-2.6086265929643844
773.224138,,0.0,772.834,0.4650000035762787,-2.586997222948598
773.689655,,0.0,773.298,0.4620000123977661,-2.593687209417899
774.155172,,0.0,773.761,0.43799999356269836,-2.646121205635105
774.62069,,0.0,774.228,0.47200000286102295,-2.572181364739484
775.086207,,0.0,774.691,0.4620000123977661,-2.594084978939655
775.551724,,0.0,775.154,0.47200000286102295,-2.572394310007124
776.017241,,0.0,775.624,0.453000009059906,-2.6138602052270223
776.482759,,0.0,776.089,0.45500001311302185,-2.6095484805139098
776.9482760000001,,0.0,776.552,0.46399998664855957,-2.58995900503739
777.413793,,0.0,777.018,0.46299999952316284,-2.5921278033701523
777.87931,,0.0,777.483,0.45399999618530273,-2.6116981525537253
778.344828,,0.0,777.948,0.4860000014305115,-2.541917265441487
778.810345,,0.0,778.415,0.45399999618530273,-2.611545120365505
779.275862,,0.0,778.881,0.45100000500679016,-2.6179709585474304
779.7413789999999,,0.0,779.339,0.4650000035762787,-2.5873427766417794
780.206897,,0.0,779.804,0.4519999921321869,-2.615525155254065
780.672414,,0.0,780.272,0.4009999930858612,-2.72648900634045
781.137931,,0.0,780.735,0.45899999141693115,-2.5999788132630917
781.6034480000001,,0.0,781.205,0.45399999618530273,-2.61072589119309
782.0689659999999,,0.0,781.668,0.45899999141693115,-2.59969255081504
782.5344829999999,,0.0,782.136,0.4740000069141388,-2.566882798820869
783.0,,0.0,782.598,0.46399998664855957,-2.588553127427581
783.465517,,0.0,783.063,0.45899999141693115,-2.59934779351024
783.931034,,0.0,783.528,0.4569999873638153,-2.6036276988542175
784.396552,,0.0,783.993,0.4749999940395355,-2.5643580311680485
784.862069,,0.0,784.458,0.45899999141693115,-2.599187241969042
785.327586,,0.0,784.924,0.46399998664855957,-2.588290677589423
785.7931030000001,,0.0,785.39,0.45500001311302185,-2.607921349871473
786.258621,,0.0,785.849,0.47600001096725464,-2.5622179156168357
786.7241379999999,,0.0,786.321,0.45100000500679016,-2.616755950213975
787.189655,,0.0,786.779,0.45899999141693115,-2.599420254356901
787.655172,,0.0,787.25,0.46399998664855957,-2.5886392341777547
788.12069,,0.0,787.712,0.46000000834465027,-2.5974808764728357
788.5862070000001,,0.0,788.18,0.4569999873638153,-2.6041548698373105
789.051724,,0.0,788.642,0.46399998664855957,-2.58904885993018
789.517241,,0.0,789.108,0.45100000500679016,-2.617517723634397
789.982759,,0.0,789.574,0.46299999952316284,-2.59151776525296
790.448276,,0.0,790.039,0.44699999690055847,-2.6265128041483736
790.9137929999999,,0.0,790.505,0.45100000500679016,-2.6179235541055093
791.3793099999999,,0.0,790.964,0.46299999952316284,-2.5918897249185977
791.844828,,0.0,791.435,0.46700000762939453,-2.5832654691879644
792.310345,,0.0,791.901,0.46399998664855957,-2.5898689669907804
792.7758620000001,,0.0,792.366,0.47999998927116394,-2.5550527634554814
793.241379,,0.0,792.824,0.46399998664855957,-2.5899264264684425
793.7068969999999,,0.0,793.294,0.45100000500679016,-2.618237246450012
794.172414,,0.0,793.757,0.4790000021457672,-2.5571973107887516
794.637931,,0.0,794.224,0.46299999952316284,-2.591992505316215
795.103448,,0.0,794.686,0.4699999988079071,-2.5766553572575033
795.568966,,0.0,795.154,0.4390000104904175,-2.644086918092375
796.034483,,0.0,795.616,0.4569999873638153,-2.6047489909938712
796.5,,0.0,796.082,0.44999998807907104,-2.6198655054678586
796.965517,,0.0,796.545,0.45500001311302185,-2.6088305984673448
797.4310340000001,,0.0,797.011,0.45899999141693115,-2.599971284104981
797.8965519999999,,0.0,797.476,0.46399998664855957,-2.5889344238379466
798.3620689999999,,0.0,797.941,0.4699999988079071,-2.57572423610218
798.827586,,0.0,798.405,0.46399998664855957,-2.588667470661256
799.293103,,0.0,798.871,0.45500001311302185,-2.6081605567130413
799.758621,,0.0,799.336,0.46399998664855957,-2.5884560248363697
800.224138,,0.0,799.801,0.4690000116825104,-2.5774867756402013
800.689655,,0.0,800.268,0.4490000009536743,-2.6210070947501154
801.155172,,0.0,800.731,0.4690000116825104,-2.577406637105027
801.62069,,0.0,801.199,0.4569999873638153,-2.6035490078500314
802.086207,,0.0,801.661,0.46000000834465027,-2.5970375888075985
802.5517239999999,,0.0,802.124,0.4650000035762787,-2.5861942092292027
803.017241,,0.0,802.595,0.4659999907016754,-2.5840888680168814
803.482759,,0.0,803.06,0.4959999918937683,-2.5188230594001326
803.948276,,0.0,803.52,0.45500001311302185,-2.6082583497094776
804.413793,,0.0,803.986,0.46700000762939453,-2.5822395976363817
804.87931,,0.0,804.451,0.46399998664855957,-2.5889113682919342
805.344828,,0.0,804.916,0.46799999475479126,-2.5803388158523406
805.810345,,0.0,805.383,0.47999998927116394,-2.554338586580976
806.275862,,0.0,805.849,0.4560000002384186,-2.6067665853543933
806.7413789999999,,0.0,806.314,0.4779999852180481,-2.5589695123573093
807.206897,,0.0,806.78,0.46399998664855957,-2.5895922133343885
807.672414,,0.0,807.243,0.45500001311302185,-2.609306509740004
808.137931,,0.0,807.705,0.45500001311302185,-2.6093951619782083
808.603448,,0.0,808.176,0.45500001311302185,-2.609463309931168
809.068966,,0.0,808.639,0.4729999899864197,-2.5702927855815987
809.534483,,0.0,809.104,0.4560000002384186,-2.607350032615498
810.0,,0.0,809.568,0.4659999907016754,-2.5855583159525697
810.465517,,0.0,810.034,0.4740000069141388,-2.5680982453722168
810.931034,,0.0,810.494,0.46700000762939453,-2.5832928912490405
811.396552,,0.0,810.96,0.44999998807907104,-2.6202511455399145
811.862069,,0.0,811.425,0.45399999618530273,-2.6114378926871322
812.327586,,0.0,811.89,0.44600000977516174,-2.628751957770205
812.793103,,0.0,812.358,0.46399998664855957,-2.5894081816973
813.2586210000001,,0.0,812.823,0.45899999141693115,-2.6001637348537026
813.724138,,0.0,813.284,0.46399998664855957,-2.5891272604160194
814.1896549999999,,0.0,813.754,0.45399999618530273,-2.6107694460643764
814.655172,,0.0,814.217,0.45100000500679016,-2.6171648373158085
815.12069,,0.0,814.679,0.49300000071525574,-2.5255286525883243
815.586207,,0.0,815.147,0.4690000116825104,-2.577693962071674
816.051724,,0.0,815.609,0.4519999921321869,-2.6146237483821695
816.517241,,0.0,816.075,0.42899999022483826,-2.6646452770819375
816.982759,,0.0,816.541,0.46399998664855957,-2.5883283518845848
817.4482760000001,,0.0,817.007,0.4729999899864197,-2.5686804864773967
817.913793,,0.0,817.472,0.4659999907016754,-2.5839156410363606
818.3793099999999,,0.0,817.938,0.46399998664855957,-2.588282866205236
818.844828,,0.0,818.403,0.46799999475479126,-2.5796033887641587
819.310345,,0.0,818.868,0.46399998664855957,-2.588377333900605
819.775862,,0.0,819.335,0.45899999141693115,-2.599352531458777
820.241379,,0.0,819.794,0.460999995470047,-2.5950976096465195
820.706897,,0.0,820.261,0.4729999899864197,-2.569073360612741
821.172414,,0.0,820.724,0.4650000035762787,-2.586635250951763
821.6379310000001,,0.0,821.195,0.46000000834465027,-2.5976705553954593
822.1034480000001,,0.0,821.657,0.44999998807907104,-2.6196047064465096
822.5689659999999,,0.0,822.121,0.45100000500679016,-2.6175751111824215
823.034483,,0.0,822.59,0.460999995470047,-2.5959345648484233
823.5,,0.0,823.056,0.46399998664855957,-2.589536400655156
823.965517,,0.0,823.52,0.45100000500679016,-2.6179840258823464
824.431034,,0.0,823.979,0.45100000500679016,-2.6180931828730096
824.896552,,0.0,824.447,0.4729999899864197,-2.570252358761057
825.362069,,0.0,824.912,0.48399999737739563,-2.546352961803192
825.827586,,0.0,825.377,0.46299999952316284,-2.592144089938534
826.293103,,0.0,825.842,0.4580000042915344,-2.6030499057519387
826.758621,,0.0,826.305,0.46399998664855957,-2.5899636906620587
827.224138,,0.0,826.775,0.46299999952316284,-2.5921012503643897
827.689655,,0.0,827.235,0.4740000069141388,-2.568069225812357
828.155172,,0.0,827.705,0.45500001311302185,-2.6093728306842126
828.6206900000001,,0.0,828.169,0.47200000286102295,-2.572224185038485
829.0862070000001,,0.0,828.631,0.4740000069141388,-2.5677374291690414
829.551724,,0.0,829.097,0.46399998664855957,-2.589380485802639
830.017241,,0.0,829.559,0.4740000069141388,-2.567441046453395
830.482759,,0.0,830.025,0.4569999873638153,-2.604320710421781
830.948276,,0.0,830.491,0.45899999141693115,-2.5998068274530133
831.4137929999999,,0.0,830.957,0.45500001311302185,-2.60837088407456
831.87931,,0.0,831.424,0.4519999921321869,-2.6147673693196207
832.344828,,0.0,831.89,0.4440000057220459,-2.632072730172273
832.810345,,0.0,832.35,0.4659999907016754,-2.584038200974562
833.2758620000001,,0.0,832.817,0.46399998664855957,-2.5883133703265386
833.741379,,0.0,833.279,0.45500001311302185,-2.6078635523061915
834.2068969999999,,0.0,833.749,0.46000000834465027,-2.5969393307598168
834.672414,,0.0,834.21,0.46000000834465027,-2.596935916424837
835.137931,,0.0,834.679,0.47600001096725464,-2.5621014001218945
835.603448,,0.0,835.139,0.4830000102519989,-2.5469005700733107
836.068966,,0.0,835.61,0.4569999873638153,-2.603619472350531
836.534483,,0.0,836.075,0.40400001406669617,-2.719185656447517
837.0,,0.0,836.534,0.4490000009536743,-2.62126678981539
837.4655170000001,,0.0,837.0,0.453000009059906,-2.6126904477938693
837.9310340000001,,0.0,837.464,0.46399998664855957,-2.5888760033148377
838.3965519999999,,0.0,837.93,0.4339999854564667,-2.654393798319521
838.862069,,0.0,838.395,0.47600001096725464,-2.5630515511972654
839.327586,,0.0,838.861,0.46299999952316284,-2.5915319519954116
839.793103,,0.0,839.328,0.45100000500679016,-2.6178254232003444
840.2586210000001,,0.0,839.794,0.4580000042915344,-2.6027121334482355
840.724138,,0.0,840.254,0.45100000500679016,-2.6180832193278007
841.189655,,0.0,840.723,0.45500001311302185,-2.609468650672206
841.655172,,0.0,841.187,0.47200000286102295,-2.572507648791606
842.12069,,0.0,841.649,0.46399998664855957,-2.5899858618323086
842.586207,,0.0,842.12,0.4569999873638153,-2.6052569113682162
843.0517239999999,,0.0,842.583,0.4830000102519989,-2.5486032946615502
843.517241,,0.0,843.049,0.4569999873638153,-2.6052102932890246
843.982759,,0.0,843.509,0.46399998664855957,-2.5898941858278746
844.4482760000001,,0.0,843.974,0.48100000619888306,-2.5527659651758983
844.913793,,0.0,844.439,0.4490000009536743,-2.62236884371605
845.37931,,0.0,844.905,0.43700000643730164,-2.6483807644969706
845.844828,,0.0,845.369,0.4580000042915344,-2.6024842504961345
846.310345,,0.0,845.835,0.4410000145435333,-2.6393677569727068
846.775862,,0.0,846.305,0.47600001096725464,-2.562957386067608
847.2413789999999,,0.0,846.768,0.4699999988079071,-2.5758716268877255
847.706897,,0.0,847.231,0.46700000762939453,-2.5822544801703047
848.172414,,0.0,847.694,0.45899999141693115,-2.5995404885483793
848.637931,,0.0,848.165,0.4440000057220459,-2.632092032324141
849.1034480000001,,0.0,848.627,0.4790000021457672,-2.55573034442345
849.5689659999999,,0.0,849.093,0.4339999854564667,-2.653683083155208
850.0344829999999,,0.0,849.556,0.44200000166893005,-2.636193408412184
850.5,,0.0,850.022,0.4790000021457672,-2.555550729656235
850.965517,,0.0,850.487,0.4699999988079071,-2.5751533134969056
851.431034,,0.0,850.953,0.48399999737739563,-2.5446738406061686
851.896552,,0.0,851.418,0.45399999618530273,-2.610081305634903
852.362069,,0.0,851.883,0.4410000145435333,-2.6384776420637848
852.827586,,0.0,852.35,0.45500001311302185,-2.608074878048545
853.2931030000001,,0.0,852.816,0.460999995470047,-2.595122188532455
853.758621,,0.0,853.276,0.43799999356269836,-2.6453672565242075
854.2241379999999,,0.0,853.746,0.46399998664855957,-2.588871371757701
854.689655,,0.0,854.209,0.47699999809265137,-2.560705150929007
855.155172,,0.0,854.671,0.4790000021457672,-2.5565053189557028
855.62069,,0.0,855.135,0.4560000002384186,-2.606768046961678
856.0862070000001,,0.0,855.605,0.45100000500679016,-2.6178074290394657
856.551724,,0.0,856.064,0.46000000834465027,-2.5983339030149186
857.017241,,0.0,856.531,0.45500001311302185,-2.609345236965676
857.482759,,0.0,856.997,0.46000000834465027,-2.5985500559850836
857.948276,,0.0,857.465,0.46399998664855957,-2.5899102430926404
858.4137929999999,,0.0,857.93,0.45500001311302185,-2.6095670100125488
858.8793099999999,,0.0,858.395,0.46399998664855957,-2.5899810043779707
