Trial: ,37
Threshold: ,0.0
Maximum EMG: ,0.021765122150912645
Success: ,True

EMG Time,Raw EMG,Filtered EMG,Force Time,Raw Force (V),Filtered Force (N)
0.0,samples,2.0794052061193975e-07,0.471,0.5339999794960022,-2.4354671491844346
0.46551699999999996,time,2.2004723403619114e-07,0.933,0.5720000267028809,-2.353141073740157
0.9310339999999999,value,2.3189251774649047e-07,1.397,0.550000011920929,-2.4015536700659186
1.396552,,2.434228624217903e-07,1.859,0.5419999957084656,-2.4194703431033946
1.862069,,2.5458357030419756e-07,2.324,0.550000011920929,-2.4025194608803204
2.327586,,2.653188988262694e-07,2.789,0.5770000219345093,-2.3441499655474343
2.793103,,2.7557221416512024e-07,3.254,0.5669999718666077,-2.3663515793653573
3.258621,,2.8528615460475924e-07,3.719,0.5669999718666077,-2.366714870800225
3.724138,,2.9440280354799786e-07,4.185,0.5659999847412109,-2.3691943436188363
4.189654999999999,,3.0286387197802285e-07,4.652,0.546999990940094,-2.41081848331579
4.655172,,3.1061089012741557e-07,5.118,0.5299999713897705,-2.4480085871517008
5.12069,,3.1758540806912026e-07,5.585,0.5239999890327454,-2.4611532901500146
5.586207,,3.237292048997351e-07,6.051,0.5320000052452087,-2.4437150179803853
6.051723999999999,,3.28984506140639e-07,6.511,0.5370000004768372,-2.432730887036246
6.517241,,3.332942089370052e-07,6.981,0.515999972820282,-2.478312631156689
6.982759,,3.366021145888218e-07,7.441,0.5540000200271606,-2.395279913765559
7.448276,,3.3885316790178547e-07,7.911,0.5339999794960022,-2.4385416661525885
7.913793000000001,,3.399937027995121e-07,8.369,0.5419999957084656,-2.420742908422279
8.379309999999998,,3.399716935920677e-07,8.84,0.5659999847412109,-2.368038265773495
8.844828000000001,,3.3873701124953393e-07,9.299,0.5379999876022339,-2.4285877372490674
9.310345,,3.362416839833567e-07,9.764,0.5709999799728394,-2.356217553834349
9.775862,,3.324401613927595e-07,10.229,0.5419999957084656,-2.418915584634312
10.241379,,3.2728958138872065e-07,10.696,0.5260000228881836,-2.4532984585506323
10.706897,,3.207500390641043e-07,11.162,0.5640000104904175,-2.3700564215363316
11.172414,,3.127848566356909e-07,11.626,0.5669999718666077,-2.363101713067227
11.637931,,3.0336085354227564e-07,12.092,0.5400000214576721,-2.4215531787990967
12.103447999999998,,2.924486157428954e-07,12.56,0.5370000004768372,-2.427776405253559
12.568966000000001,,2.800227632208102e-07,13.022,0.5529999732971191,-2.392674338470119
13.034483,,2.660622146623161e-07,13.485,0.5540000200271606,-2.3903277632894633
13.5,,2.505504482450108e-07,13.956,0.5239999890327454,-2.455600794694427
13.965517,,2.334757574379921e-07,14.419,0.550000011920929,-2.3989540061608152
14.431034,,2.148315006868459e-07,14.881,0.5379999876022339,-2.4251806203855484
14.896552,,1.946163438293992e-07,15.347,0.5490000247955322,-2.4013801504415557
15.362069,,1.7283449406428092e-07,15.81,0.5540000200271606,-2.3907284853969126
15.827586000000002,,1.4949592427356977e-07,16.276,0.550000011920929,-2.399753968532372
16.293103,,1.2461658648341726e-07,16.741,0.5360000133514404,-2.430626249636823
16.758621,,9.821861323272752e-08,17.206,0.5360000133514404,-2.4310472517182227
17.224138,,7.033050560995613e-08,17.671,0.5669999718666077,-2.363967060595264
17.689655,,4.098730671205787e-08,18.137,0.550000011920929,-2.4014840786316576
18.155172,,1.02307592777608e-08,18.604,0.5299999713897705,-2.4455454242659904
18.62069,,2.1890553750140554e-08,19.069,0.5540000200271606,-2.393740121282682
19.086207,,5.532108697171786e-08,19.53,0.5419999957084656,-2.420345601229794
19.551724,,8.999822981253177e-08,19.999,0.5419999957084656,-2.420772528684648
20.017241000000002,,1.2585222455174826e-07,20.46,0.5669999718666077,-2.366685389924646
20.482758999999998,,1.628061062838597e-07,20.929,0.5419999957084656,-2.4214707498913723
20.948276,,2.007756659752575e-07,21.39,0.5419999957084656,-2.421720839318214
21.413793000000002,,2.396694377447415e-07,21.859,0.5339999794960022,-2.439324056636717
21.87931,,2.793887114594733e-07,22.324,0.5270000100135803,-2.454667493172
22.344828,,3.1982757169479344e-07,22.789,0.550000011920929,-2.4045675155950295
22.810344999999998,,3.6087296405763337e-07,23.254,0.5370000004768372,-2.432814005563166
23.275862,,4.0240478981890114e-07,23.718,0.5540000200271606,-2.3956178555198777
23.741379,,4.4429602974014996e-07,24.184,0.5730000138282776,-2.3539852303825173
24.206897,,4.86412897914019e-07,24.648,0.5339999794960022,-2.4386418211715424
24.672414,,5.28615026366352e-07,25.114,0.531000018119812,-2.444804798023537
25.137931,,5.707556810905611e-07,25.578,0.578000009059906,-2.341984446678617
25.603448,,6.126820101017309e-07,26.044,0.5410000085830688,-2.4221313413871473
26.068966,,6.542353240092091e-07,26.508,0.527999997138977,-2.4499660961977376
26.534483,,6.952514095120632e-07,26.97,0.5419999957084656,-2.418968347395129
27.0,,7.355608761219072e-07,27.438,0.5419999957084656,-2.418477442382447
27.465517,,7.749895363123227e-07,27.9,0.5669999718666077,-2.3635402172857587
27.931034,,8.133588191835673e-07,28.365,0.5490000247955322,-2.402318269010551
28.396552,,8.504862176156324e-07,28.836,0.5669999718666077,-2.36271188106293
28.862069,,8.861857687621956e-07,29.294,0.5669999718666077,-2.3623793818854057
29.327586,,9.202685676128108e-07,29.759,0.5630000233650208,-2.3708296761879932
29.793103000000002,,9.525433132210407e-07,30.225,0.5419999957084656,-2.4163942822914097
30.258620999999998,,9.828168870624385e-07,30.689,0.5630000233650208,-2.370539031659917
30.724138,,1.010894962848609e-06,31.154,0.46399998664855957,-2.586210271121658
31.189655000000002,,1.0365826469823718e-06,31.619,0.5339999794960022,-2.4337809049989536
31.655172000000004,,1.0596851486946396e-06,32.084,0.5360000133514404,-2.4295878544706113
32.12069,,1.0800084787563982e-06,32.552,0.5640000104904175,-2.368831479713879
32.586207,,1.097360175509539e-06,33.015,0.5400000214576721,-2.4214383014511083
33.051724,,1.1115500568086687e-06,33.486,0.5270000100135803,-2.4501444993884745
33.517241000000006,,1.122390996312866e-06,33.948,0.5540000200271606,-2.391757980949462
33.982759,,1.1296997224121501e-06,34.412,0.5389999747276306,-2.4249144066063173
34.448276,,1.1332976379186788e-06,34.874,0.531000018119812,-2.442845365316881
34.913793,,1.1330116584979191e-06,35.34,0.5419999957084656,-2.419392483168608
35.37931,,1.1286750676607975e-06,35.806,0.5540000200271606,-2.393755063875374
35.844828,,1.120128385984702e-06,36.271,0.5540000200271606,-2.394239544484983
36.310345,,1.1072202520797824e-06,36.738,0.5360000133514404,-2.4339030500692407
36.775862,,1.0898083126678675e-06,37.204,0.5429999828338623,-2.4190505066800805
37.241378999999995,,1.0677601189951457e-06,37.67,0.5460000038146973,-2.4128503585751844
37.706897000000005,,1.0409540266571573e-06,38.136,0.5419999957084656,-2.4218281945531217
38.172414,,1.0092800957763234e-06,38.601,0.5529999732971191,-2.3980454219932463
38.637931,,9.72640988338835e-07,39.066,0.5540000200271606,-2.3959620317269885
39.103448,,9.309528593699429e-07,39.527,0.531000018119812,-2.446076513169793
39.568965999999996,,8.841462385052223e-07,39.989,0.5649999976158142,-2.371918121375376
40.034483,,8.321668984009502e-07,40.459,0.5450000166893005,-2.4153187795735644
40.5,,7.74976706320025e-07,40.922,0.5419999957084656,-2.4215998885466674
40.965517,,7.125544551316069e-07,41.385,0.5519999861717224,-2.399483927132938
41.431034,,6.448966698735651e-07,41.855,0.5709999799728394,-2.3576948247546583
41.896552,,5.720183859476035e-07,42.321,0.5540000200271606,-2.3942831406789145
42.362069000000005,,4.939538949483077e-07,42.779,0.5490000247955322,-2.404687976275352
42.827586000000004,,4.107574540700228e-07,43.244,0.5389999747276306,-2.4259620728753326
43.293103,,3.2250395499010786e-07,43.711,0.5339999794960022,-2.436334987229065
43.758621,,2.292895480944176e-07,44.177,0.5419999957084656,-2.418393812807066
44.224138,,1.3123221789148652e-07,44.643,0.5529999732971191,-2.393940447100722
44.689655,,2.847230545647989e-08,45.109,0.49900001287460327,-2.5111382534978324
45.155172,,7.882702624484196e-08,45.571,0.5820000171661377,-2.3299143398854016
45.620689999999996,,1.9047938827753363e-07,46.04,0.5640000104904175,-2.3687975559618293
46.086206999999995,,3.0627482698951144e-07,46.5,0.5509999990463257,-2.3968606633387273
46.551724,,4.2597955462308255e-07,46.97,0.5360000133514404,-2.4293632844109383
47.017241,,5.493357532415885e-07,47.434,0.5540000200271606,-2.390058778485928
47.482759,,6.760614558363227e-07,47.896,0.5669999718666077,-2.3617381270434783
47.948276,,8.058505083707254e-07,48.362,0.5419999957084656,-2.416296211635698
48.413793,,9.383726163926386e-07,48.825,0.5690000057220459,-2.35765232216752
48.879310000000004,,1.073273479700793e-06,49.291,0.5640000104904175,-2.368807201649435
49.344828,,1.2101750183884206e-06,49.756,0.5299999713897705,-2.4432174869107075
49.810345,,1.3486756934047101e-06,50.222,0.5609999895095825,-2.376080619747388
50.275862,,1.4883509245735814e-06,50.689,0.5460000038146973,-2.4092144419295893
50.741379,,1.6287536087888511e-06,51.156,0.5260000228881836,-2.4532809144172463
51.206897,,1.769414740865247e-06,51.615,0.5339999794960022,-2.436370632022065
51.672414,,1.9098441392659265e-06,52.081,0.5540000200271606,-2.393325516874823
52.137931,,2.049531278649268e-06,52.548,0.5299999713897705,-2.446133663917027
52.603448,,2.1879462308808707e-06,53.011,0.5370000004768372,-2.4313803960807046
53.068966,,2.324540715841203e-06,53.474,0.546999990940094,-2.4100527813299526
53.534483,,2.458749263025475e-06,53.944,0.5350000262260437,-2.4366023470766125
54.0,,2.5899904845804577e-06,54.407,0.5360000133514404,-2.4347641535914044
54.465517,,2.717668460053642e-06,54.87,0.5410000085830688,-2.4241353136511194
54.931034,,2.8411742327438505e-06,55.336,0.5460000038146973,-2.4134217330850736
55.396552,,2.9598874171398805e-06,55.799,0.5699999928474426,-2.3612225280763823
55.862069,,3.073177916515632e-06,56.265,0.5690000057220459,-2.363394204602644
56.327586,,3.1804077493173342e-06,56.73,0.5379999876022339,-2.4308302415166883
56.793102999999995,,3.2809329825318056e-06,57.196,0.5360000133514404,-2.434994298517813
57.258621000000005,,3.3741057697651694e-06,57.663,0.5799999833106995,-2.3388551176009535
57.724138,,3.4592764912901736e-06,58.128,0.5419999957084656,-2.4212870764056307
58.189655,,3.535795992838435e-06,58.593,0.5289999842643738,-2.449186531329038
58.655172,,3.6030179194227558e-06,59.059,0.5419999957084656,-2.4203886004191166
59.120689999999996,,3.6603011399755176e-06,59.522,0.5519999861717224,-2.3980883211363717
59.586207,,3.707012258083492e-06,59.985,0.5130000114440918,-2.482519297877742
60.051724,,3.7425282035887037e-06,60.456,0.5270000100135803,-2.4514769155935707
60.517241,,3.7662388993108905e-06,60.918,0.5540000200271606,-2.3921233793965646
60.982758999999994,,3.7775499966312745e-06,61.382,0.550000011920929,-2.4003344033132223
61.448276,,3.775885673161553e-06,61.844,0.5789999961853027,-2.336691027940075
61.913793,,3.7606914852081e-06,62.309,0.5669999718666077,-2.3624268364697647
62.379310000000004,,3.731437267231227e-06,62.774,0.5460000038146973,-2.4078379470831894
62.84482800000001,,3.6876200699950044e-06,63.24,0.5419999957084656,-2.4162915084115584
63.310345000000005,,3.628767128606591e-06,63.708,0.5400000214576721,-2.42047601009162
63.775862000000004,,3.554438851157381e-06,64.173,0.5379999876022339,-2.424754770403113
64.241379,,3.4642318182037684e-06,64.64,0.5379999876022339,-2.4247731303062734
64.706897,,3.3577817828650756e-06,65.099,0.5410000085830688,-2.4183521822055445
65.172414,,3.2347666608725254e-06,65.567,0.5320000052452087,-2.438168552804354
65.637931,,3.094909499478303e-06,66.029,0.5529999732971191,-2.3927126950194655
66.103448,,2.9379814137301325e-06,66.5,0.49000000953674316,-2.5303420729043395
66.56896599999999,,2.7638044782366712e-06,66.963,0.5289999842643738,-2.4458180559993683
67.03448300000001,,2.572254562194848e-06,67.426,0.5289999842643738,-2.4463161151361996
67.5,,2.363264095124356e-06,67.889,0.5490000247955322,-2.4032794256768892
67.965517,,2.1368247504592844e-06,68.354,0.5540000200271606,-2.392943431302069
68.431034,,1.892990033884694e-06,68.824,0.531000018119812,-2.443613034077131
68.896552,,1.6318777630791625e-06,69.291,0.5669999718666077,-2.3657285135598745
69.362069,,1.3536724253353074e-06,69.756,0.5540000200271606,-2.3945659865649995
69.827586,,1.058627399381328e-06,70.214,0.5460000038146973,-2.4124626517393333
70.293103,,7.470670276199519e-07,70.679,0.5519999861717224,-2.399796384412683
70.75862099999999,,4.1938852493903676e-07,71.144,0.5709999799728394,-2.3587327093012185
71.22413800000001,,7.606371023260798e-08,71.611,0.5239999890327454,-2.4613746229570608
71.689655,,2.8235945319561746e-07,72.077,0.5419999957084656,-2.422312481871352
72.15517200000001,,6.552555220901849e-07,72.544,0.5540000200271606,-2.396225447248677
72.62069,,1.041920456170691e-06,73.007,0.5419999957084656,-2.422326895587133
73.086207,,1.441570732943764e-06,73.474,0.5479999780654907,-2.409114729877325
73.551724,,1.853342707569527e-06,73.937,0.5519999861717224,-2.4001660336245525
74.017241,,2.276292230647162e-06,74.4,0.578000009059906,-2.343199631659993
74.482759,,2.7093945364205022e-06,74.87,0.5249999761581421,-2.458269065507366
74.94827599999999,,3.1515444134806326e-06,75.329,0.527999997138977,-2.451270198392879
75.41379300000001,,3.6015566695571844e-06,75.8,0.5299999713897705,-2.446401384133934
75.87931,,4.058166901442429e-06,76.265,0.5669999718666077,-2.3652460434610783
76.344828,,4.520032580481695e-06,76.73,0.5440000295639038,-2.4147916187380987
76.810345,,4.985734463389491e-06,77.189,0.5659999847412109,-2.3662974563587427
77.275862,,5.453778337412676e-06,77.655,0.49799999594688416,-2.5138992123816024
77.741379,,5.92259710805996e-06,78.121,0.5419999957084656,-2.4175281437792164
78.206897,,6.390553236751e-06,78.586,0.5389999747276306,-2.423605001029395
78.67241399999999,,6.855941534808775e-06,79.051,0.5540000200271606,-2.3905306216986193
79.137931,,7.316992319226255e-06,79.515,0.5329999923706055,-2.4359644899907593
79.603448,,7.771874934583543e-06,79.985,0.5389999747276306,-2.4226617947941556
80.068966,,8.218701644375584e-06,80.448,0.5400000214576721,-2.4203465379936104
80.53448300000001,,8.655531893834745e-06,80.911,0.5360000133514404,-2.4290231825996393
81.0,,9.080376945098483e-06,81.382,0.5400000214576721,-2.4203704205185126
81.465517,,9.49120488428196e-06,81.844,0.5540000200271606,-2.3900288144950186
81.931034,,9.885945998670936e-06,82.31,0.5099999904632568,-2.4861419037864563
82.396552,,1.0262498520854019e-05,82.775,0.5410000085830688,-2.4189422243325365
82.86206899999999,,1.0618734735168174e-05,83.241,0.5490000247955322,-2.401926582624282
83.327586,,1.0952507440340264e-05,83.7,0.5400000214576721,-2.422009632443676
83.79310299999999,,1.1261656760673682e-05,84.165,0.5440000295639038,-2.4138172594522156
84.258621,,1.1544017296556487e-05,84.63,0.5529999732971191,-2.394762537579057
84.72413800000001,,1.1797425603459718e-05,85.096,0.5419999957084656,-2.419294097709464
85.189655,,1.2019727986955995e-05,85.559,0.5540000200271606,-2.3937127176133366
85.65517200000001,,1.2208788599623742e-05,86.029,0.5460000038146973,-2.4116829535722832
86.12069,,1.2362497824015912e-05,86.493,0.550000011920929,-2.403471200198382
86.586207,,1.247878092416936e-05,86.955,0.5669999718666077,-2.366883146642473
87.051724,,1.2555606946417078e-05,87.419,0.5379999876022339,-2.4304448838092014
87.517241,,1.2590997848546197e-05,87.889,0.5379999876022339,-2.430746937210608
87.98275899999999,,1.2583037834625787e-05,88.354,0.5379999876022339,-2.4309613694085805
88.448276,,1.2529882871116216e-05,88.817,0.5419999957084656,-2.4223669008208053
88.913793,,1.2429770358172536e-05,89.283,0.5460000038146973,-2.4136742201043555
89.37931,,1.2281028928374653e-05,89.748,0.5419999957084656,-2.4223117209407934
89.844828,,1.2082088343463737e-05,90.213,0.5540000200271606,-2.395993926583724
90.310345,,1.1831489458044616e-05,90.678,0.550000011920929,-2.404442799168139
90.775862,,1.1527894217634774e-05,91.144,0.5260000228881836,-2.456381377619503
91.241379,,1.1170095656909504e-05,91.604,0.5419999957084656,-2.421102248118678
91.706897,,1.0757027862517397e-05,92.07,0.5419999957084656,-2.4206224128350375
92.17241399999999,,1.02877758634282e-05,92.537,0.5299999713897705,-2.4462420523467188
92.63793100000001,,9.761585410433967e-06,93.0,0.5429999828338623,-2.417367314786071
93.103448,,9.177872605162192e-06,93.47,0.5339999794960022,-2.4364116765723645
93.568966,,8.536233337784203e-06,93.933,0.5669999718666077,-2.3639583229912553
94.03448300000001,,7.836452491521417e-06,94.401,0.5090000033378601,-2.4897846466501306
94.5,,7.078512871074022e-06,94.863,0.5649999976158142,-2.3672846560725707
94.965517,,6.262603811229239e-06,95.329,0.5379999876022339,-2.4256668866052715
95.431034,,5.389129421157368e-06,95.793,0.5460000038146973,-2.4078640284420185
95.896552,,4.458716419281129e-06,96.259,0.5400000214576721,-2.42064175650231
96.36206899999999,,3.4722215131150423e-06,96.719,0.5440000295639038,-2.4117215700695156
96.827586,,2.430738278124291e-06,97.184,0.5410000085830688,-2.418146911655203
97.293103,,1.3356034894539817e-06,97.655,0.5429999828338623,-2.413777372100692
97.758621,,1.8840286033717432e-07,98.114,0.5669999718666077,-2.361575824353585
98.224138,,1.009023858889698e-06,98.579,0.5329999923706055,-2.4358312898702876
98.689655,,2.2545784669456983e-06,99.045,0.5339999794960022,-2.4339248437485135
99.155172,,3.5459006282548095e-06,99.515,0.5410000085830688,-2.419029337888306
99.62069,,4.880364964755101e-06,99.977,0.5370000004768372,-2.4281709324699543
100.086207,,6.2550789667025755e-06,100.441,0.527999997138977,-2.4482647598347467
100.551724,,7.666881765278051e-06,100.911,0.531000018119812,-2.442259192340253
101.017241,,9.11234380858193e-06,101.369,0.5460000038146973,-2.410137833674193
101.482759,,1.0587767481177054e-05,101.84,0.5339999794960022,-2.4368503690645107
101.948276,,1.2089188705710518e-05,102.306,0.527999997138977,-2.4504840181311653
102.413793,,1.3612379563308224e-05,102.771,0.5460000038146973,-2.411805988490706
102.87931,,1.5152851967388698e-05,103.229,0.5529999732971191,-2.397051753564986
103.344828,,1.6705862423283467e-05,103.694,0.5460000038146973,-2.4127412350735438
103.810345,,1.8266417903578985e-05,104.159,0.550000011920929,-2.4043948678395672
104.275862,,1.9829282866409382e-05,104.626,0.503000020980835,-2.507078328885431
104.741379,,2.138898744103043e-05,105.091,0.5529999732971191,-2.3983435085322986
105.206897,,2.2939836801894303e-05,105.559,0.5529999732971191,-2.398444453209294
105.672414,,2.4475921749123814e-05,106.021,0.5410000085830688,-2.4245886059976094
106.13793100000001,,2.5991130509756647e-05,106.489,0.546999990940094,-2.41141692944858
106.603448,,2.7479161770398247e-05,106.951,0.5389999747276306,-2.4286492426481003
107.068966,,2.8933538947991073e-05,107.415,0.5419999957084656,-2.4218253809062604
107.534483,,3.034762570128304e-05,107.885,0.550000011920929,-2.4040260423160364
108.0,,3.171464268126583e-05,108.35,0.5270000100135803,-2.453694072353774
108.46551699999999,,3.302768551436141e-05,108.814,0.5299999713897705,-2.4466607194633347
108.931034,,3.4279744007470624e-05,109.279,0.5379999876022339,-2.428692883916092
109.396552,,3.546372255917092e-05,109.744,0.5400000214576721,-2.423771950611757
109.862069,,3.657246175637033e-05,110.21,0.5659999847412109,-2.366555251561183
110.32758600000001,,3.759876113060411e-05,110.675,0.5419999957084656,-2.418279621846422
110.793103,,3.8535403042909895e-05,111.14,0.5519999861717224,-2.395956282034688
111.258621,,3.937517766085092e-05,111.605,0.5540000200271606,-2.391105008547077
111.724138,,4.0110908985788136e-05,112.064,0.5419999957084656,-2.4168132016725843
112.189655,,4.0735481882946925e-05,112.534,0.5210000276565552,-2.4622017264565152
112.655172,,4.1241870061197385e-05,112.996,0.5419999957084656,-2.4161716751191804
113.12069,,4.1623164943787034e-05,113.459,0.546999990940094,-2.4050927234062964
113.586207,,4.187260536554833e-05,113.929,0.5419999957084656,-2.4158983675962995
114.051724,,4.198360802637004e-05,114.39,0.5299999713897705,-2.4420558803955306
114.51724100000001,,4.1949798624990284e-05,114.859,0.4690000116825104,-2.5750696942403852
114.982759,,4.176504359146089e-05,115.325,0.5540000200271606,-2.3901007970137798
115.448276,,4.14234823309691e-05,115.789,0.5419999957084656,-2.4165524378453607
115.913793,,4.091955988610564e-05,116.254,0.5540000200271606,-2.3907969567556924
116.37931,,4.0248059919159774e-05,116.719,0.5289999842643738,-2.4457203971756605
116.84482799999999,,3.9404137910626926e-05,117.185,0.5630000233650208,-2.3721580565367044
117.310345,,3.83833544648558e-05,117.645,0.5419999957084656,-2.418460006214664
117.77586199999999,,3.718170860866534e-05,118.11,0.5329999923706055,-2.438639856738196
118.241379,,3.579567096385123e-05,118.582,0.5249999761581421,-2.4566460346469814
118.70689700000001,,3.422221666980363e-05,119.04,0.5389999747276306,-2.4267092068489666
119.172414,,3.2458857927997836e-05,119.504,0.5239999890327454,-2.4599229122659003
119.63793100000001,,3.050367603592379e-05,119.974,0.5460000038146973,-2.4124796591325866
120.103448,,2.835535277411528e-05,120.437,0.5460000038146973,-2.4129041150530113
120.568966,,2.6013201006351574e-05,120.9,0.5630000233650208,-2.3762149639730477
121.034483,,2.347719434986e-05,121.366,0.5410000085830688,-2.424405653258738
121.5,,2.07479957694735e-05,121.829,0.5370000004768372,-2.43328560044711
121.96551699999999,,1.7826984947219008e-05,122.294,0.5429999828338623,-2.4202793708271266
122.431034,,1.4716284276756551e-05,122.759,0.5709999799728394,-2.359240421641882
122.896552,,1.141878333048084e-05,123.224,0.5339999794960022,-2.4397119570034187
123.362069,,7.938161645961735e-06,123.689,0.5669999718666077,-2.3675809318927232
123.827586,,4.278909677761859e-06,124.155,0.5460000038146973,-2.413006968546458
124.293103,,4.4634776055264675e-07,124.62,0.5379999876022339,-2.4300312517458704
124.758621,,3.553357070122829e-06,125.085,0.5199999809265137,-2.4687762599752507
125.22413800000001,,7.713176552098913e-06,125.556,0.5419999957084656,-2.4203245753564375
125.68965500000002,,1.2025209116927016e-05,126.018,0.5339999794960022,-2.4371976153136488
126.15517200000001,,1.648067040519801e-05,126.486,0.546999990940094,-2.408301029407888
126.62069000000001,,2.1069886522927853e-05,126.948,0.5130000114440918,-2.4818010856143378
127.086207,,2.5782290181633112e-05,127.416,0.5339999794960022,-2.435494080613077
127.55172400000001,,3.060641986061183e-05,127.877,0.5419999957084656,-2.4175447789067808
128.017241,,3.552992212516252e-05,128.343,0.5540000200271606,-2.3909313242250727
128.48275900000002,,4.0539557229008235e-05,128.807,0.5320000052452087,-2.4384567480672383
128.948276,,4.562120812303338e-05,129.273,0.5529999732971191,-2.3923776652436257
129.413793,,5.0759892985580297e-05,129.737,0.5270000100135803,-2.4487824906626336
129.87931,,5.5939781381984785e-05,130.203,0.5460000038146973,-2.407243314357558
130.344828,,6.114421415275066e-05,130.668,0.5370000004768372,-2.4268057837102783
130.81034499999998,,6.635572712077273e-05,131.133,0.5440000295639038,-2.4116104524614768
131.275862,,7.155607869831531e-05,131.601,0.46399998664855957,-2.586058046555741
131.741379,,7.672628146404483e-05,132.059,0.5429999828338623,-2.4141970857006716
132.206897,,8.18466377693049e-05,132.526,0.5540000200271606,-2.390571313771629
132.67241399999997,,8.68967794210212e-05,132.996,0.5419999957084656,-2.417129398264246
133.13793099999998,,9.185571147614302e-05,133.459,0.531000018119812,-2.441571014128023
133.60344800000001,,9.670186016938384e-05,133.922,0.5339999794960022,-2.4355596822650134
134.06896600000002,,0.00010141312498223257,134.385,0.5669999718666077,-2.3642199707593243
134.53448300000002,,0.00010596693484679108,134.855,0.5339999794960022,-2.4366843172711468
135.0,,0.00011034030846297644,135.314,0.5170000195503235,-2.4742867722128006
135.465517,,0.00011450991869203698,135.786,0.550000011920929,-2.4029365955818998
135.931034,,0.00011845216097319808,136.244,0.5540000200271606,-2.3947291096392394
136.396552,,0.00012214322569361206,136.712,0.5669999718666077,-2.3668591654998385
136.862069,,0.00012555917442467338,137.178,0.5400000214576721,-2.426066312380978
137.327586,,0.00012867601992021596,137.645,0.5540000200271606,-2.395869102016388
137.793103,,0.0001314698097541772,138.111,0.5410000085830688,-2.424406638535611
138.258621,,0.00013391671345704083,138.578,0.5460000038146973,-2.413633394207044
138.724138,,0.00013599311299180796,139.036,0.5820000171661377,-2.3352228372524357
139.189655,,0.00013767569639144614,139.5,0.5299999713897705,-2.4484335686839755
139.655172,,0.0001389415543607854,139.97,0.5339999794960022,-2.439543806829066
140.12069,,0.0001397682796267294,140.434,0.527999997138977,-2.4523511457090126
140.586207,,0.0001401340688014895,140.896,0.5329999923706055,-2.441112503568404
141.05172399999998,,0.0001400178265043977,141.361,0.5370000004768372,-2.4319823117471824
141.51724099999998,,0.0001393992714687772,141.824,0.5540000200271606,-2.394471898936894
141.982759,,0.00013825904434141767,142.29,0.6349999904632568,-2.2174827792449743
142.44827600000002,,0.00013657881686349055,142.756,0.5419999957084656,-2.4195478138484656
142.913793,,0.0001343414021033242,143.221,0.550000011920929,-2.401557465813396
143.37931,,0.0001315308653934144,143.685,0.5429999828338623,-2.4162542475304867
143.844828,,0.00012813263560645688,144.151,0.5260000228881836,-2.4527623317773495
144.310345,,0.00012413361638813236,144.615,0.5370000004768372,-2.4283102979238
144.77586200000002,,0.00011952229694793813,145.081,0.5429999828338623,-2.4148082459959097
145.241379,,0.00011428886199362603,145.548,0.49000000953674316,-2.5299169062734688
145.706897,,0.0001084253003798614,146.011,0.5519999861717224,-2.3945631568229833
146.172414,,0.0001019255120276474,146.474,0.5379999876022339,-2.424876065208249
146.637931,,9.478541265795167e-05,146.944,0.5379999876022339,-2.4247820880317494
147.103448,,8.700303587091521e-05,147.408,0.5099999904632568,-2.4857877882452732
147.568966,,7.857863209110367e-05,147.87,0.5410000085830688,-2.4183505851000975
148.034483,,6.951476388956643e-05,148.336,0.5419999957084656,-2.4163661163991086
148.5,,5.981639718508607e-05,148.799,0.5460000038146973,-2.4079316705658504
148.965517,,4.9490987820013927e-05,149.265,0.5440000295639038,-2.412645849916839
149.43103399999998,,3.8548563000583014e-05,149.729,0.5419999957084656,-2.41742551666049
149.89655199999999,,2.7001797087648125e-05,150.194,0.5379999876022339,-2.4266145552829492
150.362069,,1.4866081221506185e-05,150.659,0.5090000033378601,-2.490307662227704
150.82758600000003,,2.159586263875199e-06,151.125,0.5339999794960022,-2.436376282403157
151.293103,,1.1096681458666943e-05,151.589,0.48500001430511475,-2.54367106926926
151.758621,,2.4878832122390214e-05,152.055,0.5199999809265137,-2.467949499692475
152.224138,,3.9160052592842995e-05,152.519,0.5339999794960022,-2.4379522586216114
152.68965500000002,,5.3910575330549475e-05,152.988,0.5230000019073486,-2.462377250003302
153.155172,,6.909765650742377e-05,153.452,0.550000011920929,-2.40395497906782
153.62069,,8.468556381413933e-05,153.915,0.6069999933242798,-2.2801003839519693
154.086207,,0.00010063557442531378,154.382,0.5260000228881836,-2.456815213409414
154.551724,,0.00011690598357378072,154.844,0.531000018119812,-2.4460768094398424
155.017241,,0.00013345212416738156,155.31,0.5429999828338623,-2.4199951468892085
155.482759,,0.00015022639786159173,155.775,0.5370000004768372,-2.433034362823218
155.948276,,0.00016717831797887113,156.241,0.5440000295639038,-2.4176577894580795
156.413793,,0.00018425456464088097,156.707,0.5419999957084656,-2.4218001877066384
156.87931,,0.00020139905245262926,157.173,0.550000011920929,-2.4040739809202116
157.34482799999998,,0.00021855301104819263,157.64,0.5419999957084656,-2.421133882649679
157.81034499999998,,0.00023565507877591763,158.099,0.5490000247955322,-2.4054536241820026
158.275862,,0.00025264140976694754,158.567,0.5419999957084656,-2.4202281386639632
158.741379,,0.00026944579459457443,159.029,0.5419999957084656,-2.419720999677552
159.20689700000003,,0.00028599979469331473,159.5,0.5009999871253967,-2.508524524464037
159.672414,,0.0003022328906657916,159.963,0.5389999747276306,-2.425218131401521
160.137931,,0.00031807264456253066,160.426,0.5460000038146973,-2.409468639217554
160.60344800000001,,0.0003334448761747025,160.889,0.5410000085830688,-2.4198965678079323
161.06896600000002,,0.00034827385333275056,161.355,0.5360000133514404,-2.4303726820376483
161.534483,,0.00036248249615480514,161.825,0.5419999957084656,-2.416944929874175
162.0,,0.0003759925951379018,162.29,0.5379999876022339,-2.425375699031188
162.465517,,0.0003887250429323972,162.756,0.5419999957084656,-2.416457808186441
162.931034,,0.0004006000795857266,163.214,0.5379999876022339,-2.4250556948090245
163.396552,,0.00041153755098590053,163.682,0.5659999847412109,-2.364026121215744
163.862069,,0.00042145718017803013,164.148,0.5239999890327454,-2.4555915315028223
164.327586,,0.0004302788511688519,164.615,0.5519999861717224,-2.3947391964686595
164.793103,,0.0004379229047748494,165.081,0.4309999942779541,-2.6585901196780584
165.258621,,0.0004443104460093161,165.541,0.5720000267028809,-2.3517129675202915
165.72413799999998,,0.00044936366244274897,166.011,0.5419999957084656,-2.417450261983276
166.189655,,0.00045300615290949615,166.474,0.5490000247955322,-2.402628677517147
166.655172,,0.00045516326587180707,166.936,0.5230000019073486,-2.459740789650262
167.12069,,0.0004557624466905631,167.404,0.5189999938011169,-2.4689466370695627
167.58620699999997,,0.00045473359299021647,167.867,0.5189999938011169,-2.4694468354951087
168.051724,,0.0004520094172440688,168.333,0.5419999957084656,-2.419830754881113
168.517241,,0.00044752581564521304,168.796,0.5299999713897705,-2.446443819071906
168.98275900000002,,0.00044122224226849765,169.262,0.5289999842643738,-2.4490532326899093
169.44827600000002,,0.00043304208746999643,169.727,0.47999998927116394,-2.5561870391370944
169.913793,,0.00042293305941294636,170.192,0.5360000133514404,-2.4345007615435312
170.37931,,0.0004108475675532111,170.66,0.5329999923706055,-2.4412819794775427
170.844828,,0.0003967431068633201,171.125,0.5519999861717224,-2.4000511186823843
171.310345,,0.00038058264152230134,171.589,0.5199999809265137,-2.469844637938016
171.775862,,0.0003623349867491598,172.055,0.5450000166893005,-2.4153666056805623
172.241379,,0.00034197518741121253,172.515,0.5270000100135803,-2.454482871852209
172.706897,,0.00031948489199486955,172.986,0.5529999732971191,-2.397654199783965
173.172414,,0.0002948527204861497,173.448,0.5239999890327454,-2.4605728467056776
173.637931,,0.0002680746246715693,173.911,0.5419999957084656,-2.4210257381732188
174.103448,,0.00023915423933730274,174.377,0.527999997138977,-2.4511372299255614
174.568966,,0.0002081032228159028,174.84,0.531000018119812,-2.444166353331799
175.034483,,0.0001749415853056361,175.306,0.5320000052452087,-2.441521857661885
175.5,,0.0001396980033680719,175.771,0.5329999923706055,-2.4388613575784652
175.96551699999998,,0.00010241011899539321,176.237,0.5460000038146973,-2.410056260924859
176.43103399999998,,6.312482163007795e-05,176.704,0.5419999957084656,-2.4183025817496517
176.896552,,2.189851151591397e-05,177.17,0.5329999923706055,-2.4374715683500603
177.36206900000002,,2.120265723901729e-05,177.633,0.5519999861717224,-2.3956818993993636
177.827586,,6.610255549853282e-05,178.099,0.5419999957084656,-2.417128780228692
178.293103,,0.00011271488142904784,178.559,0.5410000085830688,-2.4190343816769677
178.758621,,0.00016094298789779893,179.029,0.5400000214576721,-2.421015414508881
179.224138,,0.00021067973648530654,179.493,0.5410000085830688,-2.4187208456609812
179.68965500000002,,0.00026180737962781694,179.955,0.5260000228881836,-2.4513700383004413
180.155172,,0.00031419747236364977,180.423,0.5260000228881836,-2.451426264025878
180.62069,,0.0003677108151008442,180.886,0.531000018119812,-2.4406741320720786
181.086207,,0.0004221974287614768,181.351,0.5329999923706055,-2.4365378447311934
181.551724,,0.0004774965636055584,181.814,0.5120000243186951,-2.4825830568883696
182.01724099999998,,0.000533436742987271,182.28,0.5529999732971191,-2.393615141161124
182.482759,,0.0005898358432115921,182.745,0.5460000038146973,-2.409272392240244
182.948276,,0.000646501210525361,183.21,0.5450000166893005,-2.4118941471908935
183.413793,,0.0007032298161576403,183.675,0.5360000133514404,-2.431967377899184
183.87931,,0.0007598084503011126,184.141,0.5249999761581421,-2.456405670912792
184.34482799999998,,0.0008160139559324226,184.608,0.5249999761581421,-2.4568716823556036
184.81034499999998,,0.0008716135031844581,185.074,0.515999972820282,-2.4769237792808143
185.27586200000002,,0.000926364904569368,185.534,0.5460000038146973,-2.4119721250008963
185.74137900000002,,0.0009800169711305336,186.004,0.5289999842643738,-2.4493669255883335
186.206897,,0.001032309909991014,186.466,0.5210000276565552,-2.4670922721083914
186.672414,,0.0010829757642280332,186.929,0.5370000004768372,-2.432459513636727
187.137931,,0.0011317388952539898,187.397,0.5410000085830688,-2.423892043475306
187.60344800000001,,0.0011783165060052013,187.859,0.531000018119812,-2.445742302663259
188.06896600000002,,0.0012224192029353608,188.325,0.5460000038146973,-2.4130410948159144
188.534483,,0.0012637515980737982,188.789,0.5460000038146973,-2.412934762441983
189.0,,0.0013020129552665314,189.254,0.5659999847412109,-2.3691736025036936
189.465517,,0.0013368978799062521,189.719,0.5260000228881836,-2.4560556782047285
189.931034,,0.0013680970413505902,190.185,0.5490000247955322,-2.405616798878592
190.39655199999999,,0.0013952979186594764,190.653,0.5299999713897705,-2.4466263402357105
190.862069,,0.0014181855817979692,191.118,0.5419999957084656,-2.420055371412252
191.327586,,0.0014364435342554558,191.583,0.5130000114440918,-2.4827813259439666
191.793103,,0.0014497546093829518,192.048,0.5199999809265137,-2.467063942922649
192.25862099999998,,0.0014578018571002943,192.511,0.5379999876022339,-2.4273844734469474
192.72413799999998,,0.0014602693820006023,192.974,0.5429999828338623,-2.4160448119985616
193.189655,,0.0014568432273298784,193.445,0.5130000114440918,-2.480989692064055
193.655172,,0.0014472124552275371,193.907,0.5249999761581421,-2.4544775834866646
194.12069000000002,,0.001431070343385258,194.373,0.5180000066757202,-2.4694179503155818
194.586207,,0.0014081153192586349,194.838,0.5460000038146973,-2.4081734210923695
195.051724,,0.001378051487443394,195.304,0.550000011920929,-2.399290938409166
195.517241,,0.0013405894073425604,195.764,0.5370000004768372,-2.4275248989773037
195.98275900000002,,0.001295447935087388,196.229,0.5490000247955322,-2.4013748448922057
196.448276,,0.0012423564203020688,196.696,0.5170000195503235,-2.471168195580663
196.913793,,0.0011810550102833376,197.162,0.5540000200271606,-2.3907151986830772
197.37931,,0.0011112927194194327,197.626,0.5419999957084656,-2.4170907703620754
197.844828,,0.0010328276037284928,198.092,0.5540000200271606,-2.3912452848764865
198.310345,,0.0009454331972681415,198.56,0.5490000247955322,-2.402493646320774
198.775862,,0.000848905593356168,199.022,0.5450000166893005,-2.4116086552250025
199.241379,,0.0007430581334207519,199.49,0.5199999809265137,-2.46650836719373
199.706897,,0.0006277048445933594,199.952,0.5440000295639038,-2.414673625206375
200.172414,,0.0005026603345414195,200.415,0.531000018119812,-2.443453727120913
200.63793099999998,,0.00036777589031621516,200.885,0.5410000085830688,-2.4221146146917825
201.103448,,0.00022297054771178238,201.351,0.5109999775886536,-2.487897182152903
201.568966,,6.818362560428797e-05,201.813,0.5460000038146973,-2.4120296539204626
202.034483,,9.672513241962279e-05,202.279,0.550000011920929,-2.403649186095212
202.5,,0.0002719558192529946,202.745,0.5320000052452087,-2.443136602165224
202.965517,,0.0004575455982276176,203.21,0.5509999990463257,-2.401942980859542
203.431034,,0.0006532300222770348,203.675,0.5540000200271606,-2.395529724801634
203.896552,,0.0008587890269398682,204.134,0.5419999957084656,-2.4217141229203394
204.36206900000002,,0.001074606775381227,204.6,0.5210000276565552,-2.467423549985747
204.827586,,0.0013014056203181788,205.066,0.5299999713897705,-2.447693226778784
205.293103,,0.0015388816824631394,205.534,0.5299999713897705,-2.447494184026329
205.758621,,0.0017851626394850394,205.996,0.5299999713897705,-2.4472249531642536
206.224138,,0.00203918009913488,206.459,0.5170000195503235,-2.4752167858340197
206.689655,,0.0023036764006294187,206.929,0.531000018119812,-2.444334784264046
207.155172,,0.00258272454386461,207.393,0.5249999761581421,-2.4569875161908046
207.62069,,0.0028735669283924303,207.855,0.5419999957084656,-2.419505953110386
208.086207,,0.0031652048373757777,208.321,0.5299999713897705,-2.445194066593617
208.551724,,0.0034540550585626393,208.789,0.5199999809265137,-2.466528533347083
209.01724099999998,,0.0037593397251024104,209.254,0.527999997138977,-2.448666013950808
209.482759,,0.00410316921273964,209.719,0.5389999747276306,-2.4242999629165047
209.948276,,0.004463009950653563,210.185,0.527999997138977,-2.4479089744765536
210.413793,,0.004774724453139523,210.644,0.5239999890327454,-2.4563241369630786
210.87930999999998,,0.005032735459004338,211.11,0.5180000066757202,-2.4691632969744086
211.344828,,0.005363668614466969,211.582,0.550000011920929,-2.399287778200465
211.810345,,0.00587910197897263,212.041,0.5199999809265137,-2.4645671679113854
212.27586200000002,,0.006406626765592769,212.504,0.5730000138282776,-2.3490992678386524
212.741379,,0.006578316235820444,212.973,0.5170000195503235,-2.471184617403641
213.206897,,0.006456026895904331,213.434,0.5379999876022339,-2.4255927034330753
213.672414,,0.006853351643505265,213.903,0.5419999957084656,-2.4171115713314295
214.137931,,0.008306434379234885,214.369,0.5540000200271606,-2.3912669089526943
214.60344800000001,,0.009519701438446857,214.833,0.5379999876022339,-2.4264805654956985
215.068966,,0.007913357408672822,215.299,0.5460000038146973,-2.4094515385893747
215.534483,,0.0027108183832381294,215.759,0.550000011920929,-2.4011693832905796
216.0,,0.003342727094427641,216.225,0.5329999923706055,-2.4386574937872503
216.465517,,0.0065190885121201156,216.689,0.5379999876022339,-2.42822002318641
216.93103399999998,,0.005647920101427527,217.155,0.6269999742507935,-2.234764762649165
217.39655199999999,,0.002311402398878732,217.619,0.5429999828338623,-2.4181885534821848
217.862069,,0.0012099664641415694,218.084,0.5249999761581421,-2.457782953920128
218.327586,,0.003166166315708766,218.552,0.5379999876022339,-2.4297906868275776
218.793103,,0.002822104370577213,219.015,0.5410000085830688,-2.4235257553163008
219.25862099999998,,0.000982943251059157,219.485,0.5379999876022339,-2.4302647816225664
219.724138,,0.0005693734668306394,219.948,0.5339999794960022,-2.439108060643321
220.18965500000002,,0.0009885564687049013,220.415,0.5360000133514404,-2.43480100466189
220.65517200000002,,0.001397192384742105,220.877,0.5419999957084656,-2.4216993018941464
221.12069,,0.0034857933796173476,221.343,0.5410000085830688,-2.4237684802359665
221.586207,,0.007234651311359471,221.807,0.5249999761581421,-2.4584414325872346
222.051724,,0.01039328878294506,222.273,0.5540000200271606,-2.3950047135726646
222.517241,,0.010388079128284928,222.737,0.5329999923706055,-2.4404378401541784
222.98275900000002,,0.006998862119559048,223.202,0.5529999732971191,-2.3964933249382723
223.448276,,0.0032747627329730005,223.667,0.531000018119812,-2.444010578534385
223.913793,,0.00317943378710247,224.133,0.5419999957084656,-2.4196043505072202
224.37931,,0.007501749403120546,224.6,0.5339999794960022,-2.4365782123555233
224.844828,,0.012331975879772087,225.066,0.5260000228881836,-2.453552242603246
225.31034499999998,,0.012647222063733638,225.526,0.550000011920929,-2.4008242055102604
225.775862,,0.007649656011573127,225.996,0.5260000228881836,-2.452699422553352
226.241379,,0.0016459559062329252,226.456,0.527999997138977,-2.447971374128374
226.706897,,0.0007130055272245079,226.926,0.5379999876022339,-2.425867509314591
227.172414,,0.0009330082213991025,227.389,0.5270000100135803,-2.449578434532079
227.63793099999998,,0.0032800648502645216,227.852,0.5339999794960022,-2.4341451486546535
228.103448,,0.0033901770082945502,228.317,0.5130000114440918,-2.479791405267483
228.56896600000002,,0.0010311899588189124,228.781,0.5249999761581421,-2.453623675712289
229.03448300000002,,0.002018302165933066,229.247,0.5370000004768372,-2.427537617855146
229.5,,0.003537992963762185,229.712,0.5210000276565552,-2.4625333670066674
229.965517,,0.0022054375352443855,230.177,0.5329999923706055,-2.436602558609807
230.431034,,0.0011805551789467403,230.642,0.5389999747276306,-2.423812153049313
230.896552,,0.0038631060263719518,231.108,0.5339999794960022,-2.4350461994782946
231.362069,,0.003656865607306635,231.571,0.5630000233650208,-2.3722542915852367
231.827586,,0.0012967480997798854,232.04,0.5299999713897705,-2.4445744966563887
232.293103,,0.0006397816296632781,232.503,0.5460000038146973,-2.410163478736815
232.758621,,0.0008512569211889243,232.966,0.5509999990463257,-2.3997264143430113
233.224138,,0.00023158455470802323,233.434,0.5519999861717224,-2.397997965396929
233.689655,,0.00010114713480745535,233.896,0.5170000195503235,-2.474681299690867
234.155172,,0.00030539155996488513,234.362,0.5410000085830688,-2.4227923834466734
234.62069,,0.0009483294203156053,234.825,0.5299999713897705,-2.447111759035746
235.086207,,0.0016884743716859259,235.29,0.5329999923706055,-2.4408742989143337
235.55172399999998,,0.0016381740586806494,235.756,0.5320000052452087,-2.443286628449426
236.01724099999998,,0.0005540961897274159,236.221,0.5270000100135803,-2.4543415092415817
236.482759,,0.0011393507493254959,236.689,0.5419999957084656,-2.421746224074054
236.94827600000002,,0.0032984137221827646,237.155,0.5339999794960022,-2.439179643401245
237.413793,,0.006182362797425586,237.62,0.546999990940094,-2.410780717734704
237.87931,,0.009492900597084167,238.085,0.5400000214576721,-2.4258762037943544
238.344828,,0.01196936850758389,238.548,0.5419999957084656,-2.421290204830436
238.810345,,0.01238229354671092,239.011,0.5230000019073486,-2.462389516377113
239.27586200000002,,0.010690985144825924,239.474,0.5270000100135803,-2.4533234039740544
239.741379,,0.00785514703961115,239.944,0.5379999876022339,-2.4289612442711204
240.206897,,0.004654240469499288,240.408,0.5180000066757202,-2.4721037672533286
240.672414,,0.0012669207395104543,240.87,0.5669999718666077,-2.3648992458558777
241.137931,,0.0018994995315234357,241.336,0.5460000038146973,-2.4101926030888197
241.603448,,0.0038067949921332398,241.799,0.5419999957084656,-2.418455809858265
242.068966,,0.003819809453202003,242.265,0.5379999876022339,-2.4267405413867653
242.534483,,0.002590283434903004,242.73,0.5490000247955322,-2.4023804435883513
243.0,,0.001382219618009398,243.195,0.5379999876022339,-2.425998065027693
243.465517,,0.00102485621296228,243.66,0.531000018119812,-2.440959499448011
243.93103399999998,,0.001775195581381378,244.126,0.4909999966621399,-2.527885375635399
244.39655199999999,,0.0033305546345254212,244.593,0.531000018119812,-2.4405959577486094
244.862069,,0.004577137406302549,245.059,0.5339999794960022,-2.4339971386158865
245.327586,,0.004301711339931408,245.522,0.5540000200271606,-2.3904422932953033
245.793103,,0.0027748204705832086,245.985,0.5009999871253967,-2.5060098120793204
246.258621,,0.0018784056359789191,246.456,0.5239999890327454,-2.456078815478414
246.724138,,0.0030422982307208917,246.918,0.5540000200271606,-2.390970104744085
247.18965500000002,,0.005583451887396292,247.382,0.5540000200271606,-2.391284408369267
247.655172,,0.007572077757440507,247.844,0.5799999833106995,-2.335006505569454
248.12069,,0.007830462310599643,248.31,0.5400000214576721,-2.422560243536789
248.586207,,0.006565047914357901,248.774,0.5320000052452087,-2.440426803101745
249.051724,,0.004492196439583887,249.24,0.5320000052452087,-2.44088112934011
249.517241,,0.002085249125443182,249.705,0.5299999713897705,-2.44569594152437
249.982759,,0.00028266465522867114,250.17,0.5419999957084656,-2.4199983155202767
250.44827600000002,,0.0019897473218376807,250.637,0.5519999861717224,-2.3986323869050072
250.913793,,0.0024597833216372846,251.103,0.5410000085830688,-2.4229788970626123
251.37931000000003,,0.0018840249758263125,251.564,0.5339999794960022,-2.438560317746785
251.844828,,0.0011637807946592385,252.033,0.5400000214576721,-2.425758630644934
252.31034499999998,,0.0006550171271473776,252.496,0.5519999861717224,-2.399815991365355
252.77586200000002,,0.0005320219411867803,252.959,0.5199999809265137,-2.4696584171339016
253.241379,,0.002927050849615178,253.427,0.5339999794960022,-2.43920433258392
253.706897,,0.004567278216772558,253.889,0.5389999747276306,-2.4282779498704468
254.172414,,0.002196013694868109,254.355,0.5440000295639038,-2.417271720396948
254.63793099999998,,0.004351507685950255,254.824,0.5379999876022339,-2.4301544009313174
255.10344800000001,,0.010282199657703805,255.29,0.46000000834465027,-2.599830649538329
255.56896600000002,,0.010331258352601406,255.756,0.5630000233650208,-2.3751113750651993
256.03448299999997,,0.004788296133668623,256.214,0.5419999957084656,-2.4204923873531223
256.5,,0.0009491539888090116,256.686,0.5299999713897705,-2.4462236471640995
256.965517,,0.0029308782756482365,257.144,0.5339999794960022,-2.437067960904194
257.431034,,0.0024665038645537633,257.611,0.5249999761581421,-2.4562200372289906
257.896552,,0.0025244531031971113,258.077,0.5299999713897705,-2.444870498011317
258.362069,,0.0027312960162205312,258.545,0.5249999761581421,-2.455321003229984
258.827586,,0.0003594712517324424,259.007,0.5170000195503235,-2.4723348017428495
259.29310300000003,,0.0046298696959874205,259.47,0.546999990940094,-2.406600116460652
259.758621,,0.008269452425922615,259.94,0.5210000276565552,-2.462920732268877
260.224138,,0.007056005935529303,260.401,0.5540000200271606,-2.3907620084705408
260.689655,,0.002027209217550363,260.87,0.5400000214576721,-2.4210683034546725
261.155172,,0.0026932094840455556,261.336,0.5270000100135803,-2.449270721917737
261.62068999999997,,0.00424328259079438,261.799,0.5479999780654907,-2.4034780137940075
262.086207,,0.0027771258339603587,262.265,0.5170000195503235,-2.4710552408242705
262.551724,,2.2132953195170375e-06,262.73,0.5289999842643738,-2.445030529615702
263.017241,,0.0022368733395964667,263.196,0.5379999876022339,-2.425617929479821
263.482759,,0.0023103471021309707,263.655,0.5419999957084656,-2.4171682952244975
263.94827599999996,,0.0001683863842096817,264.121,0.5080000162124634,-2.491569327629562
264.413793,,0.0029856649743422534,264.585,0.5260000228881836,-2.4527335681128086
264.87931,,0.002596992995488009,265.051,0.5199999809265137,-2.4662268989702243
265.34482799999995,,0.0019421171016734788,265.519,0.5289999842643738,-2.447068587008565
265.810345,,0.007196682538449321,265.981,0.5419999957084656,-2.419209555120392
266.27586199999996,,0.008907372707433116,266.449,0.550000011920929,-2.402242567213403
266.741379,,0.006831351083024404,266.911,0.5339999794960022,-2.4375475857603646
267.206897,,0.004522290924684926,267.377,0.5170000195503235,-2.475002423059676
267.672414,,0.004491638651700726,267.84,0.5529999732971191,-2.396947739222025
268.137931,,0.005346421510339533,268.305,0.546999990940094,-2.4103423318276986
268.603448,,0.0042335006465696046,268.77,0.5299999713897705,-2.4476381890863657
269.06896600000005,,0.0007409807003013784,269.236,0.527999997138977,-2.4521830389749657
269.53448299999997,,0.002667302499018828,269.7,0.5249999761581421,-2.458830100866409
270.0,,0.003647955875993895,270.166,0.5419999957084656,-2.421823897942274
270.465517,,0.0025336912045334607,270.631,0.5389999747276306,-2.4283090202617386
270.931034,,0.0016065725973482925,271.096,0.5400000214576721,-2.4259989098062373
271.396552,,0.0021655374920835292,271.559,0.5320000052452087,-2.4432204302390423
271.86206899999996,,0.0029765271515035403,272.029,0.5540000200271606,-2.3950122550671398
272.327586,,0.0019839389459799335,272.493,0.515999972820282,-2.477461557602534
272.793103,,0.0009020757109744938,272.955,0.5419999957084656,-2.420426479693787
273.258621,,0.0034762485106661378,273.419,0.5379999876022339,-2.4287120564741795
273.724138,,0.0037425008451439125,273.889,0.527999997138977,-2.4500436284572373
274.18965499999996,,0.002089010533566435,274.354,0.5299999713897705,-2.445220021314197
274.655172,,0.0005838277834937612,274.817,0.5210000276565552,-2.4643645325456056
275.12069,,0.0006392374561307461,275.282,0.5339999794960022,-2.435596437187519
275.586207,,0.0020746637245429187,275.748,0.5419999957084656,-2.4177521248080627
276.051724,,0.003996511474234782,276.214,0.578000009059906,-2.338947863898979
276.517241,,0.005333277889743548,276.678,0.5379999876022339,-2.42577400493955
276.98275900000004,,0.004667461796838439,277.144,0.5329999923706055,-2.436411207311917
277.448276,,0.0013366295714053935,277.608,0.5249999761581421,-2.45365734394069
277.913793,,0.002695072089024857,278.074,0.44600000977516174,-2.6256680471447287
278.37931,,0.0038076303911953996,278.537,0.515999972820282,-2.4731457710305667
278.844828,,0.0009115637115992854,278.999,0.5419999957084656,-2.416568395301241
279.31034500000004,,0.002498233373957124,279.467,0.5419999957084656,-2.4167159567639476
279.77586199999996,,0.0021039370932633274,279.929,0.531000018119812,-2.4409036999247062
280.241379,,0.002041184566017085,280.4,0.5360000133514404,-2.430301588726068
280.706897,,0.0057615106638461725,280.863,0.5130000114440918,-2.4807615430536663
281.172414,,0.0059633200277986196,281.329,0.5419999957084656,-2.4179810107252386
281.637931,,0.003830686296749114,281.789,0.5230000019073486,-2.4598121440153595
282.10344799999996,,0.0025211771808045314,282.254,0.5540000200271606,-2.3927334137423677
282.568966,,0.0032649804202790366,282.722,0.5370000004768372,-2.4302378755124017
283.034483,,0.00467886684513735,283.188,0.5329999923706055,-2.439413546616401
283.5,,0.005034860163187375,283.653,0.5370000004768372,-2.4311398772497723
283.965517,,0.0041256102919337125,284.118,0.5329999923706055,-2.440261785818321
284.431034,,0.0030379819772819684,284.585,0.5450000166893005,-2.414478947843254
284.89655200000004,,0.002758031048144444,285.051,0.5669999718666077,-2.366851653356222
285.362069,,0.0031768246290232705,285.511,0.5370000004768372,-2.432446145566361
285.827586,,0.0033575791351381063,285.974,0.5419999957084656,-2.421713713719657
286.293103,,0.002817949492017897,286.441,0.550000011920929,-2.4043664777669136
286.758621,,0.0024029689082548564,286.904,0.5400000214576721,-2.426153606884067
287.22413800000004,,0.0033498706786107657,287.369,0.5490000247955322,-2.406465332751418
287.689655,,0.005319281027240804,287.84,0.5170000195503235,-2.476023763129065
288.155172,,0.006079713414931439,288.306,0.5630000233650208,-2.3755748539148978
288.62069,,0.0038396358689665303,288.764,0.531000018119812,-2.4449947012254376
289.086207,,0.0004261046995017192,289.23,0.5529999732971191,-2.3967109089101726
289.55172400000004,,0.003720037131574682,289.696,0.5299999713897705,-2.446420814841297
290.01724099999996,,0.004109142979966104,290.162,0.5460000038146973,-2.411130458988846
290.482759,,0.0024066826269624,290.627,0.5389999747276306,-2.4259296492283577
290.948276,,0.0006580956691215655,291.093,0.5270000100135803,-2.4516165586511325
291.413793,,8.061535660409546e-05,291.555,0.5149999856948853,-2.477313081676156
291.87931,,0.0001299730941439791,292.025,0.5339999794960022,-2.4354949480792167
292.344828,,0.0011854159705461348,292.485,0.492000013589859,-2.5266110467762926
292.81034500000004,,0.0030209989875501666,292.956,0.5419999957084656,-2.4173402236769848
293.275862,,0.005034279930238437,293.419,0.5370000004768372,-2.4279528839620683
293.74137900000005,,0.00624433521367461,293.881,0.5320000052452087,-2.438631012320575
294.206897,,0.00593036469527455,294.347,0.515999972820282,-2.4733466785914744
294.672414,,0.003894986656917576,294.81,0.5299999713897705,-2.442779569525427
295.13793100000004,,0.00046621323789065535,295.276,0.5339999794960022,-2.4340770456195644
295.603448,,0.0035542559890104227,295.741,0.5260000228881836,-2.4515953277801286
296.068966,,0.00722059964400412,296.206,0.5379999876022339,-2.4256147765270484
296.534483,,0.009754524572299705,296.674,0.5239999890327454,-2.456347611193145
297.0,,0.010339315450322602,297.14,0.5299999713897705,-2.4435688504382544
297.46551700000003,,0.00810585975741275,297.605,0.5379999876022339,-2.4264846872662917
297.931034,,0.003246968097801643,298.07,0.5329999923706055,-2.4377638334544396
298.396552,,0.002022168730270556,298.533,0.5339999794960022,-2.4359999921392936
298.862069,,0.004865215306725465,298.995,0.5360000133514404,-2.432073480614121
299.327586,,0.004610707086931434,299.463,0.527999997138977,-2.449936480088766
299.79310300000003,,0.0032437963392768676,299.926,0.5400000214576721,-2.424216108381894
300.258621,,0.0027047195733723214,300.389,0.5249999761581421,-2.457296239965631
300.724138,,0.0025957643773364455,300.859,0.5419999957084656,-2.4206242096699064
301.189655,,0.0012822221775060632,301.324,0.5230000019073486,-2.46233738858662
301.65517200000005,,0.001374958973854641,301.789,0.5329999923706055,-2.440814305248537
302.12069,,0.00343780863182396,302.254,0.5450000166893005,-2.41487039224684
302.586207,,0.0031511427872812463,302.719,0.5379999876022339,-2.4302512007582373
303.05172400000004,,0.0010870150934722907,303.185,0.5630000233650208,-2.375841337037671
303.517241,,0.0004919011183255811,303.645,0.5210000276565552,-2.4673259682094115
303.982759,,0.00024560562320956824,304.11,0.5260000228881836,-2.456341065690972
304.448276,,0.0008483982411758047,304.578,0.527999997138977,-2.451822921213326
304.913793,,0.0009476332838509461,305.044,0.5339999794960022,-2.4385259626416684
305.37931000000003,,0.00031244947912402297,305.507,0.5249999761581421,-2.4578516477945516
305.844828,,0.0015110300070757744,305.97,0.5230000019073486,-2.461878838991064
306.310345,,0.0013636728137211241,306.434,0.5210000276565552,-2.465868731109672
306.775862,,0.00042583088761542233,306.904,0.5419999957084656,-2.4197235968194497
307.241379,,0.0006224143048689313,307.369,0.5249999761581421,-2.4563525353567197
307.70689699999997,,0.0031251646594398328,307.833,0.550000011920929,-2.401475742049694
308.172414,,0.006751885791728728,308.299,0.5320000052452087,-2.440290795560333
308.637931,,0.008588839585303815,308.759,0.5249999761581421,-2.455163037160884
309.103448,,0.006601609983055452,309.224,0.5540000200271606,-2.3916374542644188
309.568966,,0.0020168353185516276,309.69,0.5419999957084656,-2.4174799062892847
310.034483,,0.0012613979898618102,310.155,0.5440000295639038,-2.412873222688469
310.5,,0.0005244320037581404,310.622,0.5389999747276306,-2.4235769419857647
310.96551700000003,,0.0024501239616024576,311.088,0.5640000104904175,-2.3689858455649033
311.431034,,0.0031430308765534954,311.556,0.5299999713897705,-2.4430034101894096
311.896552,,0.00025236675781883754,312.018,0.5440000295639038,-2.4125158137745824
312.362069,,0.004313840712654125,312.486,0.5410000085830688,-2.419135160482115
312.827586,,0.004283282438177467,312.948,0.5189999938011169,-2.4672160628777955
313.29310300000003,,0.00022546127914333907,313.411,0.5289999842643738,-2.445643303074463
313.758621,,0.004584982230854008,313.874,0.5419999957084656,-2.417590743554283
314.224138,,0.004252431708678244,314.339,0.5189999938011169,-2.468017107434881
314.689655,,0.00042051725647023147,314.806,0.5170000195503235,-2.4727300959582363
315.155172,,0.004977429610180616,315.272,0.531000018119812,-2.442612301591893
315.62068999999997,,0.005753120953827469,315.74,0.5249999761581421,-2.4560829032319162
316.086207,,0.0030349167207240316,316.206,0.5529999732971191,-2.395481813864306
316.551724,,0.0003041261244275037,316.67,0.5379999876022339,-2.428552092288946
317.017241,,0.00199634957182908,317.129,0.5299999713897705,-2.4463496253193933
317.482759,,0.0018227860658160653,317.601,0.5419999957084656,-2.420540970103557
317.94827599999996,,0.0009006732075149543,318.059,0.550000011920929,-2.4034032227388695
318.413793,,0.0004164667931957583,318.526,0.5630000233650208,-2.375319016407855
318.87931000000003,,0.00080423815085378,318.989,0.5379999876022339,-2.4299631422657604
319.344828,,0.00147644930110301,319.459,0.5529999732971191,-2.397396089341527
319.810345,,0.0012096694767326657,319.922,0.5400000214576721,-2.4257629764475284
320.275862,,0.0007705938999516497,320.39,0.5370000004768372,-2.4322747071979838
320.741379,,0.003714534312184118,320.852,0.5339999794960022,-2.4387191781143263
321.20689699999997,,0.005514306885000592,321.318,0.5540000200271606,-2.3949903074799805
321.672414,,0.004382305004957724,321.786,0.5270000100135803,-2.4535987376884743
322.137931,,0.0005146006086152113,322.244,0.531000018119812,-2.4446171671327015
322.603448,,0.004045601752384325,322.711,0.5540000200271606,-2.3941978287128713
323.068966,,0.007202812099244885,323.177,0.49000000953674316,-2.533287550888315
323.53448299999997,,0.008336622678602818,323.645,0.5299999713897705,-2.4457762593432877
324.0,,0.008032693035403717,324.111,0.5540000200271606,-2.393112096913715
324.465517,,0.006592663366525907,324.575,0.5519999861717224,-2.3970917962463707
324.931034,,0.003523288866085455,325.034,0.5389999747276306,-2.4250467288592255
325.396552,,0.0009580002652104509,325.504,0.5199999809265137,-2.466095658852523
325.86206899999996,,0.004624190002745408,325.966,0.5419999957084656,-2.4178530207453943
326.327586,,0.00493294933548977,326.43,0.5170000195503235,-2.472049254170796
326.793103,,0.0022107078307938436,326.9,0.5419999957084656,-2.4173635130527718
327.258621,,0.000298537632151495,327.365,0.5189999938011169,-2.467309589869877
327.724138,,0.00028149385780408645,327.829,0.5410000085830688,-2.419277679429573
328.189655,,0.0008941329739849381,328.294,0.531000018119812,-2.4410262953304445
328.655172,,0.00020098471768678074,328.759,0.5260000228881836,-2.4519461926658948
329.12068999999997,,0.003124160139854153,329.225,0.5299999713897705,-2.4433219373140673
329.586207,,0.00669280665394027,329.69,0.5299999713897705,-2.443472494526627
330.051724,,0.007568100956087961,330.155,0.531000018119812,-2.4414995284848477
330.517241,,0.004964241276728728,330.615,0.5519999861717224,-2.3960018897363877
330.982759,,0.0006118973636694512,331.081,0.5199999809265137,-2.466012468977429
331.44827599999996,,0.0028377160034010456,331.544,0.5249999761581421,-2.4554443892182527
331.913793,,0.0036391341595289188,332.014,0.5099999904632568,-2.4884711977956533
332.37931,,0.0016703819777430604,332.474,0.5450000166893005,-2.4125765430436763
332.844828,,0.0019280659064212719,332.944,0.5270000100135803,-2.4521496873697513
333.310345,,0.005319677696609565,333.407,0.5329999923706055,-2.439423579674336
333.77586199999996,,0.00662710615642321,333.87,0.503000020980835,-2.5051072388476885
334.241379,,0.005130636074397883,334.336,0.5419999957084656,-2.4204332241081294
334.706897,,0.002090046050558025,334.799,0.5170000195503235,-2.475152452100183
335.17241399999995,,0.00043417414392604335,335.265,0.5289999842643738,-2.449214066732164
335.637931,,0.0018321028519608508,335.729,0.5329999923706055,-2.4406510055226263
336.103448,,0.0032376134618804266,336.195,0.546999990940094,-2.4102427442321903
336.56896600000005,,0.005470666508995792,336.66,0.5630000233650208,-2.37541500852756
337.034483,,0.00775754185957449,337.125,0.5669999718666077,-2.3666676934876394
337.5,,0.00883296757722057,337.59,0.5149999856948853,-2.4798630638409898
337.965517,,0.008304604538854047,338.056,0.5249999761581421,-2.457925808978825
338.431034,,0.006534079031248969,338.526,0.5299999713897705,-2.446831000717532
338.89655200000004,,0.004087928678435348,338.989,0.5270000100135803,-2.4531208153401893
339.36206899999996,,0.0017176564550838234,339.452,0.5440000295639038,-2.4158008429883506
339.827586,,0.00012988251906474838,339.914,0.5090000033378601,-2.4917429573180674
340.293103,,0.0005706816008246246,340.386,0.5419999957084656,-2.4195192530759657
340.758621,,0.0006607604284656256,340.848,0.5299999713897705,-2.4453270325815533
341.224138,,6.920633145158421e-05,341.314,0.5419999957084656,-2.4188493298534652
341.68965499999996,,0.0022125977384423404,341.778,0.5299999713897705,-2.4446717395292676
342.155172,,0.005394660884016632,342.244,0.5299999713897705,-2.444372714776286
342.62069,,0.0076656508427450695,342.708,0.5540000200271606,-2.3918171808984128
343.086207,,0.0071437362344592085,343.175,0.5410000085830688,-2.419910294212885
343.551724,,0.004395210986903245,343.634,0.5419999957084656,-2.4175475820304326
344.01724099999996,,0.0024643745280378076,344.099,0.5519999861717224,-2.395627626442125
344.48275900000004,,0.003870586555438393,344.567,0.5460000038146973,-2.408620079994318
344.948276,,0.00770331472517974,345.03,0.5460000038146973,-2.408596885782627
345.413793,,0.010276987810081382,345.5,0.4740000069141388,-2.5654944670042137
345.87931,,0.008828054086237734,345.963,0.5419999957084656,-2.417439205883727
346.344828,,0.004189607648034261,346.43,0.5320000052452087,-2.4393722793113324
346.81034500000004,,0.00023518308360155366,346.892,0.5360000133514404,-2.4308520979757784
347.275862,,0.0014616752283361117,347.358,0.5299999713897705,-2.444160120172603
347.741379,,0.0012520790856341327,347.82,0.5509999990463257,-2.3986782014546004
348.206897,,0.006188077942271256,348.286,0.5260000228881836,-2.4534390904750674
348.672414,,0.009693335715354221,348.752,0.5389999747276306,-2.425427402593149
349.13793100000004,,0.008153099251417802,349.217,0.5180000066757202,-2.4714962082810574
349.60344799999996,,0.001281051342578295,349.682,0.5379999876022339,-2.428237412145462
350.068966,,0.006891088264516198,350.149,0.46399998664855957,-2.589759835407249
350.534483,,0.011694997954423463,350.615,0.5339999794960022,-2.437536785037265
351.0,,0.012218647160595132,351.081,0.5389999747276306,-2.4268959123350555
351.465517,,0.0110394153906955,351.541,0.5260000228881836,-2.4554316074385287
351.93103399999995,,0.010411017203624908,352.011,0.5180000066757202,-2.4730292715680084
352.396552,,0.010288711120172005,352.474,0.515999972820282,-2.4775057054722027
352.862069,,0.009697608678610914,352.936,0.5379999876022339,-2.429641416534707
353.32758600000005,,0.008223677353851317,353.4,0.527999997138977,-2.4514384704641463
353.793103,,0.005708602566285497,353.87,0.515999972820282,-2.477537575132559
354.258621,,0.0017770020073998533,354.336,0.531000018119812,-2.4447596988330456
354.72413800000004,,0.003338159870126916,354.8,0.5339999794960022,-2.4380754215354536
355.189655,,0.007874514072414813,355.265,0.5429999828338623,-2.4182731022741417
355.655172,,0.009289667691746448,355.729,0.5260000228881836,-2.45507576928856
356.12069,,0.006348429150264438,356.195,0.5210000276565552,-2.465703020686255
356.586207,,0.0005796888409117943,356.66,0.5049999952316284,-2.5002731078739138
357.05172400000004,,0.004331991267903144,357.125,0.574999988079071,-2.3474654559537136
357.517241,,0.00498527119523625,357.585,0.5260000228881836,-2.4539112636343265
357.982759,,0.0008791577060330389,358.051,0.5249999761581421,-2.4557866298429736
358.448276,,0.004861598110454517,358.515,0.5170000195503235,-2.4729275338472467
358.913793,,0.007619599993507999,358.985,0.5540000200271606,-2.3920531436899575
359.37931000000003,,0.004937408522952318,359.448,0.5339999794960022,-2.4353930388677147
359.844828,,0.001347521909896449,359.911,0.5170000195503235,-2.47223559702483
360.310345,,0.0066518781918309495,360.377,0.5339999794960022,-2.435049714188324
360.775862,,0.007809690626816778,360.84,0.5379999876022339,-2.4262357484512447
361.241379,,0.005985987326801442,361.306,0.5289999842643738,-2.4457964659275824
361.706897,,0.005271202851829472,361.771,0.527999997138977,-2.447981738067329
362.172414,,0.008255957651019283,362.237,0.5419999957084656,-2.4175406167160483
362.63793100000004,,0.013315724957924872,362.704,0.5709999799728394,-2.354469966351953
363.103448,,0.01643061836057027,363.169,0.5379999876022339,-2.426521336003353
363.568966,,0.01519734451986947,363.634,0.46399998664855957,-2.587940219580991
364.034483,,0.010660570970407582,364.099,0.5339999794960022,-2.4356722169232445
364.5,,0.005690174987368354,364.56,0.5289999842643738,-2.4468327103562135
364.96551700000003,,0.0023160869921529464,365.029,0.5379999876022339,-2.4275120816304225
365.431034,,0.0006205006559889249,365.493,0.5210000276565552,-2.46484711148982
365.896552,,0.000458172784608454,365.955,0.5410000085830688,-2.4215737065833567
366.362069,,0.0017032734303260226,366.419,0.5339999794960022,-2.4371155021628987
366.827586,,0.002937438516128311,366.888,0.5210000276565552,-2.465711596329059
367.29310300000003,,0.003551277492763938,367.354,0.5429999828338623,-2.4180293230019068
367.758621,,0.0035660920264990433,367.816,0.531000018119812,-2.444386968590573
368.224138,,0.003948902144830351,368.282,0.5210000276565552,-2.466346944304033
368.689655,,0.005624117812034221,368.749,0.5419999957084656,-2.4207232941218897
369.155172,,0.008200644211481065,369.215,0.546999990940094,-2.409907781752445
369.62068999999997,,0.010019750439554706,369.674,0.5419999957084656,-2.420825772578226
370.086207,,0.009734641079273177,370.14,0.5419999957084656,-2.4207970748493866
370.55172400000004,,0.0077262196858068595,370.606,0.5410000085830688,-2.4228948016049765
371.017241,,0.005637287435519624,371.072,0.5630000233650208,-2.374833838122293
371.482759,,0.004491751346636585,371.536,0.5210000276565552,-2.46616109038257
371.948276,,0.003669426331621922,371.999,0.550000011920929,-2.4027654126617723
372.413793,,0.0019812030431132816,372.467,0.550000011920929,-2.4025184374848814
372.87931000000003,,0.0005322437257591212,372.93,0.5389999747276306,-2.4262123489206573
373.344828,,0.002261858686923267,373.4,0.5379999876022339,-2.4281046046970083
373.810345,,0.0015105710219621162,373.863,0.5410000085830688,-2.4212766797034826
374.275862,,0.0017635519976869165,374.329,0.550000011920929,-2.4013805083885376
374.741379,,0.0054832496465152805,374.789,0.531000018119812,-2.4424993688483925
375.20689699999997,,0.00662464587791499,375.254,0.5180000066757202,-2.470568852939648
375.672414,,0.0034024354972016467,375.719,0.5170000195503235,-2.472525891121866
376.137931,,0.0029657066853746882,376.185,0.5170000195503235,-2.472342958085158
376.603448,,0.00873569875804397,376.655,0.5419999957084656,-2.417737697469618
377.068966,,0.010660037444805244,377.114,0.5170000195503235,-2.4721123587247256
377.53448299999997,,0.008900829252339726,377.579,0.550000011920929,-2.400175458984619
378.0,,0.006525174150861255,378.044,0.5429999828338623,-2.4154349474757697
378.465517,,0.005941823499124804,378.515,0.5699999928474426,-2.3566691568150127
378.931034,,0.006446787262138994,378.978,0.527999997138977,-2.448276797841364
379.396552,,0.005636541284490667,379.441,0.5210000276565552,-2.4636758617141425
379.862069,,0.002571686918920193,379.904,0.5329999923706055,-2.4377207488189616
380.327586,,0.0011759387441440468,380.369,0.5080000162124634,-2.4924094056552213
380.79310300000003,,0.0033695793818470563,380.84,0.5180000066757202,-2.470872442239725
381.258621,,0.003345831725748745,381.299,0.503000020980835,-2.5038208224155794
381.724138,,0.002330930697883431,381.771,0.5270000100135803,-2.451812166201605
382.189655,,0.001952579098063524,382.229,0.5270000100135803,-2.4520914927331234
382.655172,,0.0026327486273133114,382.696,0.5460000038146973,-2.4109669432535616
383.12068999999997,,0.0032238103959734642,383.162,0.5249999761581421,-2.4569697222746396
383.586207,,0.0022496092393238247,383.628,0.5540000200271606,-2.3940129339636407
384.051724,,5.4737932421158514e-05,384.094,0.5879999995231628,-2.3201275536738963
384.517241,,0.001137132738423273,384.556,0.5299999713897705,-2.446635743805615
384.982759,,0.0013932441419061386,385.019,0.5350000262260437,-2.435843630236275
385.44827599999996,,0.00643286191711653,385.489,0.5440000295639038,-2.416289589001723
385.913793,,0.009660078389911408,385.951,0.515999972820282,-2.4772969740502533
386.37931,,0.007915074758742695,386.419,0.5529999732971191,-2.3966437176141477
386.84482799999995,,0.002711864320198843,386.882,0.5419999957084656,-2.420518401854107
387.310345,,0.00139822683839354,387.348,0.531000018119812,-2.444349171521905
387.775862,,0.0017380822349179416,387.811,0.5419999957084656,-2.420211012225416
388.241379,,3.515132077526364e-05,388.276,0.5059999823570251,-2.49843706641041
388.70689699999997,,0.0005039896155884427,388.741,0.49000000953674316,-2.5330662002476383
389.172414,,0.0013343962661623244,389.207,0.5509999990463257,-2.399923384027158
389.637931,,0.003102320488927505,389.674,0.5230000019073486,-2.4606709165726866
390.103448,,0.0018678836710957329,390.14,0.5419999957084656,-2.4190204321915743
390.56896600000005,,0.002655249323963057,390.604,0.5429999828338623,-2.4165922451289843
391.03448299999997,,0.007710402221405121,391.07,0.5249999761581421,-2.4555729827824226
391.5,,0.009991822812549265,391.53,0.5339999794960022,-2.435752800693913
391.965517,,0.008463617902871793,391.999,0.5189999938011169,-2.4682498422908186
392.431034,,0.00488503688298371,392.46,0.5180000066757202,-2.470281607543708
392.896552,,0.0019052910880923138,392.929,0.5490000247955322,-2.4026366427199854
393.36206899999996,,0.00090689253979189,393.39,0.5540000200271606,-2.3916785946036647
393.827586,,0.0013783951501377613,393.86,0.5440000295639038,-2.4134434570292624
394.293103,,0.0016633654337896361,394.325,0.46399998664855957,-2.5877592696000873
394.75862099999995,,0.0002845684729466199,394.785,0.5270000100135803,-2.4505744027739453
395.224138,,0.002649506775811351,395.251,0.5450000166893005,-2.41147125111383
395.68965499999996,,0.005048801984610883,395.716,0.5320000052452087,-2.439943073463876
396.155172,,0.00459872031475703,396.181,0.5149999856948853,-2.477161571938715
396.62069,,0.001352078191367662,396.648,0.5540000200271606,-2.3924015832597605
397.086207,,0.00200717272626692,397.114,0.5400000214576721,-2.4231281554758395
397.551724,,0.0029139129556268527,397.579,0.5529999732971191,-2.3950413880359895
398.017241,,0.0015501983671180252,398.045,0.5210000276565552,-2.464996276531656
398.48275900000004,,0.00037347096558735615,398.508,0.5419999957084656,-2.419478368162997
398.94827599999996,,0.0012133869976710147,398.97,0.574999988079071,-2.347803653360954
399.413793,,0.0031675163618561978,399.434,0.5669999718666077,-2.3654320620064695
399.87931,,0.0036091735344226093,399.903,0.531000018119812,-2.444035098568867
400.344828,,0.001351778567158683,400.369,0.5170000195503235,-2.474677030604504
400.810345,,0.0016115094746857826,400.833,0.5239999890327454,-2.4595333365370227
401.27586199999996,,0.002231979418731963,401.299,0.5460000038146973,-2.4116722393864816
401.741379,,0.00020076117637359592,401.764,0.5210000276565552,-2.4661677178992023
402.206897,,0.0014310086767982321,402.229,0.5389999747276306,-2.4269411507776333
402.672414,,1.8562919773465537e-06,402.689,0.5289999842643738,-2.448677048958767
403.137931,,0.003237660332020455,403.155,0.5419999957084656,-2.4202662319321457
403.60344799999996,,0.004460012942938185,403.619,0.5419999957084656,-2.42014301072606
404.068966,,0.0019577988097269844,404.084,0.5180000066757202,-2.4722769995013314
404.534483,,0.0016571028516592457,404.552,0.5360000133514404,-2.4328832046939217
405.0,,0.002497607652143097,405.015,0.5419999957084656,-2.4196143914822135
405.465517,,0.0002094436907040305,405.485,0.5389999747276306,-2.4259406163928583
405.931034,,0.003825801615391239,405.948,0.43799999356269836,-2.645770372993899
406.39655200000004,,0.005973696428352818,406.411,0.5299999713897705,-2.445125965019737
406.862069,,0.006994380738246323,406.874,0.5419999957084656,-2.4187832942030796
407.327586,,0.008277071209049894,407.339,0.531000018119812,-2.4425636949563097
407.793103,,0.009494786592343518,407.806,0.5789999961853027,-2.3378230057155736
408.258621,,0.008845596721795615,408.271,0.5299999713897705,-2.444434805124996
408.72413800000004,,0.005666534064899649,408.738,0.5180000066757202,-2.4704654271520337
409.18965499999996,,0.0015618965717141117,409.204,0.5419999957084656,-2.418098031569466
409.655172,,0.0013046959608141368,409.67,0.5360000133514404,-2.4311250073928634
410.12069,,0.002216613598501422,410.129,0.5419999957084656,-2.4180440190756944
410.586207,,0.0019453137966374933,410.601,0.5419999957084656,-2.4180705152268938
411.05172400000004,,0.001570652469886442,411.059,0.546999990940094,-2.407238064362005
411.51724099999996,,0.0016404540637611357,411.526,0.5249999761581421,-2.455261477632435
411.982759,,0.0018191508734585985,411.995,0.5460000038146973,-2.4096323281477714
412.448276,,0.0009887958228006787,412.456,0.5210000276565552,-2.4642464766410854
412.913793,,0.0015969710903649893,412.926,0.527999997138977,-2.4491649049500026
413.37931,,0.004833856561660922,413.389,0.5440000295639038,-2.4144906523313865
413.844828,,0.006269851025575206,413.852,0.5509999990463257,-2.399432817591993
414.31034500000004,,0.004817147705199011,414.317,0.5370000004768372,-2.4301284701213697
414.775862,,0.002314179367613316,414.781,0.5379999876022339,-2.4281405005104975
415.241379,,0.0015527332871638688,415.247,0.531000018119812,-2.4435720400928505
415.706897,,0.0031921381419811787,415.715,0.5370000004768372,-2.4306661046444624
416.172414,,0.005338926952936698,416.18,0.5630000233650208,-2.3741662175357523
416.63793100000004,,0.00571755127665719,416.645,0.5270000100135803,-2.452716927689602
417.103448,,0.0035042668402971255,417.104,0.5339999794960022,-2.4375571814100083
417.568966,,0.0005670505873495775,417.578,0.5339999794960022,-2.437617115955273
418.034483,,0.004857673943346268,418.036,0.5460000038146973,-2.411500413401137
418.5,,0.007372824993772952,418.504,0.5419999957084656,-2.4202084165839284
418.96551700000003,,0.00662618577401244,418.966,0.5180000066757202,-2.472456484911407
419.43103399999995,,0.0030004148259042945,419.43,0.5230000019073486,-2.4614933005140633
419.896552,,0.000899036358600166,419.899,0.5419999957084656,-2.4200009500214463
420.362069,,0.00230742277460382,420.365,0.5540000200271606,-2.393733294546976
420.827586,,0.0010022095993279052,420.828,0.5299999713897705,-2.4458751563050485
421.293103,,0.0009222563260489698,421.294,0.4729999899864197,-2.569896825395587
421.758621,,0.0021554000167657867,421.759,0.5419999957084656,-2.419399765707902
422.22413800000004,,0.0036963091107030973,422.224,0.5329999923706055,-2.438832477255277
422.689655,,0.006400120661617482,422.69,0.5199999809265137,-2.4669796974511895
423.15517200000005,,0.008288493510303207,423.155,0.5419999957084656,-2.418879721970161
423.62069,,0.006272230351281652,423.615,0.5540000200271606,-2.392576222536986
424.086207,,0.0005946297621849975,424.081,0.5189999938011169,-2.4686840296480708
424.55172400000004,,0.0042737627088061825,424.548,0.5419999957084656,-2.418449862315451
425.017241,,0.004333773667328269,425.01,0.5339999794960022,-2.4357773065192956
425.482759,,0.0007854402724821369,425.478,0.5419999957084656,-2.4182724592467135
425.948276,,0.001267713967287656,425.94,0.5339999794960022,-2.435654409124167
426.413793,,0.00126568341025972,426.404,0.5419999957084656,-2.4182075198649904
426.87931000000003,,0.0059146743717259495,426.874,0.531000018119812,-2.4421849832786022
427.344828,,0.007435107589871678,427.34,0.5389999747276306,-2.4247978187408306
427.810345,,0.003710986615915996,427.806,0.5699999928474426,-2.3573289857251756
428.275862,,0.0016821131936279783,428.264,0.5799999833106995,-2.33563543517957
428.741379,,0.003206150266295813,428.733,0.5210000276565552,-2.464289328747843
429.20689699999997,,0.0004471584988400148,429.199,0.5460000038146973,-2.4099556039786907
429.672414,,0.004818251056903115,429.665,0.5299999713897705,-2.44496165554582
430.137931,,0.004860535162185098,430.131,0.5130000114440918,-2.4821572325883325
430.603448,,0.0005291663437617943,430.589,0.5139999985694885,-2.480144290904482
431.068966,,0.0038902627448761085,431.055,0.5379999876022339,-2.428024153323524
431.534483,,0.004957596108027625,431.523,0.5669999718666077,-2.3650058442936666
432.0,,0.00307197405579719,431.985,0.5320000052452087,-2.441410118732346
432.46551700000003,,0.0009732234227723272,432.453,0.5429999828338623,-2.417581683303781
432.931034,,0.0008167953158235812,432.914,0.5329999923706055,-2.439486102444029
433.396552,,0.0026146399849044217,433.382,0.5440000295639038,-2.4156165019853675
433.862069,,0.004422775858700447,433.844,0.5460000038146973,-2.411329421721259
434.327586,,0.003931598027756767,434.31,0.5260000228881836,-2.454945093215978
434.79310300000003,,0.0006434042653062326,434.774,0.5199999809265137,-2.4680319895990195
435.258621,,0.0032222605746148876,435.24,0.531000018119812,-2.444053889098969
435.724138,,0.004436665907120588,435.707,0.5899999737739563,-2.3154720862887843
436.189655,,0.0018542012941470056,436.173,0.5249999761581421,-2.4570141447504543
436.655172,,0.0021732977040993177,436.637,0.5389999747276306,-2.4264177360868917
437.12068999999997,,0.0038022417257852813,437.103,0.515999972820282,-2.4764103641051385
437.586207,,0.0013874810668990597,437.57,0.5410000085830688,-2.4218105910221235
438.051724,,0.002885192679944848,438.033,0.550000011920929,-2.4020556431987834
438.517241,,0.005212357201166525,438.496,0.5249999761581421,-2.456365482644305
438.982759,,0.0039824015978431725,438.959,0.531000018119812,-2.4431331839486665
439.448276,,0.0012675934415775963,439.43,0.5070000290870667,-2.495262242742995
439.913793,,0.000553344222922727,439.892,0.5659999847412109,-2.3665698892817337
440.37931000000003,,0.0030607761108033286,440.358,0.5070000290870667,-2.4949682753198137
440.844828,,0.006315366656756726,440.82,0.5270000100135803,-2.4512688437958916
441.310345,,0.006421283639280061,441.286,0.5210000276565552,-2.4642337860172017
441.775862,,0.0019497037801294128,441.752,0.5249999761581421,-2.4554348580807
442.241379,,0.004447614099804433,442.217,0.42899999022483826,-2.6645273278369377
442.70689699999997,,0.00857385961550765,442.682,0.5540000200271606,-2.392167562239469
443.172414,,0.008701787378221512,443.148,0.5299999713897705,-2.4444540374175885
443.637931,,0.006550273098522887,443.615,0.5299999713897705,-2.4444783333560864
444.103448,,0.004676319863996537,444.074,0.531000018119812,-2.442348672816792
444.568966,,0.004276012364477781,444.544,0.5490000247955322,-2.4032046095853543
445.03448299999997,,0.00571971498388939,445.007,0.5270000100135803,-2.4512263150533973
445.5,,0.009369089513798789,445.474,0.5299999713897705,-2.444798971391718
445.965517,,0.01443667349263606,445.936,0.5270000100135803,-2.4514573260193053
446.431034,,0.0180748098256668,446.4,0.503000020980835,-2.5038779664751254
446.896552,,0.017442598801542558,446.87,0.527999997138977,-2.4495517854311593
447.36206899999996,,0.012868955298544173,447.335,0.5360000133514404,-2.4322644967491667
447.827586,,0.007996124650298638,447.799,0.527999997138977,-2.449832650347465
448.29310300000003,,0.006600317494684378,448.265,0.5540000200271606,-2.3933191152650735
448.758621,,0.009685830528037336,448.73,0.546999990940094,-2.4086890332913993
449.224138,,0.015254321602607809,449.195,0.5490000247955322,-2.4044352269501403
449.689655,,0.019930394906388677,449.659,0.5389999747276306,-2.4263070741319734
450.155172,,0.020858938475381707,450.125,0.5339999794960022,-2.4372654860337786
450.62068999999997,,0.017260006826100148,450.59,0.5389999747276306,-2.426416125285519
451.086207,,0.011201784984320166,451.056,0.5210000276565552,-2.4656536827955415
451.551724,,0.006599266528831342,451.518,0.5299999713897705,-2.4460463165436424
452.017241,,0.006158466177297449,451.981,0.5249999761581421,-2.4569188531721307
452.482759,,0.00850912534785423,452.449,0.531000018119812,-2.4438061096026718
452.94827599999996,,0.00888485840895005,452.911,0.5180000066757202,-2.4720695232449423
453.413793,,0.0033276728402808825,453.382,0.550000011920929,-2.4022773096765446
453.87931,,0.007957433756923862,453.844,0.5070000290870667,-2.4958698118323266
454.344828,,0.02140336082381529,454.31,0.5299999713897705,-2.445661179699908
454.810345,,0.03314951049177751,454.774,0.5249999761581421,-2.456447326736212
455.27586199999996,,0.04074021951097834,455.239,0.5170000195503235,-2.4737652479844665
455.741379,,0.04311047398637959,455.704,0.5529999732971191,-2.3952217227179218
456.206897,,0.04064681121401206,456.17,0.6449999809265137,-2.1946729791066
456.672414,,0.03532260508573937,456.63,0.5070000290870667,-2.495214471156169
457.137931,,0.02966665045073011,457.095,0.546999990940094,-2.407963573753048
457.603448,,0.02508001297381822,457.563,0.5460000038146973,-2.4100483430409914
458.06896600000005,,0.021306064501676367,458.026,0.5400000214576721,-2.4230395954953186
458.53448299999997,,0.017443494826940995,458.489,0.515999972820282,-2.475262873185757
459.0,,0.013113518605163368,458.959,0.5249999761581421,-2.455609371441869
459.465517,,0.008609061623940685,459.419,0.5289999842643738,-2.446868997701898
459.931034,,0.004391762617059887,459.889,0.5419999957084656,-2.418540547348011
460.39655200000004,,0.0009289197204019651,460.354,0.5149999856948853,-2.477377648098179
460.86206899999996,,0.001163769525569196,460.817,0.5249999761581421,-2.4556240522277704
461.327586,,0.0014432875808084952,461.282,0.550000011920929,-2.4012082197084093
461.793103,,0.0002630477664834562,461.748,0.5299999713897705,-2.44484670541787
462.258621,,0.0012293416828391512,462.214,0.5270000100135803,-2.4514609223145305
462.724138,,0.0017717761921835064,462.679,0.5270000100135803,-2.4515500180315937
463.18965499999996,,0.000607626456720478,463.145,0.5419999957084656,-2.418966951334532
463.655172,,0.002149646409602611,463.604,0.5410000085830688,-2.421246065426173
464.12069,,0.005258439882655893,464.07,0.5009999871253967,-2.5084937350325163
464.58620699999994,,0.006698757653274897,464.537,0.5230000019073486,-2.460664165747035
465.051724,,0.005192929343877067,465.0,0.5389999747276306,-2.4259021943009245
465.517241,,0.0019220282235637895,465.47,0.4440000057220459,-2.632963605121078
465.98275900000004,,0.00013447331437261136,465.933,0.531000018119812,-2.4435032485025343
466.448276,,0.0020242519686025926,466.397,0.527999997138977,-2.450109821914201
466.913793,,0.006013452471840739,466.859,0.5239999890327454,-2.458879861770726
467.37931,,0.008108305820930908,467.325,0.5260000228881836,-2.454561301108572
467.844828,,0.006247873678661891,467.789,0.5379999876022339,-2.428438490473079
468.31034500000004,,0.002480842108727935,468.255,0.5379999876022339,-2.4284405287508224
468.77586199999996,,0.00034616324212248794,468.722,0.5239999890327454,-2.458924991060132
469.241379,,0.000831774048219391,469.188,0.5419999957084656,-2.4196749795440247
469.706897,,0.0018114574729665726,469.655,0.527999997138977,-2.450125287234452
470.172414,,0.001242590954737054,470.114,0.4620000123977661,-2.593852178881652
470.63793100000004,,9.790894391411276e-05,470.586,0.5170000195503235,-2.473953365989463
471.10344799999996,,0.00041229649064204103,471.044,0.5210000276565552,-2.465158084695203
471.568966,,0.003936372396606886,471.515,0.5299999713897705,-2.445463427606697
472.034483,,0.008561329737267117,471.977,0.5270000100135803,-2.451908544166261
472.5,,0.011258232855768028,472.445,0.5070000290870667,-2.4953901551885855
472.965517,,0.010980322358045795,472.908,0.5419999957084656,-2.419048627183656
473.43103399999995,,0.00917191398789269,473.375,0.531000018119812,-2.442929343005454
473.89655200000004,,0.007538081076760675,473.839,0.5400000214576721,-2.4232438188643854
474.362069,,0.006401447851214834,474.305,0.5389999747276306,-2.4253538850117256
474.827586,,0.005323480810230884,474.77,0.5479999780654907,-2.405688155227721
475.293103,,0.004163564011097164,475.229,0.5419999957084656,-2.4187145190319925
475.758621,,0.0031481195443472153,475.7,0.5249999761581421,-2.4557202785622203
476.22413800000004,,0.002730851458834615,476.159,0.5239999890327454,-2.4578834926341657
476.689655,,0.003434230514881856,476.626,0.546999990940094,-2.4077754471559394
477.155172,,0.004878007496242987,477.092,0.5260000228881836,-2.4535436884994204
477.62069,,0.005100838175704477,477.555,0.5299999713897705,-2.444861386877122
478.086207,,0.0023176497101875773,478.025,0.5440000295639038,-2.41440678938542
478.55172400000004,,0.0020794597583688665,478.486,0.531000018119812,-2.4427884447120904
479.01724099999996,,0.003610804984601396,478.955,0.5299999713897705,-2.4450373036414716
479.482759,,0.0008049670306514652,479.419,0.5730000138282776,-2.3514335597027283
479.948276,,0.008916702246904117,479.881,0.5170000195503235,-2.473521311782615
480.413793,,0.015035373075807896,480.347,0.5540000200271606,-2.3929978319385414
480.87931000000003,,0.015785333493490015,480.811,0.5360000133514404,-2.432300527013014
481.344828,,0.012816003927555334,481.276,0.5009999871253967,-2.5086387033772124
481.810345,,0.00991860495247258,481.741,0.5210000276565552,-2.465148056882039
482.275862,,0.008942581169103896,482.206,0.5400000214576721,-2.4238301543935594
482.74137900000005,,0.009085682850125214,482.671,0.5730000138282776,-2.3520010291046614
483.206897,,0.008975880692130745,483.137,0.5329999923706055,-2.439200258245381
483.672414,,0.008250963691540143,483.604,0.546999990940094,-2.4087382916881444
484.13793100000004,,0.007332611973255786,484.069,0.5429999828338623,-2.417477061378309
484.603448,,0.006554548525817901,484.53,0.5260000228881836,-2.454522722494601
485.068966,,0.005747692847128137,484.999,0.5360000133514404,-2.432729848246393
485.534483,,0.004290347536079564,485.46,0.5479999780654907,-2.4065646093040587
486.0,,0.0014476235499529446,485.929,0.5249999761581421,-2.4566374349599367
486.46551700000003,,0.002963900262584399,486.389,0.5630000233650208,-2.3737990884098656
486.931034,,0.007954267738937376,486.859,0.5649999976158142,-2.369379407688951
487.396552,,0.011619617799031765,487.325,0.5210000276565552,-2.465166695998421
487.862069,,0.012579357181817559,487.784,0.5419999957084656,-2.4193347735162973
488.327586,,0.011501646515427486,488.249,0.5260000228881836,-2.4541085608113606
488.79310300000003,,0.010927729133907329,488.715,0.550000011920929,-2.401734766220832
489.258621,,0.012919739556329845,489.18,0.5260000228881836,-2.453937003043376
489.724138,,0.016619964582896597,489.645,0.5210000276565552,-2.46474908612868
490.189655,,0.01870104550977985,490.111,0.5299999713897705,-2.445067391255961
490.655172,,0.01689655393203742,490.578,0.5180000066757202,-2.4711465587037713
491.12069,,0.01278239593477438,491.044,0.5400000214576721,-2.4231629177405085
491.586207,,0.010096769380881705,491.504,0.5299999713897705,-2.444908534674504
492.05172400000004,,0.010266569289260659,491.974,0.531000018119812,-2.4427022023355254
492.517241,,0.01084349506676679,492.437,0.5270000100135803,-2.451403542173788
492.982759,,0.008962017606255483,492.899,0.515999972820282,-2.4753703437246153
493.448276,,0.005051143646932215,493.365,0.5419999957084656,-2.41874156882494
493.913793,,0.0018227203878079196,493.835,0.5210000276565552,-2.464522740789805
494.37931000000003,,0.0003565856260927538,494.294,0.5809999704360962,-2.3338449802960564
494.844828,,0.0011169941196844044,494.759,0.5529999732971191,-2.394896863639855
495.310345,,0.004365187254510611,495.224,0.5289999842643738,-2.4472414599090215
495.775862,,0.008499682404419694,495.69,0.6159999966621399,-2.2577612658175217
496.241379,,0.01109475196665564,496.155,0.5339999794960022,-2.4364749381827613
496.70689699999997,,0.011114262740883285,496.623,0.5400000214576721,-2.4234688760595353
497.172414,,0.009410278335729803,497.089,0.5419999957084656,-2.419178501558033
497.637931,,0.0066938078530214854,497.552,0.4560000002384186,-2.606609701376806
498.103448,,0.002787417246445262,498.014,0.5360000133514404,-2.4323854045033504
498.568966,,0.0015917442787460616,498.485,0.5410000085830688,-2.4215566846552203
499.03448299999997,,0.003941880692810284,498.948,0.5419999957084656,-2.4194358110507173
499.5,,0.0023262759606361466,499.411,0.531000018119812,-2.4434502616590494
499.96551700000003,,0.0019268239211699947,499.875,0.550000011920929,-2.4020955153723285
500.431034,,0.005169951700012162,500.34,0.5210000276565552,-2.4653050155068175
500.89655200000004,,0.005161301791073432,500.806,0.4959999918937683,-2.5197895650533844
501.362069,,0.002926611781819732,501.272,0.47699999809265137,-2.5611929818808155
501.827586,,0.0007334484551589913,501.737,0.5440000295639038,-2.4152229663659126
502.293103,,0.0006437713717466593,502.202,0.5419999957084656,-2.4195681190733014
502.758621,,0.0017403892741835439,502.667,0.5419999957084656,-2.4195431691096965
503.224138,,0.0024038837762009524,503.132,0.5360000133514404,-2.4325781183256083
503.68965499999996,,0.0017247599289584097,503.597,0.5299999713897705,-2.445602582760458
504.15517200000005,,0.00010562695252736556,504.062,0.546999990940094,-2.4085087288159235
504.62068999999997,,0.00020776143673576018,504.526,0.5540000200271606,-2.3931930838388387
505.08620699999994,,0.0024241133129789807,504.989,0.5440000295639038,-2.4149077965979253
505.55172400000004,,0.006852302311310965,505.459,0.5379999876022339,-2.4279038463631744
506.017241,,0.01013846211091612,505.922,0.5379999876022339,-2.4278264993935057
506.48275899999993,,0.01031129511449892,506.385,0.5419999957084656,-2.419035593876552
506.948276,,0.00781139971045864,506.855,0.5299999713897705,-2.445106698106931
507.413793,,0.004843480919433952,507.321,0.5540000200271606,-2.3927520790346835
507.87931,,0.0037301071816804305,507.779,0.5199999809265137,-2.466767250085661
508.344828,,0.005167219345008741,508.244,0.5199999809265137,-2.4667189704993664
508.810345,,0.007292336282662984,508.712,0.531000018119812,-2.442718209587144
509.27586199999996,,0.006965356152963691,509.177,0.5260000228881836,-2.4535895149439257
509.74137900000005,,0.0030875701539531644,509.645,0.5419999957084656,-2.4187232900695848
510.20689699999997,,0.0013713599097629084,510.11,0.5249999761581421,-2.4557666187146547
510.67241399999995,,0.0019271841795937812,510.57,0.5649999976158142,-2.3686404391998317
511.13793100000004,,0.0021295109225646786,511.04,0.5049999952316284,-2.49939220300374
511.603448,,0.005975860716974827,511.501,0.5529999732971191,-2.394862494414815
512.0689659999999,,0.00416040334480729,511.97,0.5490000247955322,-2.403633024927808
512.534483,,0.002951847653284427,512.43,0.5339999794960022,-2.436377385108997
513.0,,0.009177715302467523,512.899,0.5239999890327454,-2.4582357332134532
513.465517,,0.00944030402981647,513.365,0.5289999842643738,-2.447420102733806
513.931034,,0.005167972390549629,513.828,0.531000018119812,-2.4431436350669102
514.396552,,0.0016387213029556865,514.294,0.5289999842643738,-2.4475825560344675
514.862069,,0.0014251863033448852,514.759,0.5419999957084656,-2.419339508645918
515.327586,,0.00265218432854913,515.225,0.5239999890327454,-2.458629861773583
515.793103,,0.0031416902406015373,515.69,0.5260000228881836,-2.4543403802816846
516.258621,,0.0035539812536439456,516.156,0.5379999876022339,-2.4282556318260364
516.724138,,0.005578983802773418,516.616,0.515999972820282,-2.476233967615988
517.189655,,0.009006992129228954,517.082,0.5389999747276306,-2.42616065257322
517.655172,,0.012043102425900652,517.544,0.5070000290870667,-2.4958994281645333
518.1206900000001,,0.013488632022225569,518.014,0.5299999713897705,-2.4457987208301772
518.5862070000001,,0.013331414385258061,518.474,0.5299999713897705,-2.445792101788368
519.051724,,0.011777656048414291,518.944,0.5360000133514404,-2.432698246556435
519.517241,,0.008942683134186618,519.408,0.49000000953674316,-2.532880132672341
519.982759,,0.005494230356006945,519.87,0.5419999957084656,-2.4195418654924934
520.448276,,0.0027048716790194485,520.335,0.531000018119812,-2.443446306293139
520.9137929999999,,0.001404994784314471,520.799,0.5490000247955322,-2.404158649641713
521.37931,,0.0011580128118711035,521.265,0.5540000200271606,-2.3931837033364065
521.844828,,0.0008968099515076906,521.729,0.546999990940094,-2.4083449383670845
522.310345,,0.00033958214539856927,522.195,0.5270000100135803,-2.451824194196609
522.7758620000001,,0.00026631753357878426,522.66,0.5669999718666077,-2.3645834467061473
523.241379,,0.0011320157046002465,523.126,0.5440000295639038,-2.4145986371969377
523.7068969999999,,0.0019219201705998174,523.593,0.49000000953674316,-2.5321576342056287
524.172414,,0.001137194954247372,524.058,0.5370000004768372,-2.429683124110686
524.637931,,0.0011100175806286736,524.519,0.5419999957084656,-2.4187238041114165
525.103448,,0.002903189225284775,524.989,0.5289999842643738,-2.44699360479595
525.568966,,0.002990422461504042,525.452,0.5270000100135803,-2.4513139391157233
526.034483,,0.0026347805489345816,525.914,0.5249999761581421,-2.455651926671306
526.5,,0.0038624104677851176,526.386,0.5270000100135803,-2.45129361217983
526.9655170000001,,0.0063889039173309035,526.848,0.5289999842643738,-2.4469540333004858
527.4310340000001,,0.007965658422707697,527.314,0.5460000038146973,-2.4099524163463166
527.8965519999999,,0.007850176426508088,527.774,0.5360000133514404,-2.431790704442253
528.362069,,0.008010092726325899,528.24,0.5540000200271606,-2.3926414060793717
528.827586,,0.009977411920438137,528.705,0.550000011920929,-2.4014346428395124
529.293103,,0.012005326910050263,529.17,0.5669999718666077,-2.364485690173031
529.7586210000001,,0.010807693821631681,529.637,0.5419999957084656,-2.4190465218328665
530.224138,,0.005572615652955239,530.103,0.5270000100135803,-2.451825605231464
530.689655,,0.000929131141292606,530.571,0.5429999828338623,-2.4170691044701664
531.155172,,0.005138342374216911,531.032,0.5619999766349792,-2.375775266646939
531.62069,,0.005804448739325982,531.5,0.5370000004768372,-2.430336932366652
532.086207,,0.004411222603837923,531.963,0.5379999876022339,-2.428246387180012
532.5517239999999,,0.003428821511404655,532.426,0.5669999718666077,-2.3651433732532388
533.017241,,0.0042815247877237665,532.889,0.5669999718666077,-2.3652072758411555
533.482759,,0.006190080464682399,533.354,0.5299999713897705,-2.4458654317206485
533.9482760000001,,0.006739588897147275,533.824,0.515999972820282,-2.4763989755689786
534.413793,,0.004344778313023264,534.29,0.5540000200271606,-2.393626384916172
534.87931,,0.0003907144586887783,534.749,0.5540000200271606,-2.3936244857585556
535.344828,,0.0019224473870427226,535.215,0.5759999752044678,-2.3456730939052837
535.810345,,0.0011949785377243153,535.682,0.5529999732971191,-2.3957416423259303
536.275862,,0.0006291601794202401,536.147,0.5809999704360962,-2.334680977174543
536.7413789999999,,0.0008428906757400999,536.611,0.5529999732971191,-2.395608218268771
537.206897,,0.0008377159970309214,537.077,0.6060000061988831,-2.2800502203316815
537.672414,,0.0025169442614372717,537.54,0.5659999847412109,-2.3670942624972633
538.137931,,0.0028662524694585455,538.01,0.6060000061988831,-2.2798368795868535
538.6034480000001,,0.002496916148760537,538.47,0.5460000038146973,-2.410439138682961
539.0689659999999,,0.002680158835945847,538.94,0.5799999833106995,-2.336247853573122
539.5344829999999,,0.003590683706535067,539.401,0.6190000176429749,-2.2511657435429138
540.0,,0.004081461958007217,539.87,0.6010000109672546,-2.2902714620526847
540.465517,,0.00290846311547948,540.336,0.5920000076293945,-2.3097780645693393
540.931034,,0.0003001228149426779,540.799,0.5910000205039978,-2.3118685556437257
541.396552,,0.0015419161819682494,541.265,0.5440000295639038,-2.4141944426589284
541.862069,,0.00019748655676695472,541.73,0.6060000061988831,-2.2790685377816122
542.327586,,0.004056776405836406,542.195,0.5989999771118164,-2.294291110386036
542.7931030000001,,0.00768561261609531,542.66,0.6060000061988831,-2.279034479228789
543.258621,,0.007178755412166033,543.126,0.6449999809265137,-2.1940830227206343
543.7241379999999,,0.0026391483848274507,543.585,0.6060000061988831,-2.2790870717843705
544.189655,,0.002609344841277677,544.051,0.6179999709129333,-2.253000982556292
544.655172,,0.005525260985272904,544.515,0.6119999885559082,-2.266150394086787
545.12069,,0.005481394129688084,544.985,0.6499999761581421,-2.1834565600746068
545.5862070000001,,0.0033704426613457143,545.448,0.6150000095367432,-2.2598180853482193
546.051724,,0.0002090224042278624,545.911,0.6169999837875366,-2.255581337366066
546.517241,,0.002909317539888551,546.382,0.6190000176429749,-2.2513531971090184
546.982759,,0.004741064253894422,546.844,0.6299999952316284,-2.227521978978734
547.448276,,0.004781967794402744,547.31,0.6460000276565552,-2.1927972884438054
547.9137929999999,,0.003862095901244508,547.774,0.6100000143051147,-2.271358156532653
548.3793099999999,,0.0032972485147886818,548.24,0.6449999809265137,-2.195227069084677
548.844828,,0.003572579824562699,548.705,0.6190000176429749,-2.251981556519683
549.310345,,0.0039734564710791455,549.17,0.6420000195503235,-2.201966795065094
549.775862,,0.0033030168084982638,549.63,0.6140000224113464,-2.2630446742100867
550.241379,,0.0011126918028416194,550.096,0.621999979019165,-2.2456706852441966
550.706897,,0.0014176160796928751,550.559,0.6650000214576721,-2.1520205885642105
551.172414,,0.0021096965092422715,551.029,0.6430000066757202,-2.1999569326650987
551.637931,,0.00013548664526508248,551.489,0.6460000276565552,-2.193400514967359
552.103448,,0.003966479582889664,551.959,0.6330000162124634,-2.2216769546235673
552.568966,,0.00664986417537378,552.422,0.6269999742507935,-2.234678976436412
553.034483,,0.006451168429132465,552.885,0.6629999876022339,-2.156155336825012
553.5,,0.0038281557312538346,553.351,0.6959999799728394,-2.08414615860725
553.965517,,0.0005475719438337866,553.821,0.6309999823570251,-2.2256257047371655
554.4310340000001,,0.0019525882577627288,554.279,0.6200000047683716,-2.2494453259559637
554.896552,,0.0032529620461771366,554.745,0.6600000262260437,-2.162146389140418
555.3620689999999,,0.003528313972361592,555.211,0.6140000224113464,-2.2622082226021374
555.827586,,0.0031675748224410175,555.678,0.7149999737739563,-2.042009581417001
556.293103,,0.0028871880292627495,556.143,0.6439999938011169,-2.1965426810766493
556.758621,,0.003480649508823027,556.608,0.6340000033378601,-2.218188295599177
557.224138,,0.004990148355291748,557.074,0.6209999918937683,-2.246386625344133
557.689655,,0.006480773953642127,557.537,0.6259999871253967,-2.235390731951566
558.155172,,0.0068826576203807575,558.0,0.5889999866485596,-2.3159238140363674
558.6206900000001,,0.005838985669445325,558.47,0.6309999823570251,-2.224372480431604
559.0862070000001,,0.003988234080252808,558.933,0.6439999938011169,-2.196031364590819
559.5517239999999,,0.002998818381648404,559.397,0.6330000162124634,-2.220006887445341
560.017241,,0.004818695977920617,559.859,0.6209999918937683,-2.2461904341092342
560.482759,,0.00968307177688741,560.325,0.6029999852180481,-2.2854749583960094
560.948276,,0.014896138345950683,560.792,0.6539999842643738,-2.174459628734428
561.413793,,0.016740050803424864,561.258,0.6299999952316284,-2.2268657938139422
561.87931,,0.013982854598846664,561.722,0.625,-2.2378967549820703
562.344828,,0.00898762606224395,562.187,0.6470000147819519,-2.190119137912596
562.8103450000001,,0.005312664262853498,562.652,0.5960000157356262,-2.3013932760355935
563.275862,,0.004645682120537577,563.118,0.6660000085830688,-2.149056169074976
563.7413789999999,,0.0059895934945894515,563.583,0.6620000004768372,-2.157937395231992
564.206897,,0.007257678831914986,564.048,0.5989999771118164,-2.2953519134146267
564.672414,,0.0072491091501337875,564.511,0.6029999852180481,-2.2867870553374563
565.137931,,0.006072587811191713,564.974,0.6460000276565552,-2.193240365676883
565.603448,,0.004209208433502054,565.445,0.656000018119812,-2.1715684647682565
566.068966,,0.001968899721258284,565.907,0.6119999885559082,-2.267518776943207
566.534483,,0.0001839502671813262,566.373,0.6190000176429749,-2.252331307429151
567.0,,0.001717102513745493,566.838,0.6179999709129333,-2.2545450808653524
567.465517,,0.002760434419741249,567.304,0.6079999804496765,-2.276337263498216
567.931034,,0.0040717270984690175,567.77,0.593999981880188,-2.3068150165396646
568.396552,,0.006045758357338955,568.236,0.5860000252723694,-2.324193092076553
568.862069,,0.008375470953320474,568.7,0.6119999885559082,-2.2674709682312586
569.327586,,0.010808113044970742,569.165,0.578000009059906,-2.3414432869550805
569.793103,,0.013415945345064387,569.631,0.6069999933242798,-2.2781394757313715
570.2586210000001,,0.015703891200479197,570.089,0.5799999833106995,-2.336822241406938
570.724138,,0.016138205208855203,570.559,0.6029999852180481,-2.286558815797962
571.189655,,0.013398837345617273,571.022,0.597000002861023,-2.2994666926288456
571.655172,,0.008282181908692116,571.485,0.5789999961853027,-2.3385138217814845
572.12069,,0.003958364447277961,571.955,0.5820000171661377,-2.331810329802035
572.586207,,0.003516166152288542,572.419,0.5720000267028809,-2.353435703330047
573.051724,,0.006612663237830861,572.882,0.6050000190734863,-2.2813900271349086
573.517241,,0.00904997826040662,573.347,0.546999990940094,-2.4076167620996958
573.982759,,0.006787494913312249,573.81,0.5419999957084656,-2.4183959194858207
574.4482760000001,,0.0004653830269450073,574.276,0.6039999723434448,-2.283229973377863
574.913793,,0.004986683775668648,574.741,0.5640000104904175,-2.37031153374668
575.37931,,0.005549212082654125,575.207,0.5669999718666077,-2.363738855273724
575.844828,,0.0021928990415539624,575.674,0.5509999990463257,-2.3985898139437176
576.310345,,0.0006727729678690022,576.14,0.5640000104904175,-2.3702898286276275
576.775862,,0.0002263197586309327,576.604,0.5540000200271606,-2.3921278225724736
577.241379,,0.002072668596131478,577.07,0.5540000200271606,-2.3922068260888
577.706897,,0.0027241958988406655,577.533,0.5519999861717224,-2.3966683770118764
578.172414,,0.0002999435478474171,577.996,0.5540000200271606,-2.392437095539699
578.6379310000001,,0.003237242365756118,578.459,0.5619999766349792,-2.375151843583001
579.1034480000001,,0.004997953198827154,578.929,0.5759999752044678,-2.344807263431471
579.5689659999999,,0.004148472820940917,579.393,0.5839999914169312,-2.32754152207184
580.034483,,0.0021017158470710198,579.855,0.5540000200271606,-2.3930663956702656
580.5,,0.00028857078526389323,580.321,0.5669999718666077,-2.364907205586884
580.965517,,0.0013922817068232915,580.789,0.5669999718666077,-2.3650632059253254
581.431034,,0.003576907559178794,581.254,0.5540000200271606,-2.393529739908037
581.896552,,0.005419840109703716,581.719,0.5699999928474426,-2.35879972580032
582.362069,,0.0046095155964566755,582.185,0.5440000295639038,-2.415553319525801
582.827586,,0.00011216154323953818,582.645,0.5669999718666077,-2.365530865011295
583.2931030000001,,0.005553098574807706,583.11,0.5440000295639038,-2.415701156964293
583.758621,,0.008097002172408116,583.582,0.5419999957084656,-2.4200938801915592
584.2241379999999,,0.006089704397062794,584.04,0.5419999957084656,-2.420102635390691
584.689655,,0.0029481962305909267,584.508,0.574999988079071,-2.3481886070193148
585.155172,,0.0034731497733581007,584.97,0.49000000953674316,-2.5333287053241866
585.6206900000001,,0.008827108789485057,585.434,0.531000018119812,-2.4439357603326126
586.0862070000001,,0.015570271232917187,585.904,0.527999997138977,-2.4503822642441513
586.551724,,0.019128759644027826,586.37,0.5540000200271606,-2.393628046287065
587.017241,,0.017279904858159317,586.833,0.5540000200271606,-2.39350111378698
587.482759,,0.010555263191551402,587.299,0.5509999990463257,-2.399895686100116
587.948276,,0.0007487798731382727,587.763,0.5460000038146973,-2.410637245436169
588.4137929999999,,0.009989601989329322,588.229,0.5720000267028809,-2.3538344864148604
588.87931,,0.019222923336208845,588.689,0.5529999732971191,-2.3950689881740206
589.344828,,0.024830577106490188,589.155,0.5529999732971191,-2.3949118035953036
589.810345,,0.02634432996692185,589.619,0.5370000004768372,-2.4296209889997127
590.2758620000001,,0.025399205327315405,590.085,0.5460000038146973,-2.409876873808203
590.741379,,0.024146999030845374,590.555,0.5540000200271606,-2.3923281085819323
591.2068969999999,,0.023051118590519996,591.018,0.5460000038146973,-2.4096577711794533
591.672414,,0.02078635639927375,591.481,0.5339999794960022,-2.4357253826524286
592.137931,,0.016591900774861487,591.944,0.5540000200271606,-2.3921019491277478
592.603448,,0.012024465683451068,592.412,0.5519999861717224,-2.3964359000007738
593.068966,,0.009515608376475576,592.874,0.5389999747276306,-2.424762598737484
593.534483,,0.009363862125978721,593.34,0.5299999713897705,-2.4444029976971073
594.0,,0.009114377810289107,593.806,0.5080000162124634,-2.4923941582794154
594.4655170000001,,0.0062269595007991485,594.271,0.5419999957084656,-2.418408124183389
594.9310340000001,,0.0005829287985142916,594.738,0.5260000228881836,-2.4533782935916966
595.3965519999999,,0.006136124215520273,595.204,0.5460000038146973,-2.409937267829078
595.862069,,0.01274213931444381,595.67,0.5400000214576721,-2.423156807143499
596.327586,,0.019172665777532058,596.136,0.4869999885559082,-2.5387851212475483
596.793103,,0.02506042896223863,596.6,0.5270000100135803,-2.451807582754083
597.2586210000001,,0.028929737443497066,597.059,0.5139999985694885,-2.4803017315552083
597.724138,,0.029597476314086435,597.526,0.5289999842643738,-2.4477910403243017
598.189655,,0.027808981927773348,597.989,0.5669999718666077,-2.365162430067529
598.655172,,0.025510046461080533,598.459,0.527999997138977,-2.4502747595545085
599.12069,,0.02367486885127048,598.922,0.5419999957084656,-2.419899723575026
599.586207,,0.021766911936807666,599.385,0.5759999752044678,-2.3459283722058695
600.0517239999999,,0.019105796438680458,599.855,0.515999972820282,-2.476723046544277
600.517241,,0.015624527790326036,600.314,0.5230000019073486,-2.461520354294851
600.982759,,0.011389868987790337,600.779,0.5180000066757202,-2.4724332008527643
601.448276,,0.006613618949900141,601.244,0.5130000114440918,-2.4833172727521577
601.913793,,0.0022484635307114488,601.711,0.5450000166893005,-2.4135624596913425
602.37931,,0.0005638733216472226,602.177,0.5249999761581421,-2.4570690092047025
602.844828,,0.0019739989435684727,602.642,0.578000009059906,-2.341506635397111
603.310345,,0.003551651457438534,603.107,0.5139999985694885,-2.480821374384967
603.775862,,0.0065945708031653625,603.57,0.5849999785423279,-2.3259972645513183
604.2413789999999,,0.010780347144979245,604.04,0.5040000081062317,-2.502310902118631
604.706897,,0.014613978715702691,604.504,0.5379999876022339,-2.4280691132449657
605.172414,,0.016837717789830838,604.966,0.5299999713897705,-2.445325331378246
605.637931,,0.017432769284768043,605.434,0.531000018119812,-2.4429733439218007
606.1034480000001,,0.017598463206922002,605.896,0.5199999809265137,-2.466770807222933
606.5689659999999,,0.01871360622410372,606.362,0.5400000214576721,-2.4230406743413364
607.0344829999999,,0.02102146649574076,606.825,0.5400000214576721,-2.422898633167124
607.5,,0.023258179417987856,607.291,0.5210000276565552,-2.4641703127127794
607.965517,,0.023603039933344463,607.756,0.5189999938011169,-2.468428989601619
608.431034,,0.021070994728386954,608.221,0.5289999842643738,-2.446571055322591
608.896552,,0.016307053939634837,608.685,0.531000018119812,-2.4421712552976333
609.362069,,0.011289997287755288,609.151,0.5139999985694885,-2.479196261643192
609.827586,,0.008053208595918791,609.616,0.5360000133514404,-2.431284725181854
610.293103,,0.007317739680936916,610.081,0.45100000500679016,-2.616519980780674
610.758621,,0.008179804194027513,610.544,0.5339999794960022,-2.43577301153801
611.2241379999999,,0.0089959133145526,611.014,0.5059999823570251,-2.496883158278729
611.689655,,0.008515997351825568,611.475,0.5289999842643738,-2.4469047839664513
612.155172,,0.006391562299686878,611.944,0.5260000228881836,-2.453589218598375
612.62069,,0.002968993502321242,612.404,0.5210000276565552,-2.464643961695468
613.0862070000001,,0.0011864821948366897,612.874,0.515999972820282,-2.4757068796436528
613.551724,,0.005525706422736572,613.34,0.503000020980835,-2.5042018772464747
614.017241,,0.009345764828993328,613.806,0.5139999985694885,-2.4804073860634905
614.4827590000001,,0.011682965493489735,614.271,0.4950000047683716,-2.5219649590086712
614.948276,,0.01193279581220087,614.73,0.5249999761581421,-2.4567561437274223
615.4137929999999,,0.01082152822334467,615.195,0.492000013589859,-2.5287844439688643
615.8793099999999,,0.010125998940095032,615.66,0.5090000033378601,-2.49185882306993
616.344828,,0.010658931754770192,616.127,0.4950000047683716,-2.5224463899618716
616.810345,,0.01093920657628291,616.594,0.515999972820282,-2.476753397484687
617.275862,,0.00894997953903123,617.059,0.5049999952316284,-2.5007469126527457
617.741379,,0.005190051667225182,617.522,0.503000020980835,-2.505101527702244
618.206897,,0.0028016095714294966,617.985,0.5080000162124634,-2.4941748413556613
618.672414,,0.0041456782767856385,618.456,0.503000020980835,-2.5050047722867252
619.137931,,0.008005901839772012,618.918,0.5040000081062317,-2.5027350481295074
619.603448,,0.01087099073468601,619.382,0.46700000762939453,-2.5832297875054735
620.068966,,0.010615922990154859,619.845,0.49000000953674316,-2.53298594512283
620.534483,,0.00820853080012784,620.311,0.5009999871253967,-2.5088701605187578
621.0,,0.0058640270087079085,620.778,0.5009999871253967,-2.508707527629976
621.465517,,0.004421071377344655,621.243,0.5049999952316284,-2.4998231241650624
621.9310340000001,,0.0032567266220340837,621.707,0.4959999918937683,-2.5192593536452943
622.396552,,0.002352723548170081,622.173,0.4860000014305115,-2.5408781987212534
622.862069,,0.003023684513008878,622.638,0.4880000054836273,-2.536363019717829
623.327586,,0.005675341190248534,623.104,0.48100000619888306,-2.5514706278513968
623.793103,,0.007713225489495553,623.566,0.47999998927116394,-2.5535260108857134
624.258621,,0.00555441651997468,624.029,0.49900001287460327,-2.5120315789886187
624.724138,,0.0007114813375127564,624.5,0.503000020980835,-2.5032424794027177
625.189655,,0.006096407593970798,624.963,0.47699999809265137,-2.559840738581216
625.655172,,0.0055532334666458065,625.43,0.48500001430511475,-2.5423948095227016
626.1206900000001,,0.0002521858211920207,625.892,0.4429999887943268,-2.6339128349342165
626.5862070000001,,0.0051284301372746905,626.357,0.49000000953674316,-2.531562359014753
627.0517239999999,,0.003655490351763383,626.82,0.4749999940395355,-2.564317311194117
627.5172409999999,,0.0032588447210487857,627.286,0.4869999885559082,-2.5382747347104964
627.982759,,0.009526532536211772,627.752,0.4779999852180481,-2.5580064568269534
628.448276,,0.010159529397990337,628.218,0.47999998927116394,-2.5537917021850665
628.913793,,0.005726316379031467,628.685,0.4790000021457672,-2.556127024331831
629.37931,,0.0008222058574340816,629.144,0.48899999260902405,-2.534506133252687
629.844828,,0.0007221083166701683,629.611,0.46799999475479126,-2.5804269154548165
630.3103450000001,,0.0013618333114227324,630.076,0.46700000762939453,-2.5827734400887303
630.7758620000001,,0.004739116179421415,630.545,0.47099998593330383,-2.5742205055423475
631.2413789999999,,0.006965781405537105,631.007,0.4790000021457672,-2.5569411253597334
631.706897,,0.006952216564475935,631.475,0.48100000619888306,-2.5527166714671847
632.172414,,0.004904627654462431,631.937,0.492000013589859,-2.5288626818333237
632.637931,,0.0016725464735119994,632.4,0.47600001096725464,-2.563806869083899
633.103448,,0.0017553855464611245,632.87,0.4659999907016754,-2.5856517057064337
633.568966,,0.0044515157171457305,633.336,0.47600001096725464,-2.5638946549857744
634.034483,,0.005521759663676945,633.799,0.46399998664855957,-2.59003832021206
634.5,,0.004174978701192596,634.265,0.4729999899864197,-2.5704007748967026
634.9655170000001,,0.0002745820441278257,634.73,0.47200000286102295,-2.5725210799488925
635.431034,,0.004910006948578282,635.195,0.4699999988079071,-2.576793251397114
635.8965519999999,,0.008731055699698804,635.66,0.46399998664855957,-2.589756168360155
636.362069,,0.008600836532072076,636.126,0.49000000953674316,-2.5329816361434165
636.827586,,0.004144709897431464,636.585,0.4950000047683716,-2.5219413977512675
637.293103,,0.001863960816580109,637.051,0.46399998664855957,-2.58931979287883
637.7586210000001,,0.005295471816141472,637.519,0.4620000123977661,-2.5935107540431734
638.224138,,0.004140525735602336,637.981,0.4620000123977661,-2.593343971307369
638.689655,,0.0003981386326057632,638.445,0.46000000834465027,-2.597539412129323
639.155172,,0.0018040659470617334,638.914,0.45500001311302185,-2.6082810200815056
639.62069,,0.0002662732648391114,639.382,0.503000020980835,-2.5035685711669897
640.086207,,0.003062998435041703,639.844,0.47600001096725464,-2.5622723397413556
640.551724,,0.003980293260896332,640.31,0.45100000500679016,-2.6166406489012486
641.017241,,0.00020013672027678365,640.77,0.46399998664855957,-2.5882464494169626
641.482759,,0.006187550346329616,641.236,0.4650000035762787,-2.5860242956731865
641.9482760000001,,0.010317382968076855,641.702,0.4659999907016754,-2.583831546193178
642.413793,,0.008875112182375059,642.168,0.4650000035762787,-2.5860256982845575
642.87931,,0.0031620577899210116,642.633,0.45899999141693115,-2.5991423429344698
643.344828,,0.002124952594896425,643.099,0.4749999940395355,-2.5643562692489508
643.810345,,0.0031479856181116346,643.56,0.4659999907016754,-2.584061295624873
644.275862,,3.607501470287558e-05,644.03,0.4560000002384186,-2.6059668138128362
644.7413789999999,,0.003636912939611475,644.493,0.4659999907016754,-2.584317710859846
645.206897,,0.004048723642019239,644.956,0.46399998664855957,-2.5888260689792753
645.672414,,0.0004399583481270494,645.419,0.47600001096725464,-2.5628416991230756
646.1379310000001,,0.0041106368255303324,645.889,0.4790000021457672,-2.5564680259491834
646.6034480000001,,0.0056770163237718566,646.355,0.4790000021457672,-2.5566274949211514
647.0689659999999,,0.00371447369414387,646.818,0.46399998664855957,-2.5894590738336194
647.534483,,0.0016197364995461567,647.284,0.49399998784065247,-2.5242389199067987
648.0,,0.0025375223732004935,647.749,0.46399998664855957,-2.5897205805426853
648.465517,,0.005683061940805069,648.214,0.44600000977516174,-2.62903835167263
648.931034,,0.008080887066230889,648.679,0.47699999809265137,-2.5615798488758936
649.396552,,0.008993638342125906,649.144,0.49000000953674316,-2.5333109466370014
649.862069,,0.010411655052823073,649.604,0.4729999899864197,-2.5703732204031327
650.327586,,0.013008284974705034,650.07,0.46299999952316284,-2.592156448456266
650.7931030000001,,0.013892624739063586,650.541,0.46799999475479126,-2.5812324022162
651.258621,,0.009844706673753399,651.003,0.46799999475479126,-2.581175169887878
651.7241379999999,,0.0018019658201263266,651.467,0.460999995470047,-2.59634407059414
652.189655,,0.005303378681635776,651.929,0.4860000014305115,-2.5417743036756724
652.655172,,0.007202940675656499,652.397,0.4729999899864197,-2.569974222099279
653.12069,,0.004176431483159111,652.859,0.4699999988079071,-2.5763726751912226
653.5862070000001,,0.0003486355987727613,653.325,0.49000000953674316,-2.5326517326286417
654.051724,,0.000341388252585637,653.789,0.4620000123977661,-2.593500155650489
654.517241,,0.0026981266800680356,654.255,0.47200000286102295,-2.571559594123958
654.982759,,0.007071741571616304,654.719,0.46299999952316284,-2.5910183075231528
655.448276,,0.010042055934615452,655.186,0.4830000102519989,-2.547305675323707
655.9137929999999,,0.010288115939332215,655.653,0.5830000042915344,-2.3293126629795378
656.37931,,0.007626427818305401,656.119,0.492000013589859,-2.5274548673712673
656.844828,,0.0024673620598838976,656.586,0.4950000047683716,-2.5208226205220354
657.310345,,0.0035494858669317167,657.044,0.46299999952316284,-2.5904671019681906
657.7758620000001,,0.007162942342093694,657.515,0.46399998664855957,-2.588243830042936
658.241379,,0.005551378364014071,657.978,0.46299999952316284,-2.590407630848496
658.7068969999999,,0.00029140242582107216,658.441,0.4749999940395355,-2.5642792370707985
659.172414,,0.0053280752012366105,658.911,0.46700000762939453,-2.581753266125535
659.637931,,0.005248234492482399,659.369,0.4819999933242798,-2.5491462554244677
660.103448,,0.0012813000461600358,659.84,0.48399999737739563,-2.5448866491414823
660.568966,,0.0012722843661079702,660.306,0.48500001430511475,-2.5428270828066446
661.034483,,0.0005986309377568642,660.77,0.4869999885559082,-2.538606349838742
661.5,,0.0044489907350180645,661.229,0.47200000286102295,-2.571435655854603
661.965517,,0.006100157270468831,661.7,0.46799999475479126,-2.5803086336937238
662.4310340000001,,0.004511285799663956,662.166,0.4729999899864197,-2.5695776302195874
662.8965519999999,,0.0014579333226009596,662.631,0.47600001096725464,-2.563202180616195
663.362069,,0.001951572539483517,663.089,0.492000013589859,-2.528496778673542
663.827586,,0.0059831394922781065,663.559,0.4699999988079071,-2.5765671686449867
664.293103,,0.00987356453376191,664.022,0.48899999260902405,-2.5352954725228507
664.7586210000001,,0.011098806277745059,664.49,0.4740000069141388,-2.5680762082131965
665.224138,,0.008152581089046611,664.952,0.44999998807907104,-2.620440491979789
665.689655,,0.003053433718084955,665.415,0.5019999742507935,-2.5072006213495666
666.155172,,0.00027358482535325596,665.885,0.5090000033378601,-2.4919696704237624
666.62069,,0.0002992365335851257,666.351,0.48899999260902405,-2.535530518259842
667.086207,,0.000344435496067176,666.814,0.47600001096725464,-2.5638101432400062
667.5517239999999,,0.0018692230391252158,667.279,0.4950000047683716,-2.5223443197520155
668.017241,,0.006958208914746249,667.744,0.4860000014305115,-2.541853993644211
668.482759,,0.011505225793538621,668.21,0.47999998927116394,-2.55480441280415
668.948276,,0.012805441632134021,668.675,0.4860000014305115,-2.5415919901063417
669.413793,,0.011271820368516478,669.141,0.4959999918937683,-2.519650411901328
669.87931,,0.008625832892445765,669.6,0.5139999985694885,-2.480269373648825
670.3448279999999,,0.005787024577724647,670.065,0.4830000102519989,-2.547637204398843
670.810345,,0.003377203955056412,670.534,0.47999998927116394,-2.5540046620087247
671.275862,,0.0022975088136428516,670.996,0.49000000953674316,-2.5320575827220213
671.7413789999999,,0.0023043407817104162,671.459,0.5189999938011169,-2.4687288764566206
672.206897,,0.001448150208585713,671.929,0.5009999871253967,-2.5078134631454394
672.672414,,0.0014218977031842128,672.393,0.48899999260902405,-2.533847870732083
673.137931,,0.004570144648347468,672.855,0.47999998927116394,-2.553372943147502
673.6034480000001,,0.005421955488514515,673.321,0.5230000019073486,-2.4596375862229807
674.068966,,0.004000011995148923,673.786,0.4950000047683716,-2.5206168365701838
674.5344829999999,,0.0025576707036437272,674.251,0.492000013589859,-2.5271616734088105
675.0,,0.002098448530160656,674.719,0.49000000953674316,-2.531560376217686
675.465517,,0.001235833347615172,675.185,0.49000000953674316,-2.531633269884905
675.931034,,0.0009613381050651686,675.644,0.5009999871253967,-2.5077701981998226
676.396552,,0.0026538555318617076,676.11,0.5210000276565552,-2.4643242810937416
676.862069,,0.0011803901937768536,676.582,0.4959999918937683,-2.5189383286311213
