Trial: ,40
Threshold: ,0.0
Maximum EMG: ,0.0
Success: ,True

EMG Time,Raw EMG,Filtered EMG,Force Time,Raw Force (V),Filtered Force (N)
0.0,samples,0.0,0.466,0.4880000054836273,-2.5364246194096
0.46551699999999996,time,0.0,0.933,0.492000013589859,-2.5278562286078117
0.9310339999999999,value,0.0,1.398,0.4959999918937683,-2.519295608821023
1.396552,,0.0,1.864,0.48899999260902405,-2.5347031204628543
1.862069,,0.0,2.329,0.48500001430511475,-2.543573266555534
2.327586,,0.0,2.792,0.5230000019073486,-2.4609337715071287
2.793103,,0.0,3.255,0.48899999260902405,-2.5351454024267603
3.258621,,0.0,3.726,0.49900001287460327,-2.513481072815404
3.724138,,0.0,4.188,0.48899999260902405,-2.5353713087387333
4.189654999999999,,0.0,4.651,0.5009999871253967,-2.50930960387643
4.655172,,0.0,5.114,0.4880000054836273,-2.537689991733839
5.12069,,0.0,5.58,0.5070000290870667,-2.496327682744704
5.586207,,0.0,6.044,0.4740000069141388,-2.56822851200333
6.051723999999999,,0.0,6.51,0.4970000088214874,-2.5180984847067243
6.517241,,0.0,6.977,0.49300000071525574,-2.5267659885397027
6.982759,,0.0,7.443,0.49900001287460327,-2.513621899281127
7.448276,,0.0,7.908,0.503000020980835,-2.504811937904134
7.913793000000001,,0.0,8.374,0.4950000047683716,-2.5221253286015366
8.379309999999998,,0.0,8.84,0.4830000102519989,-2.548136647758785
8.844828000000001,,0.0,9.299,0.4740000069141388,-2.567600099904483
9.310345,,0.0,9.77,0.48899999260902405,-2.534768586460916
9.775862,,0.0,10.232,0.49399998784065247,-2.523720094027362
10.241379,,0.0,10.7,0.49399998784065247,-2.523565453684802
10.706897,,0.0,11.162,0.4909999966621399,-2.529951841601028
11.172414,,0.0,11.628,0.47200000286102295,-2.571206568055902
11.637931,,0.0,12.094,0.4909999966621399,-2.5296870869140604
12.103447999999998,,0.0,12.559,0.47600001096725464,-2.562259636295438
12.568966000000001,,0.0,13.019,0.4880000054836273,-2.5360297783440315
13.034483,,0.0,13.484,0.503000020980835,-2.503287024372763
13.5,,0.0,13.951,0.4790000021457672,-2.5555362197936313
13.965517,,0.0,14.417,0.5080000162124634,-2.492342651947438
14.431034,,0.0,14.881,0.4699999988079071,-2.5751447946738164
14.896552,,0.0,15.347,0.5090000033378601,-2.4902167884069697
15.362069,,0.0,15.814,0.47699999809265137,-2.559997488270094
15.827586000000002,,0.0,16.277,0.5009999871253967,-2.5077965919047567
16.293103,,0.0,16.74,0.4740000069141388,-2.5667271799510063
16.758621,,0.0,17.21,0.5149999856948853,-2.4775268366968883
17.224138,,0.0,17.674,0.4860000014305115,-2.5408449025985296
17.689655,,0.0,18.136,0.49399998784065247,-2.523562263184852
18.155172,,0.0,18.602,0.5049999952316284,-2.499748706722666
18.62069,,0.0,19.065,0.49000000953674316,-2.5325804615397245
19.086207,,0.0,19.53,0.4970000088214874,-2.5174782893083525
19.551724,,0.0,19.996,0.5239999890327454,-2.4587947800640935
20.017241000000002,,0.0,20.462,0.4860000014305115,-2.541710609449429
20.482758999999998,,0.0,20.926,0.4880000054836273,-2.5374650043201195
20.948276,,0.0,21.392,0.49799999594688416,-2.515772078105978
21.413793000000002,,0.0,21.859,0.49300000071525574,-2.5267377700184106
21.87931,,0.0,22.325,0.5149999856948853,-2.478856457896108
22.344828,,0.0,22.785,0.4909999966621399,-2.5311678163348974
22.810344999999998,,0.0,23.255,0.5,-2.5115583365984873
23.275862,,0.0,23.715,0.492000013589859,-2.528960820201835
23.741379,,0.0,24.184,0.5139999985694885,-2.480979380667763
24.206897,,0.0,24.645,0.4880000054836273,-2.537549881488673
24.672414,,0.0,25.115,0.49399998784065247,-2.524383115174697
25.137931,,0.0,25.58,0.5009999871253967,-2.509020002995683
25.603448,,0.0,26.045,0.5090000033378601,-2.491463262153923
26.068966,,0.0,26.51,0.45100000500679016,-2.617686775510447
26.534483,,0.0,26.97,0.503000020980835,-2.5042532003794653
27.0,,0.0,27.436,0.5170000195503235,-2.4736056198085348
27.465517,,0.0,27.9,0.492000013589859,-2.5279257342779275
27.931034,,0.0,28.365,0.4959999918937683,-2.5190701296105185
28.396552,,0.0,28.838,0.45899999141693115,-2.599549148740436
28.862069,,0.0,29.296,0.4880000054836273,-2.5362517569343916
29.327586,,0.0,29.759,0.503000020980835,-2.503472442399781
29.793103000000002,,0.0,30.228,0.4860000014305115,-2.5404288717939134
30.258620999999998,,0.0,30.692,0.4830000102519989,-2.546905605342637
30.724138,,0.0,31.155,0.49900001287460327,-2.5120111439169017
31.189655000000002,,0.0,31.621,0.5,-2.50981990510553
31.655172000000004,,0.0,32.091,0.48899999260902405,-2.5337960029543294
32.12069,,0.0,32.549,0.4880000054836273,-2.5360091308732056
32.586207,,0.0,33.014,0.47999998927116394,-2.5534957735111603
33.051724,,0.0,33.479,0.4819999933242798,-2.549217372396568
33.517241000000006,,0.0,33.944,0.5130000114440918,-2.4817767991448143
33.982759,,0.0,34.41,0.5049999952316284,-2.4993184487136406
34.448276,,0.0,34.874,0.4959999918937683,-2.5190502538833996
34.913793,,0.0,35.34,0.4860000014305115,-2.540969433594786
35.37931,,0.0,35.81,0.492000013589859,-2.5280357328707006
35.844828,,0.0,36.273,0.48100000619888306,-2.5521409804484523
36.310345,,0.0,36.74,0.49399998784065247,-2.5239567328308725
36.775862,,0.0,37.203,0.4959999918937683,-2.5197315134147513
37.241378999999995,,0.0,37.666,0.492000013589859,-2.52856820852891
37.706897000000005,,0.0,38.129,0.4790000021457672,-2.556999883410707
38.172414,,0.0,38.594,0.49300000071525574,-2.5265923792000526
38.637931,,0.0,39.061,0.5019999742507935,-2.5070595288903856
39.103448,,0.0,39.526,0.49000000953674316,-2.533257102879581
39.568965999999996,,0.0,39.995,0.46299999952316284,-2.5921127608844143
40.034483,,0.0,40.461,0.4830000102519989,-2.548550088049106
40.5,,0.0,40.925,0.4880000054836273,-2.5376447608124146
40.965517,,0.0,41.384,0.4699999988079071,-2.5768259866420413
41.431034,,0.0,41.849,0.5130000114440918,-2.483087821862069
41.896552,,0.0,42.314,0.49300000071525574,-2.52658342095414
42.362069000000005,,0.0,42.785,0.49399998784065247,-2.524308185608476
42.827586000000004,,0.0,43.247,0.492000013589859,-2.5285525987795006
43.293103,,0.0,43.715,0.5080000162124634,-2.4935680022928013
43.758621,,0.0,44.177,0.5049999952316284,-2.499967397661774
44.224138,,0.0,44.645,0.49900001287460327,-2.5128960035513326
44.689655,,0.0,45.107,0.49000000953674316,-2.532358447540144
45.155172,,0.0,45.572,0.49300000071525574,-2.525679491819246
45.620689999999996,,0.0,46.037,0.4880000054836273,-2.5364363232538416
46.086206999999995,,0.0,46.503,0.515999972820282,-2.475307963214963
46.551724,,0.0,46.97,0.46700000762939453,-2.5819492203371777
47.017241,,0.0,47.435,0.48500001430511475,-2.5426390751416914
47.482759,,0.0,47.9,0.46399998664855957,-2.588317766300765
47.948276,,0.0,48.359,0.4860000014305115,-2.540338057642561
48.413793,,0.0,48.833,0.48899999260902405,-2.533777287190339
48.879310000000004,,0.0,49.291,0.46799999475479126,-2.579529205059951
49.344828,,0.0,49.759,0.5009999871253967,-2.5076593090195716
49.810345,,0.0,50.221,0.4860000014305115,-2.5403884397303296
50.275862,,0.0,50.685,0.5049999952316284,-2.499065610879156
50.741379,,0.0,51.155,0.5009999871253967,-2.5078713915856228
51.206897,,0.0,51.621,0.4959999918937683,-2.5188727800508914
51.672414,,0.0,52.084,0.5009999871253967,-2.5081018238566073
52.137931,,0.0,52.549,0.48899999260902405,-2.53437873302738
52.603448,,0.0,53.014,0.49399998784065247,-2.5236260388004497
53.068966,,0.0,53.48,0.49799999594688416,-2.515055431416778
53.534483,,0.0,53.94,0.4699999988079071,-2.5762013496035125
54.0,,0.0,54.405,0.48399999737739563,-2.545840443945526
54.465517,,0.0,54.87,0.49799999594688416,-2.5154717617309097
54.931034,,0.0,55.336,0.4259999990463257,-2.6724559245147606
55.396552,,0.0,55.803,0.49399998784065247,-2.524415899026726
55.862069,,0.0,56.266,0.49000000953674316,-2.5332208891681134
56.327586,,0.0,56.729,0.4830000102519989,-2.5485404671443415
56.793102999999995,,0.0,57.199,0.4909999966621399,-2.5311569568616363
57.258621000000005,,0.0,57.659,0.4790000021457672,-2.5573215573878305
57.724138,,0.0,58.129,0.48899999260902405,-2.5355303797200306
58.189655,,0.0,58.595,0.48399999737739563,-2.5463932420099735
58.655172,,0.0,59.054,0.4880000054836273,-2.5376231644279192
59.120689999999996,,0.0,59.519,0.5009999871253967,-2.5092212957170124
59.586207,,0.0,59.988,0.4790000021457672,-2.5570500202292514
60.051724,,0.0,60.454,0.49399998784065247,-2.524249795853047
60.517241,,0.0,60.918,0.5070000290870667,-2.4957907127813033
60.982758999999994,,0.0,61.383,0.49000000953674316,-2.532678612578074
61.448276,,0.0,61.848,0.503000020980835,-2.504198777004907
61.913793,,0.0,62.314,0.4970000088214874,-2.517109666992632
62.379310000000004,,0.0,62.774,0.4909999966621399,-2.5300217428836187
62.84482800000001,,0.0,63.244,0.5170000195503235,-2.4732227807753397
63.310345000000005,,0.0,63.707,0.5009999871253967,-2.5079371288192824
63.775862000000004,,0.0,64.17,0.49399998784065247,-2.52305817541042
64.241379,,0.0,64.64,0.5019999742507935,-2.5055186192555596
64.706897,,0.0,65.103,0.45500001311302185,-2.6078280277868418
65.172414,,0.0,65.568,0.492000013589859,-2.527158145622514
65.637931,,0.0,66.033,0.49000000953674316,-2.5314843352115415
66.103448,,0.0,66.498,0.5019999742507935,-2.505338580539876
66.56896599999999,,0.0,66.963,0.48399999737739563,-2.544581489459599
67.03448300000001,,0.0,67.429,0.49000000953674316,-2.5315659255197427
67.5,,0.0,67.896,0.49000000953674316,-2.5316500286588597
67.965517,,0.0,68.354,0.49000000953674316,-2.531759455259821
68.431034,,0.0,68.822,0.49000000953674316,-2.531891106588301
68.896552,,0.0,69.285,0.48500001430511475,-2.542934511044656
69.362069,,0.0,69.755,0.4959999918937683,-2.519133686537313
69.827586,,0.0,70.218,0.4950000047683716,-2.5214855093868205
70.293103,,0.0,70.681,0.48100000619888306,-2.552163649186796
70.75862099999999,,0.0,71.151,0.4860000014305115,-2.541446433537489
71.22413800000001,,0.0,71.609,0.5090000033378601,-2.4915067714483063
71.689655,,0.0,72.079,0.47999998927116394,-2.5548445502215325
72.15517200000001,,0.0,72.545,0.49000000953674316,-2.5331981912375627
72.62069,,0.0,73.004,0.4830000102519989,-2.5485680784823854
73.086207,,0.0,73.47,0.4880000054836273,-2.5377695301965724
73.551724,,0.0,73.937,0.5049999952316284,-2.500799075491631
74.017241,,0.0,74.402,0.4880000054836273,-2.5378718448101423
74.482759,,0.0,74.867,0.48899999260902405,-2.5356971353161106
74.94827599999999,,0.0,75.332,0.3970000147819519,-2.7361065063817502
75.41379300000001,,0.0,75.796,0.5360000133514404,-2.433219037849693
75.87931,,0.0,76.266,0.5009999871253967,-2.509386146739413
76.344828,,0.0,76.729,0.47999998927116394,-2.5550230031753136
76.810345,,0.0,77.192,0.4830000102519989,-2.548347700125178
77.275862,,0.0,77.655,0.5989999771118164,-2.295462692366998
77.741379,,0.0,78.125,0.5109999775886536,-2.4870015970624113
78.206897,,0.0,78.584,0.49000000953674316,-2.5325575353190235
78.67241399999999,,0.0,79.051,0.5139999985694885,-2.4800690261532616
79.137931,,0.0,79.517,0.4880000054836273,-2.5365139304667514
79.603448,,0.0,79.984,0.49799999594688416,-2.5145351971598315
80.068966,,0.0,80.45,0.49000000953674316,-2.5317862480832516
80.53448300000001,,0.0,80.914,0.492000013589859,-2.52727083929319
81.0,,0.0,81.38,0.4819999933242798,-2.5489247449156163
81.465517,,0.0,81.844,0.4880000054836273,-2.5357503068285796
81.931034,,0.0,82.31,0.47999998927116394,-2.5531107296327593
82.396552,,0.0,82.774,0.4819999933242798,-2.5487208966769606
82.86206899999999,,0.0,83.236,0.48399999737739563,-2.5443686494104787
83.327586,,0.0,83.699,0.4970000088214874,-2.516088539889846
83.79310299999999,,0.0,84.17,0.46399998664855957,-2.5880626305356857
84.258621,,0.0,84.641,0.4860000014305115,-2.540245478696047
84.72413800000001,,0.0,85.095,0.5070000290870667,-2.494637467817044
85.189655,,0.0,85.561,0.49300000071525574,-2.5253074647001235
85.65517200000001,,0.0,86.026,0.503000020980835,-2.5037096529397056
86.12069,,0.0,86.492,0.47699999809265137,-2.5605576951110796
86.586207,,0.0,86.959,0.4950000047683716,-2.5215535987708253
87.051724,,0.0,87.425,0.4300000071525574,-2.6633802660830934
87.517241,,0.0,87.885,0.47999998927116394,-2.5546595266331167
87.98275899999999,,0.0,88.351,0.48899999260902405,-2.5352529218536963
88.448276,,0.0,88.819,0.4970000088214874,-2.518006507590023
88.913793,,0.0,89.281,0.47600001096725464,-2.5639164243846047
89.37931,,0.0,89.744,0.4819999933242798,-2.5509735828298603
89.844828,,0.0,90.214,0.4860000014305115,-2.542354435926864
90.310345,,0.0,90.678,0.49900001287460327,-2.514090057140923
90.775862,,0.0,91.14,0.49000000953674316,-2.5337160741987397
91.241379,,0.0,91.605,0.4959999918937683,-2.5206215838296204
91.706897,,0.0,92.076,0.49799999594688416,-2.5162012098553945
92.17241399999999,,0.0,92.534,0.4860000014305115,-2.542243306634752
92.63793100000001,,0.0,92.999,0.48500001430511475,-2.5442851080415907
93.103448,,0.0,93.464,0.4970000088214874,-2.5179736089093865
93.568966,,0.0,93.93,0.4869999885559082,-2.5395665021611755
94.03448300000001,,0.0,94.396,0.49900001287460327,-2.5132091096446736
94.5,,0.0,94.863,0.48399999737739563,-2.5456622243985647
94.965517,,0.0,95.329,0.5049999952316284,-2.4996780204489526
95.431034,,0.0,95.789,0.4909999966621399,-2.529947862496303
95.896552,,0.0,96.259,0.47999998927116394,-2.5536909485427177
96.36206899999999,,0.0,96.722,0.4909999966621399,-2.5295206174170426
96.827586,,0.0,97.184,0.47600001096725464,-2.5620188723622492
97.293103,,0.0,97.652,0.48100000619888306,-2.5509741772725607
97.758621,,0.0,98.114,0.49900001287460327,-2.5116418283623965
98.224138,,0.0,98.58,0.48899999260902405,-2.533349906726702
98.689655,,0.0,99.048,0.49000000953674316,-2.5311337264916816
99.155172,,0.0,99.513,0.49000000953674316,-2.5311388035660425
99.62069,,0.0,99.978,0.4950000047683716,-2.520293201433304
100.086207,,0.0,100.444,0.5009999871253967,-2.507309969025713
100.551724,,0.0,100.91,0.48100000619888306,-2.551010002755244
101.017241,,0.0,101.376,0.5049999952316284,-2.4988843649100447
101.482759,,0.0,101.841,0.4950000047683716,-2.52086228870071
101.948276,,0.0,102.299,0.4959999918937683,-2.5188986308655807
102.413793,,0.0,102.77,0.5,-2.5104158603030093
102.87931,,0.0,103.232,0.49399998784065247,-2.523729173123555
103.344828,,0.0,103.7,0.49000000953674316,-2.5326872650203525
103.810345,,0.0,104.162,0.4830000102519989,-2.548176158870642
104.275862,,0.0,104.628,0.5009999871253967,-2.509186054052255
104.741379,,0.0,105.093,0.4830000102519989,-2.548606917606354
105.206897,,0.0,105.559,0.503000020980835,-2.505212114026691
105.672414,,0.0,106.026,0.47999998927116394,-2.555466448411364
106.13793100000001,,0.0,106.484,0.47999998927116394,-2.5555745331707183
106.603448,,0.0,106.952,0.4909999966621399,-2.5316767125296744
107.068966,,0.0,107.417,0.5040000081062317,-2.503377711779334
107.534483,,0.0,107.882,0.49000000953674316,-2.533856867044892
108.0,,0.0,108.348,0.47699999809265137,-2.562112884586287
108.46551699999999,,0.0,108.811,0.5019999742507935,-2.5075377950108284
108.931034,,0.0,109.28,0.492000013589859,-2.529175452188687
109.396552,,0.0,109.744,0.49000000953674316,-2.5333485380441436
109.862069,,0.0,110.206,0.4779999852180481,-2.559278763605919
110.32758600000001,,0.0,110.67,0.5180000066757202,-2.471896030120717
110.793103,,0.0,111.14,0.49399998784065247,-2.5239303585022337
111.258621,,0.0,111.605,0.4880000054836273,-2.5367405532603886
111.724138,,0.0,112.068,0.49399998784065247,-2.5234075147829875
112.189655,,0.0,112.534,0.4869999885559082,-2.538405709820173
112.655172,,0.0,112.999,0.47999998927116394,-2.553421130201885
113.12069,,0.0,113.465,0.49000000953674316,-2.5314245147294003
113.586207,,0.0,113.925,0.4869999885559082,-2.53778214280215
114.051724,,0.0,114.391,0.49000000953674316,-2.5311052549228967
114.51724100000001,,0.0,114.856,0.47600001096725464,-2.5615078567537872
114.982759,,0.0,115.322,0.48100000619888306,-2.5505623296253352
115.448276,,0.0,115.785,0.48500001430511475,-2.5418435635107524
115.913793,,0.0,116.255,0.47699999809265137,-2.5593171010683493
116.37931,,0.0,116.715,0.5009999871253967,-2.507120951674211
116.84482799999999,,0.0,117.184,0.5529999732971191,-2.3939653712338758
117.310345,,0.0,117.648,0.5009999871253967,-2.50742660596139
117.77586199999999,,0.0,118.11,0.4830000102519989,-2.546847314095409
118.241379,,0.0,118.576,0.48500001430511475,-2.5427241067092186
118.70689700000001,,0.0,119.041,0.4860000014305115,-2.540801746109323
119.172414,,0.0,119.507,0.4790000021457672,-2.5563228916966088
119.63793100000001,,0.0,119.973,0.5130000114440918,-2.4825249484971237
120.103448,,0.0,120.439,0.4830000102519989,-2.548156905855747
120.568966,,0.0,120.899,0.4860000014305115,-2.541881629221783
121.034483,,0.0,121.365,0.4869999885559082,-2.5399439884998447
121.5,,0.0,121.837,0.46399998664855957,-2.5902668378179787
121.96551699999999,,0.0,122.295,0.4860000014305115,-2.5425168333752985
122.431034,,0.0,122.759,0.48399999737739563,-2.547014501619101
122.896552,,0.0,123.228,0.48100000619888306,-2.553645755472453
123.362069,,0.0,123.689,0.4869999885559082,-2.5406207877079234
123.827586,,0.0,124.159,0.4860000014305115,-2.542795761927914
124.293103,,0.0,124.625,0.5370000004768372,-2.4316290651568537
124.758621,,0.0,125.088,0.4970000088214874,-2.5186676328768423
125.22413800000001,,0.0,125.554,0.5379999876022339,-2.4291866441712373
125.68965500000002,,0.0,126.019,0.49000000953674316,-2.5335610463703846
126.15517200000001,,0.0,126.484,0.48399999737739563,-2.5463952117450073
126.62069000000001,,0.0,126.944,0.5040000081062317,-2.5025555039301177
127.086207,,0.0,127.41,0.47999998927116394,-2.5545556160709184
127.55172400000001,,0.0,127.874,0.4880000054836273,-2.5368274735230116
128.017241,,0.0,128.339,0.48500001430511475,-2.5430627366275873
128.48275900000002,,0.0,128.807,0.492000013589859,-2.5275191536645987
128.948276,,0.0,129.269,0.5059999823570251,-2.4967416050385696
129.413793,,0.0,129.737,0.4779999852180481,-2.5574925236423858
129.87931,,0.0,130.199,0.5009999871253967,-2.507166113923891
130.344828,,0.0,130.667,0.4880000054836273,-2.5353118575862794
130.81034499999998,,0.0,131.129,0.492000013589859,-2.526467263113138
131.275862,,0.0,131.595,0.49900001287460327,-2.5111378142076677
131.741379,,0.0,132.061,0.47699999809265137,-2.559043216113806
132.206897,,0.0,132.526,0.49799999594688416,-2.5133221116110316
132.67241399999997,,0.0,132.995,0.49000000953674316,-2.530836401976583
133.13793099999998,,0.0,133.454,0.492000013589859,-2.5266163395866736
133.60344800000001,,0.0,133.925,0.4740000069141388,-2.5660177958872876
134.06896600000002,,0.0,134.391,0.47999998927116394,-2.5531751341068007
134.53448300000002,,0.0,134.855,0.4880000054836273,-2.5360114713809323
135.0,,0.0,135.321,0.5009999871253967,-2.5079821048682827
135.465517,,0.0,135.781,0.49000000953674316,-2.532258093373698
135.931034,,0.0,136.251,0.5139999985694885,-2.48028922644947
136.396552,,0.0,136.711,0.49799999594688416,-2.515463640785108
136.862069,,0.0,137.181,0.5009999871253967,-2.50923113800572
137.327586,,0.0,137.641,0.47699999809265137,-2.561800508688596
137.793103,,0.0,138.11,0.49000000953674316,-2.5337298228015808
138.258621,,0.0,138.569,0.4869999885559082,-2.540479448058303
138.724138,,0.0,139.034,0.48100000619888306,-2.5537197846057373
139.189655,,0.0,139.499,0.48100000619888306,-2.5538377795870164
139.655172,,0.0,139.966,0.4959999918937683,-2.5212213457319654
140.12069,,0.0,140.432,0.4749999940395355,-2.5669789819488127
140.586207,,0.0,140.896,0.48899999260902405,-2.536426289176174
141.05172399999998,,0.0,141.361,0.49399998784065247,-2.5254248243459307
141.51724099999998,,0.0,141.833,0.5009999871253967,-2.5100118582852566
141.982759,,0.0,142.292,0.5040000081062317,-2.503263589046183
142.44827600000002,,0.0,142.759,0.49900001287460327,-2.5139009296840307
142.913793,,0.0,143.222,0.47699999809265137,-2.5615401028899303
143.37931,,0.0,143.685,0.4860000014305115,-2.5416156169397888
143.844828,,0.0,144.155,0.4880000054836273,-2.536926078351468
144.310345,,0.0,144.62,0.48899999260902405,-2.5344097727037007
144.77586200000002,,0.0,145.084,0.47999998927116394,-2.5536852162102135
145.241379,,0.0,145.549,0.47999998927116394,-2.5533689350170663
145.706897,,0.0,146.014,0.4749999940395355,-2.5639723488305908
146.172414,,0.0,146.479,0.4959999918937683,-2.5179664294046575
146.637931,,0.0,146.944,0.5009999871253967,-2.5068618517349104
147.103448,,0.0,147.41,0.49300000071525574,-2.5241290991331806
147.568966,,0.0,147.87,0.4970000088214874,-2.5153075364970854
148.034483,,0.0,148.335,0.5109999775886536,-2.4847580087563594
148.5,,0.0,148.805,0.48899999260902405,-2.532699949583657
148.965517,,0.0,149.268,0.5099999904632568,-2.487020462756777
149.43103399999998,,0.0,149.729,0.47600001096725464,-2.5612255546159792
149.89655199999999,,0.0,150.199,0.4959999918937683,-2.5178394492358516
150.362069,,0.0,150.663,0.4860000014305115,-2.5398631752748333
150.82758600000003,,0.0,151.125,0.46299999952316284,-2.590253145790413
151.293103,,0.0,151.59,0.4959999918937683,-2.518674464787156
151.758621,,0.0,152.054,0.4819999933242798,-2.549517698353161
152.224138,,0.0,152.52,0.4819999933242798,-2.5498745543709602
152.68965500000002,,0.0,152.984,0.48899999260902405,-2.5349845372993305
153.155172,,0.0,153.451,0.503000020980835,-2.5048356813154204
153.62069,,0.0,153.918,0.49000000953674316,-2.533490602332869
154.086207,,0.0,154.384,0.49399998784065247,-2.5250781815946564
154.551724,,0.0,154.844,0.48399999737739563,-2.547126989078577
155.017241,,0.0,155.31,0.49000000953674316,-2.5342692383300993
155.482759,,0.0,155.781,0.4819999933242798,-2.551857481822859
155.948276,,0.0,156.243,0.5090000033378601,-2.4931320483371846
156.413793,,0.0,156.707,0.492000013589859,-2.530202204607959
156.87931,,0.0,157.17,0.49399998784065247,-2.5258117234203343
157.34482799999998,,0.0,157.64,0.5669999718666077,-2.366670225353405
157.81034499999998,,0.0,158.103,0.4860000014305115,-2.5429752209346765
158.275862,,0.0,158.569,0.5040000081062317,-2.503534846355546
158.741379,,0.0,159.034,0.503000020980835,-2.505437360828567
159.20689700000003,,0.0,159.499,0.4819999933242798,-2.5508701364852593
159.672414,,0.0,159.959,0.48100000619888306,-2.552697779342408
160.137931,,0.0,160.425,0.5019999742507935,-2.5065741907803374
160.60344800000001,,0.0,160.889,0.48399999737739563,-2.54540800413079
161.06896600000002,,0.0,161.354,0.5049999952316284,-2.4992766783675635
161.534483,,0.0,161.822,0.47999998927116394,-2.553377395019344
162.0,,0.0,162.285,0.47099998593330383,-2.572646227129384
162.465517,,0.0,162.755,0.49000000953674316,-2.5309506038380762
162.931034,,0.0,163.219,0.49000000953674316,-2.530696256255743
163.396552,,0.0,163.681,0.5210000276565552,-2.462957893899254
163.862069,,0.0,164.144,0.4880000054836273,-2.5347133163798254
164.327586,,0.0,164.609,0.503000020980835,-2.501958709318245
164.793103,,0.0,165.079,0.492000013589859,-2.525917189111701
165.258621,,0.0,165.545,0.49399998784065247,-2.5216220714407496
165.72413799999998,,0.0,166.011,0.47699999809265137,-2.5587888528160874
166.189655,,0.0,166.469,0.47200000286102295,-2.5698764309148117
166.655172,,0.0,166.937,0.48399999737739563,-2.543986011275533
167.12069,,0.0,167.402,0.47600001096725464,-2.561719584173003
167.58620699999997,,0.0,167.867,0.503000020980835,-2.503241625455701
168.051724,,0.0,168.333,0.492000013589859,-2.5275821148612843
168.517241,,0.0,168.796,0.49000000953674316,-2.532332665898765
168.98275900000002,,0.0,169.265,0.47999998927116394,-2.5545184461306647
169.44827600000002,,0.0,169.726,0.4880000054836273,-2.5374820969268037
169.913793,,0.0,170.189,0.4860000014305115,-2.5422133572436323
170.37931,,0.0,170.659,0.4779999852180481,-2.559985734881721
170.844828,,0.0,171.121,0.4880000054836273,-2.538500652203119
171.310345,,0.0,171.587,0.4749999940395355,-2.5670731139592693
171.775862,,0.0,172.051,0.4970000088214874,-2.5193330180420657
172.241379,,0.0,172.517,0.47600001096725464,-2.5652085428662748
172.706897,,0.0,172.981,0.4860000014305115,-2.5434755392477904
173.172414,,0.0,173.447,0.492000013589859,-2.5303844800899116
173.637931,,0.0,173.914,0.5019999742507935,-2.508505938684528
174.103448,,0.0,174.38,0.47999998927116394,-2.5562735175425892
174.568966,,0.0,174.844,0.492000013589859,-2.5299016771870884
175.034483,,0.0,175.31,0.503000020980835,-2.5056498578488995
175.5,,0.0,175.773,0.5139999985694885,-2.4813474080235483
175.96551699999998,,0.0,176.236,0.48500001430511475,-2.544150570747188
176.43103399999998,,0.0,176.699,0.4729999899864197,-2.5698894718608893
176.896552,,0.0,177.169,0.47600001096725464,-2.5629349445369596
177.36206900000002,,0.0,177.64,0.503000020980835,-2.5036921313531626
177.827586,,0.0,178.095,0.46299999952316284,-2.590431166425977
178.293103,,0.0,178.561,0.4830000102519989,-2.546477066810194
178.758621,,0.0,179.026,0.4970000088214874,-2.515632727916172
179.224138,,0.0,179.491,0.48500001430511475,-2.5414814742178127
179.68965500000002,,0.0,179.959,0.48500001430511475,-2.5412444292318104
180.155172,,0.0,180.425,0.4909999966621399,-2.5280014152091987
180.62069,,0.0,180.885,0.49900001287460327,-2.510472278496465
181.086207,,0.0,181.351,0.48100000619888306,-2.5496627594574437
181.551724,,0.0,181.818,0.47999998927116394,-2.5518926280088925
182.01724099999998,,0.0,182.281,0.49000000953674316,-2.53023261657
182.482759,,0.0,182.744,0.49799999594688416,-2.5130011672937984
182.948276,,0.0,183.214,0.48899999260902405,-2.532871688597651
183.413793,,0.0,183.677,0.4860000014305115,-2.5397274975437307
183.87931,,0.0,184.14,0.5120000243186951,-2.483449620053749
184.34482799999998,,0.0,184.605,0.49000000953674316,-2.5317822951476514
184.81034499999998,,0.0,185.076,0.5120000243186951,-2.4842770632135536
185.27586200000002,,0.0,185.534,0.5139999985694885,-2.480353917959616
185.74137900000002,,0.0,185.999,0.4699999988079071,-2.5766443540376107
186.206897,,0.0,186.465,0.48100000619888306,-2.55309275150836
186.672414,,0.0,186.93,0.492000013589859,-2.5295119795862853
187.137931,,0.0,187.396,0.49399998784065247,-2.5254970673523083
187.60344800000001,,0.0,187.862,0.5139999985694885,-2.4822127017038365
188.06896600000002,,0.0,188.328,0.4819999933242798,-2.552154923024341
188.534483,,0.0,188.789,0.49000000953674316,-2.5348812146044644
189.0,,0.0,189.259,0.5170000195503235,-2.476137845900361
189.465517,,0.0,189.722,0.47600001096725464,-2.5654640594186855
189.931034,,0.0,190.184,0.48100000619888306,-2.554494316715471
190.39655199999999,,0.0,190.655,0.4959999918937683,-2.521662343489909
190.862069,,0.0,191.117,0.49000000953674316,-2.5345100248232564
191.327586,,0.0,191.583,0.47699999809265137,-2.5625432517486892
191.793103,,0.0,192.047,0.47999998927116394,-2.555662286642738
192.25862099999998,,0.0,192.513,0.4830000102519989,-2.548736022413176
192.72413799999998,,0.0,192.977,0.49900001287460327,-2.5134535909588323
193.189655,,0.0,193.443,0.43799999356269836,-2.6459069567403515
193.655172,,0.0,193.91,0.4959999918937683,-2.519095395545265
194.12069000000002,,0.0,194.369,0.49900001287460327,-2.512116699437551
194.586207,,0.0,194.834,0.47999998927116394,-2.5530885035734987
195.051724,,0.0,195.299,0.492000013589859,-2.5265558383202755
195.517241,,0.0,195.77,0.492000013589859,-2.526212919270628
195.98275900000002,,0.0,196.232,0.4729999899864197,-2.5673212970978216
196.448276,,0.0,196.7,0.49399998784065247,-2.521350053164117
196.913793,,0.0,197.162,0.49000000953674316,-2.529918174212262
197.37931,,0.0,197.628,0.47999998927116394,-2.5516363261318777
197.844828,,0.0,198.093,0.49000000953674316,-2.5298622321160207
198.310345,,0.0,198.559,0.48500001430511475,-2.540848668214983
198.775862,,0.0,199.026,0.49399998784065247,-2.5214121912174448
199.241379,,0.0,199.484,0.47999998927116394,-2.5521577999335876
199.706897,,0.0,199.951,0.5009999871253967,-2.5067166649645083
200.172414,,0.0,200.417,0.5019999742507935,-2.504904686282882
200.63793099999998,,0.0,200.881,0.4950000047683716,-2.5205666058584493
201.103448,,0.0,201.347,0.4790000021457672,-2.5558693122372853
201.568966,,0.0,201.815,0.4970000088214874,-2.517117646280314
202.034483,,0.0,202.277,0.4779999852180481,-2.558981545727518
202.5,,0.0,202.74,0.47999998927116394,-2.5550850904392792
202.965517,,0.0,203.21,0.49000000953674316,-2.5337365420352045
203.431034,,0.0,203.674,0.5049999952316284,-2.5014575868629794
203.896552,,0.0,204.136,0.47600001096725464,-2.564989093018574
204.36206900000002,,0.0,204.602,0.492000013589859,-2.5304207685734026
204.827586,,0.0,205.065,0.46399998664855957,-2.591643602153721
205.293103,,0.0,205.53,0.48899999260902405,-2.5373215460433616
205.758621,,0.0,205.996,0.515999972820282,-2.478560008358699
206.224138,,0.0,206.461,0.5,-2.5133944744677046
206.689655,,0.0,206.925,0.46299999952316284,-2.593895889963844
207.155172,,0.0,207.391,0.492000013589859,-2.5305257374728907
207.62069,,0.0,207.859,0.49799999594688416,-2.5171888087452197
208.086207,,0.0,208.324,0.39800000190734863,-2.7347217503142622
208.551724,,0.0,208.788,0.4959999918937683,-2.520826923429022
209.01724099999998,,0.0,209.251,0.5210000276565552,-2.4659274063377095
209.482759,,0.0,209.714,0.48100000619888306,-2.5526052090068116
209.948276,,0.0,210.184,0.5090000033378601,-2.4911145161172064
210.413793,,0.0,210.645,0.492000013589859,-2.527657658842344
210.87930999999998,,0.0,211.114,0.5049999952316284,-2.4988511258370836
211.344828,,0.0,211.58,0.5090000033378601,-2.4896769198212088
211.810345,,0.0,212.044,0.47600001096725464,-2.5611519182851468
212.27586200000002,,0.0,212.51,0.5040000081062317,-2.4997824744193196
212.741379,,0.0,212.974,0.49000000953674316,-2.529981028636265
213.206897,,0.0,213.44,0.48500001430511475,-2.5406464143625747
213.672414,,0.0,213.9,0.47600001096725464,-2.560109316336278
214.137931,,0.0,214.366,0.4970000088214874,-2.5143007476197967
214.60344800000001,,0.0,214.833,0.4659999907016754,-2.581872304640543
215.068966,,0.0,215.299,0.47600001096725464,-2.5602096265139154
215.534483,,0.0,215.759,0.4740000069141388,-2.5647782205045484
216.0,,0.0,216.228,0.48399999737739563,-2.54328411404186
216.465517,,0.0,216.689,0.46399998664855957,-2.5872219716897122
216.93103399999998,,0.0,217.158,0.49000000953674316,-2.5310034908248435
217.39655199999999,,0.0,217.624,0.4970000088214874,-2.516227306325073
217.862069,,0.0,218.088,0.4830000102519989,-2.54723564701636
218.327586,,0.0,218.554,0.47600001096725464,-2.563011242176644
218.793103,,0.0,219.014,0.4950000047683716,-2.522143674313557
219.25862099999998,,0.0,219.48,0.49799999594688416,-2.516119154844689
219.724138,,0.0,219.945,0.4819999933242798,-2.5514574306701174
220.18965500000002,,0.0,220.41,0.4869999885559082,-2.5409978946491036
220.65517200000002,,0.0,220.878,0.47600001096725464,-2.5653370760422756
221.12069,,0.0,221.343,0.47999998927116394,-2.556925273582854
221.586207,,0.0,221.804,0.4779999852180481,-2.5615042476395273
222.051724,,0.0,222.274,0.47999998927116394,-2.5572801096331927
222.517241,,0.0,222.736,0.492000013589859,-2.5311759958228133
222.98275900000002,,0.0,223.199,0.4909999966621399,-2.533298702447674
223.448276,,0.0,223.67,0.4959999918937683,-2.5222546723943737
223.913793,,0.0,224.133,0.5009999871253967,-2.5111197174334317
224.37931,,0.0,224.598,0.48500001430511475,-2.545652451341696
224.844828,,0.0,225.062,0.4749999940395355,-2.5670399133283435
225.31034499999998,,0.0,225.527,0.4830000102519989,-2.5491507016483657
225.775862,,0.0,225.992,0.48899999260902405,-2.5355717292471374
226.241379,,0.0,226.458,0.5139999985694885,-2.4805659336612718
226.706897,,0.0,226.923,0.4860000014305115,-2.541012244811606
227.172414,,0.0,227.389,0.4779999852180481,-2.557887310749961
227.63793099999998,,0.0,227.856,0.4869999885559082,-2.5377449788018533
228.103448,,0.0,228.314,0.4959999918937683,-2.5176387751043516
228.56896600000002,,0.0,228.784,0.4860000014305115,-2.538978469335042
229.03448300000002,,0.0,229.247,0.492000013589859,-2.5255256893659577
229.5,,0.0,229.715,0.48399999737739563,-2.5426523683423143
229.965517,,0.0,230.177,0.49000000953674316,-2.529366180352224
230.431034,,0.0,230.645,0.5040000081062317,-2.498745976542436
230.896552,,0.0,231.107,0.4699999988079071,-2.5728003803494803
231.362069,,0.0,231.573,0.4860000014305115,-2.5380236388045474
231.827586,,0.0,232.041,0.48899999260902405,-2.5316687225453416
232.293103,,0.0,232.499,0.5009999871253967,-2.505799592782056
232.758621,,0.0,232.971,0.48500001430511475,-2.5410179674753044
233.224138,,0.0,233.429,0.48100000619888306,-2.550167739141284
233.689655,,0.0,233.896,0.4740000069141388,-2.5659159880080424
234.155172,,0.0,234.361,0.4740000069141388,-2.5664613919131853
234.62069,,0.0,234.834,0.49000000953674316,-2.5321791427897917
235.086207,,0.0,235.292,0.4959999918937683,-2.5196955952407776
235.55172399999998,,0.0,235.755,0.4779999852180481,-2.559493236837927
236.01724099999998,,0.0,236.225,0.492000013589859,-2.52954971144451
236.482759,,0.0,236.688,0.49399998784065247,-2.525707966910664
236.94827600000002,,0.0,237.151,0.5889999866485596,-2.319191189275579
237.413793,,0.0,237.617,0.4790000021457672,-2.559220844650678
237.87931,,0.0,238.079,0.492000013589859,-2.531190046626717
238.344828,,0.0,238.545,0.4790000021457672,-2.5597099928351423
238.810345,,0.0,239.01,0.47699999809265137,-2.564164358847003
239.27586200000002,,0.0,239.476,0.4830000102519989,-2.551085830246382
239.741379,,0.0,239.94,0.5170000195503235,-2.4769003715091187
240.206897,,0.0,240.406,0.4819999933242798,-2.552939279905511
240.672414,,0.0,240.873,0.48899999260902405,-2.5373790909416294
241.137931,,0.0,241.339,0.49399998784065247,-2.526089931440933
241.603448,,0.0,241.8,0.4880000054836273,-2.538691293099931
242.068966,,0.0,242.269,0.49000000953674316,-2.5338032917112208
242.534483,,0.0,242.73,0.46299999952316284,-2.5920527001942215
243.0,,0.0,243.199,0.4880000054836273,-2.5369869797649454
243.465517,,0.0,243.663,0.46799999475479126,-2.5799535648190237
243.93103399999998,,0.0,244.125,0.4950000047683716,-2.5205351315836095
244.39655199999999,,0.0,244.591,0.4880000054836273,-2.5352202469856913
244.862069,,0.0,245.054,0.5270000100135803,-2.4497335573268413
245.327586,,0.0,245.52,0.48500001430511475,-2.540779247308221
245.793103,,0.0,245.987,0.47200000286102295,-2.568721483854758
246.258621,,0.0,246.453,0.49000000953674316,-2.5292159766139037
246.724138,,0.0,246.919,0.48500001430511475,-2.539918879530329
247.18965500000002,,0.0,247.385,0.4959999918937683,-2.5158689151691345
247.655172,,0.0,247.844,0.492000013589859,-2.524606921053175
248.12069,,0.0,248.31,0.4880000054836273,-2.533453118025289
248.586207,,0.0,248.778,0.5009999871253967,-2.5053668487218363
249.051724,,0.0,249.24,0.4880000054836273,-2.5340229578418603
249.517241,,0.0,249.711,0.492000013589859,-2.525729957716264
249.982759,,0.0,250.173,0.47600001096725464,-2.5610856629698624
250.44827600000002,,0.0,250.637,0.5090000033378601,-2.48974816351835
250.913793,,0.0,251.099,0.47999998927116394,-2.553530179911777
251.37931000000003,,0.0,251.565,0.49799999594688416,-2.5149406494239144
251.844828,,0.0,252.03,0.5009999871253967,-2.509036492042329
252.31034499999998,,0.0,252.495,0.49799999594688416,-2.5161899185953254
252.77586200000002,,0.0,252.962,0.46700000762939453,-2.584312763046755
253.241379,,0.0,253.428,0.47999998927116394,-2.556525125267229
253.706897,,0.0,253.892,0.4860000014305115,-2.5439211948991693
254.172414,,0.0,254.358,0.4880000054836273,-2.5399497856646476
254.63793099999998,,0.0,254.819,0.4880000054836273,-2.5402410352198648
255.10344800000001,,0.0,255.289,0.4819999933242798,-2.5535001216691517
255.56896600000002,,0.0,255.751,0.4970000088214874,-2.520897024011512
256.03448299999997,,0.0,256.214,0.47200000286102295,-2.575326501281836
256.5,,0.0,256.682,0.4860000014305115,-2.544676116188966
256.965517,,0.0,257.144,0.49000000953674316,-2.5357035241645978
257.431034,,0.0,257.61,0.4860000014305115,-2.544058502321999
257.896552,,0.0,258.081,0.47200000286102295,-2.574109166898711
258.362069,,0.0,258.539,0.46000000834465027,-2.5997259524836736
258.827586,,0.0,259.006,0.49799999594688416,-2.5163495439455836
259.29310300000003,,0.0,259.472,0.47699999809265137,-2.5614695707279886
259.758621,,0.0,259.937,0.4909999966621399,-2.5303120415673623
260.224138,,0.0,260.403,0.4909999966621399,-2.5296506903968146
260.689655,,0.0,260.87,0.4690000116825104,-2.576935167577786
261.155172,,0.0,261.335,0.48500001430511475,-2.5414670778975905
261.62068999999997,,0.0,261.798,0.4779999852180481,-2.556162979367121
262.086207,,0.0,262.26,0.4819999933242798,-2.546965909405952
262.551724,,0.0,262.725,0.49000000953674316,-2.529141550330105
263.017241,,0.0,263.195,0.47999998927116394,-2.550632736386662
263.482759,,0.0,263.656,0.4749999940395355,-2.5613403647082373
263.94827599999996,,0.0,264.125,0.36800000071525574,-2.7943886415667722
264.413793,,0.0,264.591,0.4749999940395355,-2.561329163976599
264.87931,,0.0,265.054,0.47600001096725464,-2.5593263173878116
265.34482799999995,,0.0,265.52,0.5009999871253967,-2.50514830400209
265.810345,,0.0,265.985,0.4490000009536743,-2.6188300398059448
266.27586199999996,,0.0,266.45,0.4869999885559082,-2.536526284499813
266.741379,,0.0,266.915,0.47200000286102295,-2.569768961251213
267.206897,,0.0,267.374,0.503000020980835,-2.5028540215048145
267.672414,,0.0,267.84,0.4880000054836273,-2.536197684272293
268.137931,,0.0,268.306,0.4860000014305115,-2.541239285137311
268.603448,,0.0,268.774,0.47999998927116394,-2.5549954235100985
269.06896600000005,,0.0,269.236,0.4690000116825104,-2.579624120866273
269.53448299999997,,0.0,269.7,0.5130000114440918,-2.4843858092128266
270.0,,0.0,270.17,0.48399999737739563,-2.5481274446819415
270.465517,,0.0,270.64,0.5049999952316284,-2.5028576088226435
270.931034,,0.0,271.095,0.4729999899864197,-2.572962586721364
271.396552,,0.0,271.561,0.4880000054836273,-2.5405657967496458
271.86206899999996,,0.0,272.025,0.492000013589859,-2.5320199824989227
272.327586,,0.0,272.491,0.45399999618530273,-2.614858128927529
272.793103,,0.0,272.955,0.49399998784065247,-2.527641022773844
273.258621,,0.0,273.421,0.48500001430511475,-2.54705828330359
273.724138,,0.0,273.886,0.5730000138282776,-2.355030698643039
274.18965499999996,,0.0,274.351,0.48100000619888306,-2.555051783098032
274.655172,,0.0,274.814,0.47600001096725464,-2.565436586405579
275.12069,,0.0,275.285,0.503000020980835,-2.506027730109239
275.586207,,0.0,275.748,0.48100000619888306,-2.5533132503635825
276.051724,,0.0,276.21,0.48899999260902405,-2.5351997253627956
276.517241,,0.0,276.674,0.4860000014305115,-2.541032908202167
276.98275900000004,,0.0,277.144,0.49799999594688416,-2.514189351771302
277.448276,,0.0,277.61,0.47999998927116394,-2.5527297545486123
277.913793,,0.0,278.072,0.49900001287460327,-2.5107055022486455
278.37931,,0.0,278.538,0.46299999952316284,-2.588572272779483
278.844828,,0.0,279.003,0.4749999940395355,-2.5619473864603806
279.31034500000004,,0.0,279.469,0.47600001096725464,-2.5593862783706163
279.77586199999996,,0.0,279.933,0.4740000069141388,-2.563471536716772
280.241379,,0.0,280.399,0.4749999940395355,-2.561139785923976
280.706897,,0.0,280.863,0.4860000014305115,-2.5371450516851937
281.172414,,0.0,281.329,0.49000000953674316,-2.528524938788562
281.637931,,0.0,281.792,0.4819999933242798,-2.5461697567526427
282.10344799999996,,0.0,282.254,0.4959999918937683,-2.5159988027459046
282.568966,,0.0,282.722,0.47600001096725464,-2.560006393534036
283.034483,,0.0,283.184,0.47999998927116394,-2.5518181713397143
283.5,,0.0,283.652,0.49000000953674316,-2.530633594304961
283.965517,,0.0,284.115,0.4880000054836273,-2.535649646987251
284.431034,,0.0,284.58,0.4480000138282776,-2.623491565742887
284.89655200000004,,0.0,285.045,0.48500001430511475,-2.543594191667941
285.362069,,0.0,285.51,0.492000013589859,-2.5290502572413196
285.827586,,0.0,285.977,0.49000000953674316,-2.534085407871372
286.293103,,0.0,286.443,0.47999998927116394,-2.556500214902299
286.758621,,0.0,286.907,0.48500001430511475,-2.5461665026971865
287.22413800000004,,0.0,287.372,0.503000020980835,-2.507424039192592
287.689655,,0.0,287.837,0.47600001096725464,-2.5666195311685636
288.155172,,0.0,288.302,0.5090000033378601,-2.494983259125843
288.62069,,0.0,288.77,0.5109999775886536,-2.4907634961952145
289.086207,,0.0,289.232,0.5090000033378601,-2.495131596114594
289.55172400000004,,0.0,289.696,0.47999998927116394,-2.558196905740235
290.01724099999996,,0.0,290.166,0.47600001096725464,-2.5666742574903765
290.482759,,0.0,290.624,0.4790000021457672,-2.5597874239172964
290.948276,,0.0,291.095,0.48100000619888306,-2.5549762177407245
291.413793,,0.0,291.554,0.5040000081062317,-2.504323770288124
291.87931,,0.0,292.021,0.4729999899864197,-2.571245197283873
292.344828,,0.0,292.487,0.5049999952316284,-2.5008575414012495
292.81034500000004,,0.0,292.952,0.5099999904632568,-2.4892592417831914
293.275862,,0.0,293.418,0.48399999737739563,-2.545186278193822
293.74137900000005,,0.0,293.885,0.503000020980835,-2.5030839823554
294.206897,,0.0,294.35,0.4729999899864197,-2.5677677549716473
294.672414,,0.0,294.811,0.49000000953674316,-2.530108391708922
295.13793100000004,,0.0,295.28,0.47600001096725464,-2.560060122465599
295.603448,,0.0,295.744,0.48100000619888306,-2.548707567378026
296.068966,,0.0,296.207,0.4699999988079071,-2.572317928393757
296.534483,,0.0,296.67,0.46399998664855957,-2.585150966343005
297.0,,0.0,297.14,0.4729999899864197,-2.5654277570484263
297.46551700000003,,0.0,297.605,0.492000013589859,-2.52404445775645
297.931034,,0.0,298.068,0.49000000953674316,-2.5285380371495654
298.396552,,0.0,298.535,0.4860000014305115,-2.537509624520013
298.862069,,0.0,298.999,0.48500001430511475,-2.5400581367108623
299.327586,,0.0,299.465,0.4729999899864197,-2.5666736644532064
299.79310300000003,,0.0,299.93,0.4959999918937683,-2.5171236417450475
300.258621,,0.0,300.396,0.492000013589859,-2.5264664856959693
300.724138,,0.0,300.855,0.47999998927116394,-2.553288536272243
301.189655,,0.0,301.321,0.47600001096725464,-2.5627108706917214
301.65517200000005,,0.0,301.789,0.49000000953674316,-2.5329254176113465
302.12069,,0.0,302.251,0.49000000953674316,-2.533626366217955
302.586207,,0.0,302.714,0.492000013589859,-2.529933403468282
303.05172400000004,,0.0,303.184,0.492000013589859,-2.5305405968867216
303.517241,,0.0,303.644,0.47999998927116394,-2.5572159804033454
303.982759,,0.0,304.114,0.48100000619888306,-2.555477266639855
304.448276,,0.0,304.58,0.48500001430511475,-2.547097648764058
304.913793,,0.0,305.045,0.4830000102519989,-2.5516745569149446
305.37931000000003,,0.0,305.511,0.49399998784065247,-2.527806728334604
305.844828,,0.0,305.969,0.48399999737739563,-2.549564978437302
306.310345,,0.0,306.435,0.47999998927116394,-2.5581270401823737
306.775862,,0.0,306.9,0.4880000054836273,-2.5404258555091133
307.241379,,0.0,307.365,0.492000013589859,-2.531327998647358
307.70689699999997,,0.0,307.837,0.48500001430511475,-2.546095688961046
308.172414,,0.0,308.295,0.47999998927116394,-2.5564217246812473
308.637931,,0.0,308.763,0.4860000014305115,-2.54271584636346
309.103448,,0.0,309.226,0.4880000054836273,-2.537677283486982
309.568966,,0.0,309.689,0.4779999852180481,-2.558756276987722
310.034483,,0.0,310.159,0.4819999933242798,-2.5493299089769326
310.5,,0.0,310.625,0.48399999737739563,-2.5442785704261053
310.96551700000003,,0.0,311.088,0.48100000619888306,-2.5501594704873907
311.431034,,0.0,311.554,0.5,-2.508169006651501
311.896552,,0.0,312.019,0.47200000286102295,-2.5686521434921805
312.362069,,0.0,312.484,0.5019999742507935,-2.502866910533903
312.827586,,0.0,312.944,0.4970000088214874,-2.513440089008219
313.29310300000003,,0.0,313.41,0.4830000102519989,-2.5437367670732898
313.758621,,0.0,313.878,0.4779999852180481,-2.5545482840287455
314.224138,,0.0,314.344,0.49900001287460327,-2.508840040040636
314.689655,,0.0,314.807,0.4790000021457672,-2.5525801081869917
315.155172,,0.0,315.27,0.4790000021457672,-2.5528660224860604
315.62068999999997,,0.0,315.74,0.4519999921321869,-2.6120864407802613
316.086207,,0.0,316.203,0.47699999809265137,-2.5581163270192526
316.551724,,0.0,316.671,0.5049999952316284,-2.4976932575232094
317.017241,,0.0,317.133,0.4860000014305115,-2.5397305826086516
317.482759,,0.0,317.599,0.5049999952316284,-2.4990231267163834
317.94827599999996,,0.0,318.062,0.49300000071525574,-2.525876305987829
318.413793,,0.0,318.528,0.49399998784065247,-2.5244078282664475
318.87931000000003,,0.0,318.992,0.47999998927116394,-2.555598383918632
319.344828,,0.0,319.458,0.492000013589859,-2.530102396775347
319.810345,,0.0,319.925,0.49000000953674316,-2.5350458617819154
320.275862,,0.0,320.391,0.5049999952316284,-2.5028721505286806
320.741379,,0.0,320.856,0.49000000953674316,-2.5359619001887688
321.20689699999997,,0.0,321.314,0.4819999933242798,-2.5536930726345033
321.672414,,0.0,321.785,0.5299999713897705,-2.449302245262431
322.137931,,0.0,322.247,0.48100000619888306,-2.5561162859767506
322.603448,,0.0,322.715,0.48100000619888306,-2.556051786810207
323.068966,,0.0,323.177,0.4959999918937683,-2.5231855049743146
323.53448299999997,,0.0,323.64,0.47999998927116394,-2.5577408199754297
324.0,,0.0,324.11,0.4659999907016754,-2.587832305834649
324.465517,,0.0,324.569,0.4790000021457672,-2.5590069460710985
324.931034,,0.0,325.036,0.48899999260902405,-2.5366393442718955
325.396552,,0.0,325.502,0.4970000088214874,-2.5185678235248754
325.86206899999996,,0.0,325.967,0.49000000953674316,-2.533134267391805
326.327586,,0.0,326.433,0.492000013589859,-2.5280721225897644
326.793103,,0.0,326.9,0.4869999885559082,-2.538261630464701
327.258621,,0.0,327.365,0.47600001096725464,-2.561545929454543
327.724138,,0.0,327.831,0.4819999933242798,-2.547837551920116
328.189655,,0.0,328.289,0.4880000054836273,-2.534192753537623
328.655172,,0.0,328.759,0.49399998784065247,-2.52062874790764
329.12068999999997,,0.0,329.222,0.5170000195503235,-2.470122613788739
329.586207,,0.0,329.685,0.47200000286102295,-2.5678717798796558
330.051724,,0.0,330.155,0.48500001430511475,-2.5393761877294696
330.517241,,0.0,330.621,0.49000000953674316,-2.5284323597673706
330.982759,,0.0,331.084,0.375,-2.7790522464224336
331.44827599999996,,0.0,331.549,0.49000000953674316,-2.528708237023684
331.913793,,0.0,332.014,0.47600001096725464,-2.559527235114354
332.37931,,0.0,332.48,0.48399999737739563,-2.542521444032534
332.844828,,0.0,332.945,0.4909999966621399,-2.5277863281589834
333.310345,,0.0,333.41,0.47200000286102295,-2.5697720260817145
333.77586199999996,,0.0,333.875,0.4830000102519989,-2.5464562090641776
334.241379,,0.0,334.34,0.4909999966621399,-2.529714027353029
334.706897,,0.0,334.803,0.4560000002384186,-2.6066702726891404
335.17241399999995,,0.0,335.266,0.49799999594688416,-2.5158657412430334
335.637931,,0.0,335.729,0.49000000953674316,-2.5339665112116068
336.103448,,0.0,336.199,0.49000000953674316,-2.5345898354169103
336.56896600000005,,0.0,336.663,0.4970000088214874,-2.5198952232201988
337.034483,,0.0,337.125,0.4880000054836273,-2.5399745177181074
337.5,,0.0,337.59,0.47699999809265137,-2.5643126976662542
337.965517,,0.0,338.054,0.4650000035762787,-2.590720599325674
338.431034,,0.0,338.52,0.4880000054836273,-2.5407591877667337
338.89655200000004,,0.0,338.984,0.492000013589859,-2.53207045096037
339.36206899999996,,0.0,339.45,0.4950000047683716,-2.525437529631957
339.827586,,0.0,339.915,0.49799999594688416,-2.518684708064777
340.293103,,0.0,340.381,0.5149999856948853,-2.4813173395530153
340.758621,,0.0,340.848,0.4729999899864197,-2.572387321730707
341.224138,,0.0,341.314,0.48100000619888306,-2.5544366235380536
341.68965499999996,,0.0,341.774,0.5049999952316284,-2.501555761494438
342.155172,,0.0,342.244,0.492000013589859,-2.52923071787037
342.62069,,0.0,342.707,0.47699999809265137,-2.5612293719864705
343.086207,,0.0,343.17,0.46399998664855957,-2.5888592413319955
343.551724,,0.0,343.641,0.47200000286102295,-2.5707479920031218
344.01724099999996,,0.0,344.103,0.4620000123977661,-2.591884171587795
344.48275900000004,,0.0,344.568,0.47600001096725464,-2.560784435136704
344.948276,,0.0,345.033,0.46799999475479126,-2.577684740221326
345.413793,,0.0,345.499,0.492000013589859,-2.524953554361059
345.87931,,0.0,345.959,0.4959999918937683,-2.51589334070097
346.344828,,0.0,346.424,0.47999998927116394,-2.550513991528129
346.81034500000004,,0.0,346.896,0.4830000102519989,-2.5438556359992757
347.275862,,0.0,347.354,0.4860000014305115,-2.5373162888659206
347.741379,,0.0,347.825,0.48899999260902405,-2.530895429740038
348.206897,,0.0,348.288,0.4970000088214874,-2.5136955762701216
348.672414,,0.0,348.751,0.4880000054836273,-2.5336395729140095
349.13793100000004,,0.0,349.214,0.49799999594688416,-2.512285430072082
349.60344799999996,,0.0,349.685,0.515999972820282,-2.473584271349117
350.068966,,0.0,350.147,0.4790000021457672,-2.5547747417957516
350.534483,,0.0,350.613,0.4950000047683716,-2.5205457487953957
351.0,,0.0,351.076,0.46399998664855957,-2.5887435383989734
351.465517,,0.0,351.542,0.4860000014305115,-2.541483290996982
351.93103399999995,,0.0,352.006,0.4779999852180481,-2.5595724143738976
352.396552,,0.0,352.472,0.503000020980835,-2.5057350581786757
352.862069,,0.0,352.937,0.48399999737739563,-2.5477078254713614
353.32758600000005,,0.0,353.403,0.4880000054836273,-2.5395035842473757
353.793103,,0.0,353.871,0.47999998927116394,-2.5573600559870604
354.258621,,0.0,354.329,0.47600001096725464,-2.5664061088990184
354.72413800000004,,0.0,354.799,0.4909999966621399,-2.533952219833294
355.189655,,0.0,355.262,0.47600001096725464,-2.5667451316565275
355.655172,,0.0,355.729,0.48100000619888306,-2.5558494015332065
356.12069,,0.0,356.192,0.4880000054836273,-2.540480892078128
356.586207,,0.0,356.659,0.4749999940395355,-2.5685735945824484
357.05172400000004,,0.0,357.122,0.5070000290870667,-2.498522138626738
357.517241,,0.0,357.587,0.48899999260902405,-2.5373082398175155
357.982759,,0.0,358.051,0.5889999866485596,-2.3189301246985004
358.448276,,0.0,358.517,0.4909999966621399,-2.5318553407545816
358.913793,,0.0,358.981,0.46700000762939453,-2.5835117028174963
359.37931000000003,,0.0,359.446,0.4699999988079071,-2.576318087200327
359.844828,,0.0,359.911,0.4749999940395355,-2.564761305195745
360.310345,,0.0,360.377,0.5009999871253967,-2.507466790202954
360.775862,,0.0,360.844,0.5009999871253967,-2.5068499620789835
361.241379,,0.0,361.31,0.4869999885559082,-2.5367857627674475
361.706897,,0.0,361.77,0.4950000047683716,-2.518860497088968
362.172414,,0.0,362.24,0.48100000619888306,-2.548950188488503
362.63793100000004,,0.0,362.7,0.4519999921321869,-2.6118177343733184
363.103448,,0.0,363.17,0.49000000953674316,-2.52882387691738
363.568966,,0.0,363.629,0.492000013589859,-2.524374717617976
364.034483,,0.0,364.101,0.4729999899864197,-2.5657926422689887
364.5,,0.0,364.559,0.4830000102519989,-2.544144474075602
364.96551700000003,,0.0,365.026,0.4699999988079071,-2.572715764363041
365.431034,,0.0,365.491,0.46399998664855957,-2.5861393655992497
365.896552,,0.0,365.956,0.515999972820282,-2.4732924688533973
366.362069,,0.0,366.421,0.4620000123977661,-2.5914586152669044
366.827586,,0.0,366.888,0.4779999852180481,-2.5571802476696797
367.29310300000003,,0.0,367.354,0.4909999966621399,-2.529480559600225
367.758621,,0.0,367.815,0.4830000102519989,-2.547555260077402
368.224138,,0.0,368.284,0.47200000286102295,-2.5721689112403756
368.689655,,0.0,368.748,0.4779999852180481,-2.5597288561256972
369.155172,,0.0,369.21,0.5,-2.512393687268841
369.62068999999997,,0.0,369.678,0.5009999871253967,-2.510754262590214
370.086207,,0.0,370.14,0.49799999594688416,-2.517756516119173
370.55172400000004,,0.0,370.606,0.492000013589859,-2.531207846120033
371.017241,,0.0,371.069,0.47999998927116394,-2.5576333914019536
371.482759,,0.0,371.534,0.4749999940395355,-2.5687028618225107
371.948276,,0.0,372.0,0.4429999887943268,-2.6384863573924937
372.413793,,0.0,372.465,0.49000000953674316,-2.5360456894808334
372.87931000000003,,0.0,372.93,0.48100000619888306,-2.5554993061517473
373.344828,,0.0,373.396,0.48399999737739563,-2.548703482360364
373.810345,,0.0,373.863,0.47699999809265137,-2.5635969668569643
374.275862,,0.0,374.328,0.4790000021457672,-2.5587968923433517
374.741379,,0.0,374.789,0.47600001096725464,-2.5648183524817987
375.20689699999997,,0.0,375.259,0.48399999737739563,-2.546819006098527
375.672414,,0.0,375.722,0.47600001096725464,-2.563639913494201
376.137931,,0.0,376.184,0.45500001311302185,-2.60876460896543
376.603448,,0.0,376.655,0.4970000088214874,-2.5166352539287455
377.068966,,0.0,377.118,0.48100000619888306,-2.5508867788718126
377.53448299999997,,0.0,377.583,0.47699999809265137,-2.559032270393019
378.0,,0.0,378.047,0.49000000953674316,-2.5301960608468463
378.465517,,0.0,378.513,0.4950000047683716,-2.5188596366315146
378.931034,,0.0,378.977,0.4729999899864197,-2.5664307876749612
379.396552,,0.0,379.443,0.5049999952316284,-2.496449874273672
379.862069,,0.0,379.908,0.47699999809265137,-2.557290640381145
380.327586,,0.0,380.373,0.4880000054836273,-2.533271818894392
380.79310300000003,,0.0,380.84,0.48100000619888306,-2.5485781442350453
381.258621,,0.0,381.299,0.45100000500679016,-2.6141015555494955
381.724138,,0.0,381.767,0.46799999475479126,-2.57733229607162
382.189655,,0.0,382.23,0.48100000619888306,-2.5493726001207193
382.655172,,0.0,382.7,0.47200000286102295,-2.569426159975806
383.12068999999997,,0.0,383.162,0.4779999852180481,-2.5568689467838817
383.586207,,0.0,383.629,0.5040000081062317,-2.500790958592807
384.051724,,0.0,384.094,0.4830000102519989,-2.5471434699724607
384.517241,,0.0,384.559,0.48899999260902405,-2.5346879734481402
384.982759,,0.0,385.025,0.5040000081062317,-2.502620866346467
385.44827599999996,,0.0,385.491,0.47200000286102295,-2.572927669169696
385.913793,,0.0,385.955,0.49000000953674316,-2.5342618008748587
386.37931,,0.0,386.421,0.48500001430511475,-2.5456478805817757
386.84482799999995,,0.0,386.886,0.4650000035762787,-2.5896419445291237
387.310345,,0.0,387.344,0.3880000114440918,-2.7577366820096514
387.775862,,0.0,387.814,0.4749999940395355,-2.5684420423947034
388.241379,,0.0,388.277,0.47999998927116394,-2.5576961720093347
388.70689699999997,,0.0,388.745,0.4830000102519989,-2.5512007100597835
389.172414,,0.0,389.207,0.48899999260902405,-2.5380610111559587
389.637931,,0.0,389.67,0.48100000619888306,-2.5553159699140986
390.103448,,0.0,390.14,0.4819999933242798,-2.5528623910298975
390.56896600000005,,0.0,390.605,0.49000000953674316,-2.5350659815859036
391.03448299999997,,0.0,391.068,0.47600001096725464,-2.5651190349857615
391.5,,0.0,391.534,0.5009999871253967,-2.510137810537199
391.965517,,0.0,391.995,0.5170000195503235,-2.474712338014382
392.431034,,0.0,392.461,0.4779999852180481,-2.5590780707149277
392.896552,,0.0,392.925,0.48399999737739563,-2.545389652032994
393.36206899999996,,0.0,393.391,0.49000000953674316,-2.5317060254927473
393.827586,,0.0,393.856,0.4009999930858612,-2.725019331359408
394.293103,,0.0,394.322,0.47999998927116394,-2.552364707106419
394.75862099999995,,0.0,394.785,0.48899999260902405,-2.532275965354209
395.224138,,0.0,395.254,0.49900001287460327,-2.5100817960508626
395.68965499999996,,0.0,395.718,0.4860000014305115,-2.5380821233244455
396.155172,,0.0,396.181,0.49000000953674316,-2.529140990698958
396.62069,,0.0,396.644,0.48100000619888306,-2.5486251533645246
397.086207,,0.0,397.114,0.492000013589859,-2.5246429632115928
397.551724,,0.0,397.58,0.49000000953674316,-2.529090158833153
398.017241,,0.0,398.04,0.4869999885559082,-2.5358200584423267
398.48275900000004,,0.0,398.506,0.49000000953674316,-2.5295760485693055
398.94827599999996,,0.0,398.97,0.4749999940395355,-2.56263704817993
399.413793,,0.0,399.436,0.49000000953674316,-2.5304161565281067
399.87931,,0.0,399.9,0.5009999871253967,-2.5069728942943987
400.344828,,0.0,400.366,0.49000000953674316,-2.531506129059879
400.810345,,0.0,400.833,0.49000000953674316,-2.532103228060485
401.27586199999996,,0.0,401.299,0.49000000953674316,-2.532711053476747
401.741379,,0.0,401.759,0.503000020980835,-2.504988142060492
402.206897,,0.0,402.229,0.4359999895095825,-2.651531272517922
402.672414,,0.0,402.692,0.47999998927116394,-2.556202026236069
403.137931,,0.0,403.154,0.49000000953674316,-2.5348875517261846
403.60344799999996,,0.0,403.62,0.49900001287460327,-2.5156765035414783
404.068966,,0.0,404.09,0.49000000953674316,-2.535593233108046
404.534483,,0.0,404.549,0.4819999933242798,-2.553234161615431
405.0,,0.0,405.018,0.49000000953674316,-2.535913207303857
405.465517,,0.0,405.484,0.48500001430511475,-2.5468078722567307
405.931034,,0.0,405.944,0.5009999871253967,-2.5118438045091036
406.39655200000004,,0.0,406.41,0.45100000500679016,-2.620567009460701
406.862069,,0.0,406.875,0.4740000069141388,-2.5701529695362413
407.327586,,0.0,407.34,0.4950000047683716,-2.524009417693857
407.793103,,0.0,407.81,0.4830000102519989,-2.549685507792387
408.258621,,0.0,408.273,0.46299999952316284,-2.592729879638613
408.72413800000004,,0.0,408.74,0.4830000102519989,-2.5485841548230437
409.18965499999996,,0.0,409.203,0.5,-2.510947267422768
409.655172,,0.0,409.67,0.48500001430511475,-2.543017678088036
410.12069,,0.0,410.132,0.48899999260902405,-2.533703356535354
410.586207,,0.0,410.598,0.4729999899864197,-2.5679904464575523
411.05172400000004,,0.0,411.062,0.4860000014305115,-2.539143076727501
411.51724099999996,,0.0,411.528,0.4830000102519989,-2.5452165942893297
411.982759,,0.0,411.993,0.45500001311302185,-2.605833547869394
412.448276,,0.0,412.459,0.48100000619888306,-2.54889319330471
412.913793,,0.0,412.925,0.4690000116825104,-2.574840119483666
413.37931,,0.0,413.384,0.47699999809265137,-2.557318624660441
413.844828,,0.0,413.856,0.4959999918937683,-2.5159389026403876
414.31034500000004,,0.0,414.314,0.49399998784065247,-2.52041646175539
414.775862,,0.0,414.785,0.47200000286102295,-2.5685690571216027
415.241379,,0.0,415.248,0.4819999933242798,-2.5471008795357464
415.706897,,0.0,415.711,0.49000000953674316,-2.530076008296626
416.172414,,0.0,416.18,0.46299999952316284,-2.589377575108156
416.63793100000004,,0.0,416.641,0.5009999871253967,-2.507126056944685
417.103448,,0.0,417.11,0.4779999852180481,-2.5578142192489373
417.568966,,0.0,417.569,0.49300000071525574,-2.5257378245827105
418.034483,,0.0,418.041,0.4779999852180481,-2.559026722154648
418.5,,0.0,418.499,0.47600001096725464,-2.563980425334039
418.96551700000003,,0.0,418.966,0.49900001287460327,-2.514436861909867
419.43103399999995,,0.0,419.433,0.47200000286102295,-2.5737769819588685
419.896552,,0.0,419.899,0.49799999594688416,-2.517584077763428
420.362069,,0.0,420.365,0.48500001430511475,-2.546279696468799
420.827586,,0.0,420.825,0.4779999852180481,-2.561813428074006
421.293103,,0.0,421.296,0.48399999737739563,-2.54892621530677
421.758621,,0.0,421.759,0.48100000619888306,-2.5555427064277514
422.22413800000004,,0.0,422.221,0.49000000953674316,-2.5359086032513813
422.689655,,0.0,422.685,0.4749999940395355,-2.5684560878909197
423.15517200000005,,0.0,423.154,0.4830000102519989,-2.550792817307422
423.62069,,0.0,423.62,0.5009999871253967,-2.5112481914564486
424.086207,,0.0,424.084,0.47099998593330383,-2.576193554274181
424.55172400000004,,0.0,424.549,0.47600001096725464,-2.564814412818085
425.017241,,0.0,425.014,0.4790000021457672,-2.5577361485629893
425.482759,,0.0,425.48,0.4659999907016754,-2.5854764538188326
425.948276,,0.0,425.945,0.48899999260902405,-2.5347633771562883
426.413793,,0.0,426.404,0.4959999918937683,-2.518904475436156
426.87931000000003,,0.0,426.87,0.48100000619888306,-2.550989846030127
427.344828,,0.0,427.336,0.49300000071525574,-2.524284204876431
427.810345,,0.0,427.8,0.4779999852180481,-2.5564519739853466
428.275862,,0.0,428.269,0.47699999809265137,-2.5581845654974513
428.741379,,0.0,428.733,0.48100000619888306,-2.5491038787410676
429.20689699999997,,0.0,429.195,0.5040000081062317,-2.4987195534649578
429.672414,,0.0,429.663,0.4959999918937683,-2.51597181016503
430.137931,,0.0,430.125,0.4749999940395355,-2.5616506751356023
430.603448,,0.0,430.59,0.47999998927116394,-2.550792079908134
431.068966,,0.0,431.054,0.47699999809265137,-2.5574693718894737
431.534483,,0.0,431.52,0.4950000047683716,-2.518497205934177
432.0,,0.0,431.984,0.49799999594688416,-2.512298932380241
432.46551700000003,,0.0,432.45,0.47699999809265137,-2.5584720195926987
432.931034,,0.0,432.915,0.4959999918937683,-2.517570503979899
433.396552,,0.0,433.381,0.4129999876022339,-2.69894875890447
433.862069,,0.0,433.848,0.4749999940395355,-2.564465144665218
434.327586,,0.0,434.314,0.49000000953674316,-2.5324010317825554
434.79310300000003,,0.0,434.777,0.48399999737739563,-2.5460909997380043
435.258621,,0.0,435.24,0.5759999752044678,-2.346254873566192
435.724138,,0.0,435.711,0.4880000054836273,-2.5385368307206133
436.189655,,0.0,436.173,0.5059999823570251,-2.4998274361615227
436.655172,,0.0,436.641,0.5109999775886536,-2.4893711896494213
437.12068999999997,,0.0,437.103,0.5080000162124634,-2.4962609988609876
437.586207,,0.0,437.568,0.49799999594688416,-2.518307905147977
438.051724,,0.0,438.033,0.4819999933242798,-2.553325983222861
438.517241,,0.0,438.499,0.4749999940395355,-2.5686316945909433
438.982759,,0.0,438.959,0.4779999852180481,-2.562045353192394
439.448276,,0.0,439.425,0.4860000014305115,-2.544461620873474
439.913793,,0.0,439.893,0.49000000953674316,-2.535492751367157
440.37931000000003,,0.0,440.358,0.4779999852180481,-2.561290306184989
440.844828,,0.0,440.822,0.49399998784065247,-2.526004247480805
441.310345,,0.0,441.284,0.4790000021457672,-2.5581878671381983
441.775862,,0.0,441.755,0.49000000953674316,-2.5336733735284147
442.241379,,0.0,442.218,0.4790000021457672,-2.557052748223344
442.70689699999997,,0.0,442.681,0.46700000762939453,-2.5825925469388205
443.172414,,0.0,443.144,0.4869999885559082,-2.538416054099664
443.637931,,0.0,443.609,0.4819999933242798,-2.5487240431451785
444.103448,,0.0,444.079,0.49000000953674316,-2.530745260753602
444.568966,,0.0,444.545,0.4860000014305115,-2.5389625210820403
445.03448299999997,,0.0,445.01,0.4259999990463257,-2.669252494086102
445.5,,0.0,445.469,0.5120000243186951,-2.481541635987525
445.965517,,0.0,445.934,0.3970000147819519,-2.731831823588264
446.431034,,0.0,446.399,0.46799999475479126,-2.5769946524414653
446.896552,,0.0,446.866,0.47699999809265137,-2.5573387678270065
447.36206899999996,,0.0,447.332,0.47600001096725464,-2.5595739317581505
447.827586,,0.0,447.795,0.4909999966621399,-2.5270528966211283
448.29310300000003,,0.0,448.265,0.4950000047683716,-2.5185933582128888
448.758621,,0.0,448.726,0.4790000021457672,-2.5537951197477375
449.224138,,0.0,449.189,0.4749999940395355,-2.5629313952822224
449.689655,,0.0,449.659,0.48100000619888306,-2.550346843421116
450.155172,,0.0,450.121,0.48399999737739563,-2.54434892064853
450.62068999999997,,0.0,450.587,0.49000000953674316,-2.5318489527419143
451.086207,,0.0,451.051,0.4869999885559082,-2.538973306493278
451.551724,,0.0,451.517,0.4819999933242798,-2.5504536548596244
452.017241,,0.0,451.981,0.5070000290870667,-2.49655533961929
452.482759,,0.0,452.447,0.47600001096725464,-2.564625114757598
452.94827599999996,,0.0,452.914,0.4830000102519989,-2.54985451881606
453.413793,,0.0,453.38,0.4819999933242798,-2.55244759217879
453.87931,,0.0,453.844,0.4909999966621399,-2.5331760789975384
454.344828,,0.0,454.31,0.4959999918937683,-2.5225308712871697
454.810345,,0.0,454.77,0.4819999933242798,-2.553184426906368
455.27586199999996,,0.0,455.24,0.4860000014305115,-2.5445228246618354
455.741379,,0.0,455.703,0.48100000619888306,-2.5553685675382907
456.206897,,0.0,456.166,0.4740000069141388,-2.5704731150652775
456.672414,,0.0,456.637,0.47600001096725464,-2.5658763221635077
457.137931,,0.0,457.099,0.4950000047683716,-2.5241561874043112
457.603448,,0.0,457.565,0.48899999260902405,-2.5368253482944794
458.06896600000005,,0.0,458.03,0.48100000619888306,-2.5537871177581684
458.53448299999997,,0.0,458.496,0.4860000014305115,-2.5423763731044033
459.0,,0.0,458.955,0.492000013589859,-2.528752338567805
459.465517,,0.0,459.421,0.47600001096725464,-2.563040648934943
459.931034,,0.0,459.885,0.48399999737739563,-2.545040910552065
460.39655200000004,,0.0,460.351,0.5040000081062317,-2.5009135653858237
460.86206899999996,,0.0,460.814,0.4790000021457672,-2.5548578494445824
461.327586,,0.0,461.284,0.4880000054836273,-2.534776376820858
461.793103,,0.0,461.744,0.4860000014305115,-2.538722648953636
462.258621,,0.0,462.214,0.47699999809265137,-2.557994292008201
462.724138,,0.0,462.677,0.46700000762939453,-2.579529830366362
463.18965499999996,,0.0,463.14,0.4819999933242798,-2.5466920085340212
463.655172,,0.0,463.605,0.4659999907016754,-2.581489485732183
464.12069,,0.0,464.076,0.4909999966621399,-2.5270608788485274
464.58620699999994,,0.0,464.534,0.4950000047683716,-2.5184802753685434
465.051724,,0.0,464.999,0.4779999852180481,-2.5557430941401122
465.517241,,0.0,465.465,0.4779999852180481,-2.556054054626018
465.98275900000004,,0.0,465.93,0.49799999594688416,-2.5128675748999085
466.448276,,0.0,466.396,0.46399998664855957,-2.5873918239123155
466.913793,,0.0,466.863,0.4880000054836273,-2.5356047360062868
467.37931,,0.0,467.33,0.47200000286102295,-2.570998913056223
467.844828,,0.0,467.792,0.48399999737739563,-2.545409904717496
468.31034500000004,,0.0,468.255,0.45100000500679016,-2.6178628239945585
468.77586199999996,,0.0,468.725,0.4309999942779541,-2.6619806992153134
469.241379,,0.0,469.188,0.546999990940094,-2.4097724197092836
469.706897,,0.0,469.656,0.4790000021457672,-2.5583875537748346
470.172414,,0.0,470.117,0.5130000114440918,-2.484718245560969
470.63793100000004,,0.0,470.583,0.4779999852180481,-2.5613022623410613
471.10344799999996,,0.0,471.047,0.4880000054836273,-2.539764203213997
471.568966,,0.0,471.513,0.4880000054836273,-2.539923044575846
472.034483,,0.0,471.977,0.47999998927116394,-2.55741701000322
472.5,,0.0,472.443,0.492000013589859,-2.5312422893758355
472.965517,,0.0,472.911,0.4830000102519989,-2.5507248179970032
473.43103399999995,,0.0,473.369,0.4790000021457672,-2.5592239890753117
473.89655200000004,,0.0,473.834,0.46000000834465027,-2.600320244858391
474.362069,,0.0,474.3,0.49300000071525574,-2.5280535774000827
474.827586,,0.0,474.77,0.46399998664855957,-2.5908010462108595
475.293103,,0.0,475.232,0.49900001287460327,-2.5140657644888056
475.758621,,0.0,475.696,0.48899999260902405,-2.5353347324572812
476.22413800000004,,0.0,476.166,0.4880000054836273,-2.5369760887405244
476.689655,,0.0,476.624,0.47099998593330383,-2.5734729339858755
477.155172,,0.0,477.096,0.47699999809265137,-2.559874569304341
477.62069,,0.0,477.554,0.48500001430511475,-2.5419483683292725
478.086207,,0.0,478.019,0.47699999809265137,-2.5589246199777667
478.55172400000004,,0.0,478.485,0.492000013589859,-2.5258491439565383
479.01724099999996,,0.0,478.952,0.47600001096725464,-2.560380644054647
479.482759,,0.0,479.417,0.4779999852180481,-2.5557751495253735
479.948276,,0.0,479.885,0.492000013589859,-2.525111509488258
480.413793,,0.0,480.351,0.47600001096725464,-2.559897480511051
480.87931000000003,,0.0,480.811,0.3720000088214874,-2.786498782203846
481.344828,,0.0,481.274,0.492000013589859,-2.5251777438562755
481.810345,,0.0,481.744,0.4350000023841858,-2.6495672859339083
482.275862,,0.0,482.206,0.4729999899864197,-2.5670672206915532
482.74137900000005,,0.0,482.67,0.48399999737739563,-2.5434629351785656
483.206897,,0.0,483.14,0.4790000021457672,-2.554776951972843
483.672414,,0.0,483.606,0.4699999988079071,-2.574852557518938
484.13793100000004,,0.0,484.068,0.48399999737739563,-2.5448519573042994
484.603448,,0.0,484.534,0.4959999918937683,-2.519225512219831
485.068966,,0.0,485.0,0.4729999899864197,-2.569852654635263
485.534483,,0.0,485.466,0.48899999260902405,-2.535498079946054
486.0,,0.0,485.925,0.4699999988079071,-2.577366975377922
486.46551700000003,,0.0,486.391,0.46799999475479126,-2.5821559998587045
486.931034,,0.0,486.856,0.49000000953674316,-2.5346018802544665
487.396552,,0.0,487.321,0.4819999933242798,-2.552340211187367
487.862069,,0.0,487.785,0.47200000286102295,-2.5743599264166064
488.327586,,0.0,488.254,0.4909999966621399,-2.533116666063566
488.79310300000003,,0.0,488.715,0.4880000054836273,-2.5397170315813593
489.258621,,0.0,489.184,0.48399999737739563,-2.5484079595094085
489.724138,,0.0,489.648,0.48399999737739563,-2.5482976994217332
490.189655,,0.0,490.11,0.503000020980835,-2.5067101483053444
490.655172,,0.0,490.576,0.4690000116825104,-2.5805145311616826
491.12069,,0.0,491.041,0.4819999933242798,-2.5518552491380078
491.586207,,0.0,491.506,0.4950000047683716,-2.5231392973578735
492.05172400000004,,0.0,491.971,0.503000020980835,-2.5052713814535945
492.517241,,0.0,492.437,0.4699999988079071,-2.576696616863366
492.982759,,0.0,492.903,0.48100000619888306,-2.5522449899436888
493.448276,,0.0,493.369,0.4860000014305115,-2.5408639809042515
493.913793,,0.0,493.836,0.48500001430511475,-2.5425678821884516
494.37931000000003,,0.0,494.295,0.453000009059906,-2.611837766778061
494.844828,,0.0,494.762,0.47999998927116394,-2.552609162125436
495.310345,,0.0,495.225,0.47999998927116394,-2.5522572747961307
495.775862,,0.0,495.696,0.47200000286102295,-2.5693975638871427
496.241379,,0.0,496.158,0.4880000054836273,-2.534321452306416
496.70689699999997,,0.0,496.624,0.48500001430511475,-2.540716355578536
497.172414,,0.0,497.088,0.46799999475479126,-2.5776928082424053
497.637931,,0.0,497.554,0.5070000290870667,-2.492746275393599
498.103448,,0.0,498.018,0.4749999940395355,-2.562563609854168
498.568966,,0.0,498.484,0.45899999141693115,-2.597599180805466
499.03448299999997,,0.0,498.944,0.49300000071525574,-2.5237735518339313
499.5,,0.0,499.41,0.48500001430511475,-2.5415135711408365
499.96551700000003,,0.0,499.874,0.47200000286102295,-2.570199309750114
500.431034,,0.0,500.34,0.49000000953674316,-2.5313882405836563
500.89655200000004,,0.0,500.811,0.48399999737739563,-2.5448933319725024
501.362069,,0.0,501.273,0.4519999921321869,-2.6150590684736827
501.827586,,0.0,501.741,0.48500001430511475,-2.543615407487579
502.293103,,0.0,502.203,0.48100000619888306,-2.5527705355829733
502.758621,,0.0,502.666,0.4819999933242798,-2.5510074905854143
503.224138,,0.0,503.129,0.4950000047683716,-2.52306317540641
503.68965499999996,,0.0,503.595,0.4880000054836273,-2.5386430298248857
504.15517200000005,,0.0,504.061,0.48399999737739563,-2.547628759651405
504.62068999999997,,0.0,504.527,0.4830000102519989,-2.550012999834027
505.08620699999994,,0.0,504.992,0.4830000102519989,-2.550147680863789
505.55172400000004,,0.0,505.458,0.46799999475479126,-2.5828881258272127
506.017241,,0.0,505.923,0.39500001072883606,-2.741916947338163
506.48275899999993,,0.0,506.388,0.49900001287460327,-2.515253753561868
506.948276,,0.0,506.855,0.46399998664855957,-2.591352912906473
507.413793,,0.0,507.321,0.47999998927116394,-2.556275086151518
507.87931,,0.0,507.781,0.492000013589859,-2.529852823332434
508.344828,,0.0,508.251,0.48399999737739563,-2.5469527548751447
508.810345,,0.0,508.714,0.48500001430511475,-2.5444041262558086
509.27586199999996,,0.0,509.177,0.49799999594688416,-2.5156823429841646
509.74137900000005,,0.0,509.641,0.47699999809265137,-2.561017189040759
510.20689699999997,,0.0,510.11,0.48100000619888306,-2.5518814649522303
510.67241399999995,,0.0,510.576,0.47200000286102295,-2.571076943455533
511.13793100000004,,0.0,511.041,0.4880000054836273,-2.5358271730826303
511.603448,,0.0,511.499,0.4869999885559082,-2.5376466395908652
512.0689659999999,,0.0,511.97,0.46299999952316284,-2.589617855269251
512.534483,,0.0,512.436,0.49000000953674316,-2.530530425537001
513.0,,0.0,512.896,0.48899999260902405,-2.532504684291636
513.465517,,0.0,513.361,0.4699999988079071,-2.5737596184197034
513.931034,,0.0,513.833,0.49000000953674316,-2.530116338116959
514.396552,,0.0,514.292,0.47099998593330383,-2.571511156388298
514.862069,,0.0,514.755,0.4690000116825104,-2.575939403441069
515.327586,,0.0,515.225,0.48399999737739563,-2.5433987996687355
515.793103,,0.0,515.685,0.46700000762939453,-2.5806381527755966
516.258621,,0.0,516.155,0.47600001096725464,-2.561289534699486
516.724138,,0.0,516.62,0.4869999885559082,-2.5376321474598305
517.189655,,0.0,517.083,0.49399998784065247,-2.5227274804165036
517.655172,,0.0,517.549,0.47699999809265137,-2.5601377432112584
518.1206900000001,,0.0,518.014,0.47600001096725464,-2.5627061387928936
518.5862070000001,,0.0,518.48,0.47699999809265137,-2.5609223815472224
519.051724,,0.0,518.944,0.47999998927116394,-2.5547744895201925
519.517241,,0.0,519.41,0.4860000014305115,-2.5420719807711807
519.982759,,0.0,519.87,0.4959999918937683,-2.520624926630021
520.448276,,0.0,520.336,0.492000013589859,-2.529638578397886
520.9137929999999,,0.0,520.799,0.4129999876022339,-2.702003547557387
521.37931,,0.0,521.269,0.48399999737739563,-2.5475181387494823
521.844828,,0.0,521.733,0.48100000619888306,-2.5541931752347526
522.310345,,0.0,522.196,0.5049999952316284,-2.5019796856588346
522.7758620000001,,0.0,522.659,0.5099999904632568,-2.491092755821301
523.241379,,0.0,523.129,0.47600001096725464,-2.5651056256491365
523.7068969999999,,0.0,523.595,0.4819999933242798,-2.551908565836019
524.172414,,0.0,524.061,0.48899999260902405,-2.5364733265257113
524.637931,,0.0,524.519,0.48500001430511475,-2.5449494078951007
525.103448,,0.0,524.985,0.49300000071525574,-2.5272354645084305
525.568966,,0.0,525.45,0.4729999899864197,-2.570486462856309
526.034483,,0.0,525.915,0.48500001430511475,-2.5439937326940223
526.5,,0.0,526.381,0.48399999737739563,-2.545807299696587
526.9655170000001,,0.0,526.848,0.49000000953674316,-2.5323648213746597
527.4310340000001,,0.0,527.314,0.49000000953674316,-2.531999792104356
527.8965519999999,,0.0,527.774,0.4869999885559082,-2.538187149102858
528.362069,,0.0,528.244,0.48500001430511475,-2.542222648088229
528.827586,,0.0,528.707,0.49000000953674316,-2.5310440639251737
529.293103,,0.0,529.17,0.5,-2.509016601968488
529.7586210000001,,0.0,529.637,0.4819999933242798,-2.5480424526078456
530.224138,,0.0,530.099,0.5009999871253967,-2.506514888863214
530.689655,,0.0,530.565,0.49000000953674316,-2.530406786833799
531.155172,,0.0,531.029,0.515999972820282,-2.4737501993492086
531.62069,,0.0,531.494,0.5,-2.508657640076836
532.086207,,0.0,531.959,0.48899999260902405,-2.5327312952183734
532.5517239999999,,0.0,532.425,0.5,-2.5089309500556656
533.017241,,0.0,532.889,0.49900001287460327,-2.5113252827394197
533.482759,,0.0,533.354,0.503000020980835,-2.502870327233565
533.9482760000001,,0.0,533.825,0.5109999775886536,-2.4857365900248203
534.413793,,0.0,534.287,0.5270000100135803,-2.4511995660345245
534.87931,,0.0,534.755,0.5180000066757202,-2.4711447035798586
535.344828,,0.0,535.218,0.527999997138977,-2.449701223086212
535.810345,,0.0,535.686,0.5090000033378601,-2.4914343367401854
536.275862,,0.0,536.148,0.5299999713897705,-2.44600767394395
536.7413789999999,,0.0,536.614,0.5260000228881836,-2.455023501730558
537.206897,,0.0,537.077,0.5090000033378601,-2.4923299199850044
537.672414,,0.0,537.542,0.5189999938011169,-2.470773812263067
538.137931,,0.0,538.007,0.531000018119812,-2.4448147875749027
538.6034480000001,,0.0,538.473,0.515999972820282,-2.4776286426699863
539.0689659999999,,0.0,538.937,0.5180000066757202,-2.473351419208358
539.5344829999999,,0.0,539.403,0.5529999732971191,-2.397122833127449
540.0,,0.0,539.87,0.5170000195503235,-2.475521304888065
540.465517,,0.0,540.336,0.5659999847412109,-2.3686792545030007
540.931034,,0.0,540.796,0.546999990940094,-2.4099321542525107
541.396552,,0.0,541.266,0.5519999861717224,-2.3988488632397647
541.862069,,0.0,541.729,0.5460000038146973,-2.4116885117818576
542.327586,,0.0,542.192,0.5820000171661377,-2.332989615540067
542.7931030000001,,0.0,542.655,0.5669999718666077,-2.365374134025944
543.258621,,0.0,543.125,0.5540000200271606,-2.39338266874571
543.7241379999999,,0.0,543.584,0.5389999747276306,-2.4257409840982227
544.189655,,0.0,544.051,0.6000000238418579,-2.29252355065505
544.655172,,0.0,544.517,0.5669999718666077,-2.3641094996841643
545.12069,,0.0,544.982,0.5270000100135803,-2.4509661326811156
545.5862070000001,,0.0,545.447,0.574999988079071,-2.3461319880256126
546.051724,,0.0,545.915,0.5659999847412109,-2.3655178144375295
546.517241,,0.0,546.38,0.5540000200271606,-2.3914826387182226
546.982759,,0.0,546.845,0.5669999718666077,-2.363030026918153
547.448276,,0.0,547.311,0.5820000171661377,-2.3302715648966554
547.9137929999999,,0.0,547.774,0.5720000267028809,-2.3520324376991706
548.3793099999999,,0.0,548.236,0.5820000171661377,-2.3302736890338367
548.844828,,0.0,548.699,0.6039999723434448,-2.2824227462400133
549.310345,,0.0,549.169,0.5540000200271606,-2.391483077113961
549.775862,,0.0,549.637,0.5659999847412109,-2.365513168018889
550.241379,,0.0,550.099,0.4690000116825104,-2.577058530576328
550.706897,,0.0,550.565,0.5920000076293945,-2.309338059869054
551.172414,,0.0,551.029,0.5720000267028809,-2.353190919792335
551.637931,,0.0,551.495,0.5789999961853027,-2.338236455153873
552.103448,,0.0,551.96,0.5690000057220459,-2.36032616811975
552.568966,,0.0,552.425,0.5830000042915344,-2.330126228733804
553.034483,,0.0,552.885,0.5789999961853027,-2.339130480683905
553.5,,0.0,553.351,0.5929999947547913,-2.3088984392680323
553.965517,,0.0,553.818,0.597000002861023,-2.3004237728452224
554.4310340000001,,0.0,554.281,0.5830000042915344,-2.331128575853827
554.896552,,0.0,554.744,0.5540000200271606,-2.394472065344815
555.3620689999999,,0.0,555.214,0.5540000200271606,-2.394590614939267
555.827586,,0.0,555.677,0.578000009059906,-2.342374434385746
556.293103,,0.0,556.14,0.5830000042915344,-2.3315027184847525
556.758621,,0.0,556.605,0.5830000042915344,-2.33147356998228
557.224138,,0.0,557.076,0.5799999833106995,-2.33793108125927
557.689655,,0.0,557.534,0.5830000042915344,-2.3312701948266006
558.155172,,0.0,558.002,0.5830000042915344,-2.3311030912748665
558.6206900000001,,0.0,558.468,0.546999990940094,-2.4093312995750176
559.0862070000001,,0.0,558.933,0.5789999961853027,-2.3393825118458214
559.5517239999999,,0.0,559.398,0.5400000214576721,-2.4240964865252814
560.017241,,0.0,559.863,0.5699999928474426,-2.358470635197467
560.482759,,0.0,560.329,0.5699999928474426,-2.3581987787212704
560.948276,,0.0,560.792,0.5680000185966492,-2.362286389283599
561.413793,,0.0,561.254,0.5339999794960022,-2.436101852505035
561.87931,,0.0,561.722,0.550000011920929,-2.401004198876927
562.344828,,0.0,562.184,0.4959999918937683,-2.518439483242822
562.8103450000001,,0.0,562.655,0.5379999876022339,-2.426758563979852
563.275862,,0.0,563.118,0.5519999861717224,-2.3961178021235017
563.7413789999999,,0.0,563.583,0.5339999794960022,-2.435234222832571
564.206897,,0.0,564.047,0.5440000295639038,-2.4133910563709695
564.672414,,0.0,564.513,0.5260000228881836,-2.4525939686296088
565.137931,,0.0,564.977,0.5299999713897705,-2.443910300386601
565.603448,,0.0,565.443,0.5419999957084656,-2.417838937384343
566.068966,,0.0,565.908,0.5299999713897705,-2.44409349275482
566.534483,,0.0,566.373,0.515999972820282,-2.474739781129285
567.0,,0.0,566.841,0.515999972820282,-2.474915030588374
567.465517,,0.0,567.299,0.5249999761581421,-2.4555065527186
567.931034,,0.0,567.77,0.5329999923706055,-2.438293686995453
568.396552,,0.0,568.233,0.4950000047683716,-2.5213089001621847
568.862069,,0.0,568.696,0.49000000953674316,-2.5324330762340357
569.327586,,0.0,569.166,0.4959999918937683,-2.519590094930673
569.793103,,0.0,569.624,0.49399998784065247,-2.5241670554231534
570.2586210000001,,0.0,570.096,0.492000013589859,-2.5287280412967403
570.724138,,0.0,570.554,0.49399998784065247,-2.52455260094826
571.189655,,0.0,571.026,0.48899999260902405,-2.535600405843515
571.655172,,0.0,571.484,0.49300000071525574,-2.5270087668900776
572.12069,,0.0,571.951,0.49000000953674316,-2.5336326767274655
572.586207,,0.0,572.417,0.4830000102519989,-2.548934100741597
573.051724,,0.0,572.882,0.492000013589859,-2.529339079318682
573.517241,,0.0,573.348,0.5090000033378601,-2.4922764027670894
573.982759,,0.0,573.81,0.4569999873638153,-2.6055034945827003
574.4482760000001,,0.0,574.28,0.5170000195503235,-2.474687644028168
574.913793,,0.0,574.741,0.4880000054836273,-2.537740255495155
575.37931,,0.0,575.21,0.5009999871253967,-2.5092622759623313
575.844828,,0.0,575.674,0.5049999952316284,-2.500369908135638
576.310345,,0.0,576.136,0.5139999985694885,-2.4805673878890206
576.775862,,0.0,576.602,0.4909999966621399,-2.530471057183045
577.241379,,0.0,577.065,0.4560000002384186,-2.606515830355744
577.706897,,0.0,577.53,0.5699999928474426,-2.3579453917841415
578.172414,,0.0,577.996,0.4830000102519989,-2.5472912918904984
578.6379310000001,,0.0,578.462,0.4950000047683716,-2.520965856408048
579.1034480000001,,0.0,578.926,0.46399998664855957,-2.5883445884379848
579.5689659999999,,0.0,579.392,0.49300000071525574,-2.525031695935002
580.034483,,0.0,579.859,0.4869999885559082,-2.538002414584449
580.5,,0.0,580.324,0.48500001430511475,-2.542291777793096
580.965517,,0.0,580.785,0.4860000014305115,-2.540080435413738
581.431034,,0.0,581.254,0.48500001430511475,-2.542262022665742
581.896552,,0.0,581.715,0.49000000953674316,-2.531406719171505
582.362069,,0.0,582.184,0.4860000014305115,-2.5401923770683186
582.827586,,0.0,582.644,0.4749999940395355,-2.564259150513102
583.2931030000001,,0.0,583.114,0.5009999871253967,-2.5077427254241496
583.758621,,0.0,583.58,0.5009999871253967,-2.5078926629134344
584.2241379999999,,0.0,584.044,0.47600001096725464,-2.5625250872416854
584.689655,,0.0,584.509,0.48500001430511475,-2.5430949520554536
585.155172,,0.0,584.974,0.5130000114440918,-2.482275679916647
585.6206900000001,,0.0,585.44,0.4650000035762787,-2.587032662646636
586.0862070000001,,0.0,585.9,0.48500001430511475,-2.5436354275401074
586.551724,,0.0,586.366,0.4830000102519989,-2.5481571107911627
587.017241,,0.0,586.833,0.47600001096725464,-2.5635553459906153
587.482759,,0.0,587.299,0.46399998664855957,-2.589826205859465
587.948276,,0.0,587.76,0.4699999988079071,-2.576857286380374
588.4137929999999,,0.0,588.23,0.46399998664855957,-2.590005301061196
588.87931,,0.0,588.693,0.48100000619888306,-2.55301506783655
589.344828,,0.0,589.155,0.4869999885559082,-2.5399589934185722
589.810345,,0.0,589.62,0.49000000953674316,-2.5334069539007595
590.2758620000001,,0.0,590.084,0.4959999918937683,-2.5202877657483715
590.741379,,0.0,590.55,0.4959999918937683,-2.5202107782348575
591.2068969999999,,0.0,591.014,0.4659999907016754,-2.585466943695602
591.672414,,0.0,591.48,0.4790000021457672,-2.557019438070018
592.137931,,0.0,591.945,0.47999998927116394,-2.554698487137738
592.603448,,0.0,592.411,0.5049999952316284,-2.5000767625135745
593.068966,,0.0,592.878,0.46700000762939453,-2.5827017991503416
593.534483,,0.0,593.344,0.46700000762939453,-2.582536503430411
594.0,,0.0,593.807,0.46799999475479126,-2.5801970555471656
594.4655170000001,,0.0,594.269,0.46799999475479126,-2.5800458861232762
594.9310340000001,,0.0,594.737,0.4690000116825104,-2.5777304671851757
595.3965519999999,,0.0,595.199,0.48500001430511475,-2.542753698784548
595.862069,,0.0,595.67,0.4779999852180481,-2.5579073905748677
596.327586,,0.0,596.132,0.4909999966621399,-2.5295120235548265
596.793103,,0.0,596.598,0.46399998664855957,-2.5882888557433463
597.2586210000001,,0.0,597.062,0.5149999856948853,-2.4771581637906523
597.724138,,0.0,597.527,0.48500001430511475,-2.5425245380387507
598.189655,,0.0,597.992,0.4959999918937683,-2.518592315434383
598.655172,,0.0,598.457,0.47600001096725464,-2.5622231598656313
599.12069,,0.0,598.922,0.47999998927116394,-2.5535898226026656
599.586207,,0.0,599.388,0.4729999899864197,-2.5689423242769878
600.0517239999999,,0.0,599.851,0.49000000953674316,-2.532024247212172
600.517241,,0.0,600.317,0.47200000286102295,-2.5713717338288564
600.982759,,0.0,600.785,0.46399998664855957,-2.588941570433147
601.448276,,0.0,601.247,0.4749999940395355,-2.5651215523872635
601.913793,,0.0,601.711,0.4699999988079071,-2.5761594519154034
602.37931,,0.0,602.181,0.47200000286102295,-2.5719414842029824
602.844828,,0.0,602.644,0.4819999933242798,-2.5502842773827594
603.310345,,0.0,603.107,0.4699999988079071,-2.576542846521712
603.775862,,0.0,603.572,0.45100000500679016,-2.6180344038679184
604.2413789999999,,0.0,604.037,0.4830000102519989,-2.548394535900727
604.706897,,0.0,604.503,0.4699999988079071,-2.5767705866323927
605.172414,,0.0,604.97,0.49000000953674316,-2.533225714735858
605.637931,,0.0,605.436,0.4749999940395355,-2.5659071871079258
606.1034480000001,,0.0,605.896,0.47600001096725464,-2.563704072132223
606.5689659999999,,0.0,606.361,0.44999998807907104,-2.6203001929516376
607.0344829999999,,0.0,606.833,0.46799999475479126,-2.581013736939785
607.5,,0.0,607.291,0.4779999852180481,-2.55913670481821
607.965517,,0.0,607.76,0.47200000286102295,-2.5721007424792823
608.431034,,0.0,608.222,0.5009999871253967,-2.5087980691647953
608.896552,,0.0,608.685,0.453000009059906,-2.613241335887609
609.362069,,0.0,609.154,0.46299999952316284,-2.5913186023940193
609.827586,,0.0,609.62,0.46399998664855957,-2.589004414278751
610.293103,,0.0,610.083,0.4699999988079071,-2.5758018154876225
610.758621,,0.0,610.549,0.4620000123977661,-2.593109426693465
611.2241379999999,,0.0,611.01,0.4650000035762787,-2.5864651859967522
611.689655,,0.0,611.476,0.4690000116825104,-2.577658970937322
612.155172,,0.0,611.94,0.4429999887943268,-2.6342322106961067
612.62069,,0.0,612.405,0.46700000762939453,-2.5818954747116423
613.0862070000001,,0.0,612.87,0.46399998664855957,-2.58840600174931
613.551724,,0.0,613.336,0.4650000035762787,-2.586225751170261
614.017241,,0.0,613.803,0.46000000834465027,-2.5971412391257673
614.4827590000001,,0.0,614.266,0.4819999933242798,-2.54925581821918
614.948276,,0.0,614.729,0.4519999921321869,-2.6146807957683706
615.4137929999999,,0.0,615.199,0.46700000762939453,-2.582085207181539
615.8793099999999,,0.0,615.663,0.46000000834465027,-2.5974357296042547
616.344828,,0.0,616.125,0.47999998927116394,-2.5539746373140613
616.810345,,0.0,616.591,0.4690000116825104,-2.5780591448683596
617.275862,,0.0,617.055,0.460999995470047,-2.5956114354171937
617.741379,,0.0,617.52,0.46299999952316284,-2.5913771200590587
618.206897,,0.0,617.985,0.46700000762939453,-2.582781279818147
618.672414,,0.0,618.451,0.47699999809265137,-2.561105016424794
619.137931,,0.0,618.918,0.45399999618530273,-2.6113119280731927
619.603448,,0.0,619.383,0.4519999921321869,-2.6157524858153653
620.068966,,0.0,619.848,0.45100000500679016,-2.617997464092831
620.534483,,0.0,620.314,0.4620000123977661,-2.594079512598555
621.0,,0.0,620.777,0.45100000500679016,-2.6180710519140864
621.465517,,0.0,621.24,0.44999998807907104,-2.620254729306653
621.9310340000001,,0.0,621.711,0.4490000009536743,-2.622417130787791
622.396552,,0.0,622.173,0.43799999356269836,-2.6463457291946257
622.862069,,0.0,622.641,0.45899999141693115,-2.6005385024916885
623.327586,,0.0,623.103,0.4429999887943268,-2.635323853554757
623.793103,,0.0,623.568,0.47999998927116394,-2.5546252942476535
624.258621,,0.0,624.033,0.45899999141693115,-2.6002751512073408
624.724138,,0.0,624.499,0.4659999907016754,-2.584912967583631
625.189655,,0.0,624.959,0.4490000009536743,-2.6218326723138867
625.655172,,0.0,625.425,0.46399998664855957,-2.5890341543642137
626.1206900000001,,0.0,625.889,0.460999995470047,-2.59545357903793
626.5862070000001,,0.0,626.355,0.42800000309944153,-2.6672391581914865
627.0517239999999,,0.0,626.825,0.4099999964237213,-2.7063570157668786
627.5172409999999,,0.0,627.288,0.46000000834465027,-2.5973422600335816
627.982759,,0.0,627.752,0.45399999618530273,-2.610348726017753
628.448276,,0.0,628.214,0.44999998807907104,-2.6190161359414597
628.913793,,0.0,628.685,0.44699999690055847,-2.6255248941382674
629.37931,,0.0,629.147,0.4569999873638153,-2.6037320810523155
629.844828,,0.0,629.613,0.44699999690055847,-2.6255330089368982
630.3103450000001,,0.0,630.075,0.421999990940094,-2.680034571772057
630.7758620000001,,0.0,630.541,0.4429999887943268,-2.6343385587186527
631.2413789999999,,0.0,631.006,0.45399999618530273,-2.6104467970177083
631.706897,,0.0,631.472,0.4390000104904175,-2.643214561386706
632.172414,,0.0,631.937,0.4560000002384186,-2.6062772261220144
632.637931,,0.0,632.403,0.44999998807907104,-2.6194567563541318
633.103448,,0.0,632.87,0.4440000057220459,-2.6326404752145356
633.568966,,0.0,633.336,0.4659999907016754,-2.5848224530306414
634.034483,,0.0,633.796,0.45100000500679016,-2.6176105284276288
634.5,,0.0,634.259,0.45899999141693115,-2.6002822420102305
634.9655170000001,,0.0,634.729,0.43799999356269836,-2.646124290910546
635.431034,,0.0,635.192,0.46399998664855957,-2.5895565711184103
635.8965519999999,,0.0,635.659,0.44699999690055847,-2.6266546942347557
636.362069,,0.0,636.122,0.45899999141693115,-2.6005539709330323
636.827586,,0.0,636.588,0.45500001311302185,-2.6092921525624946
637.293103,,0.0,637.051,0.46000000834465027,-2.5984023123432363
637.7586210000001,,0.0,637.517,0.43799999356269836,-2.646316137890158
638.224138,,0.0,637.982,0.4569999873638153,-2.604886538836654
638.689655,,0.0,638.448,0.4480000138282776,-2.6244414760152437
639.155172,,0.0,638.915,0.4440000057220459,-2.6330876529582574
639.62069,,0.0,639.374,0.4440000057220459,-2.6330063765336833
640.086207,,0.0,639.84,0.4390000104904175,-2.643808502037976
640.551724,,0.0,640.306,0.4569999873638153,-2.6044949055541937
641.017241,,0.0,640.774,0.4560000002384186,-2.6065714876657573
641.482759,,0.0,641.236,0.43799999356269836,-2.6456845598806127
641.9482760000001,,0.0,641.7,0.45500001311302185,-2.608548089280769
642.413793,,0.0,642.17,0.49799999594688416,-2.5147722750950834
642.87931,,0.0,642.64,0.4440000057220459,-2.6323330622623407
643.344828,,0.0,643.096,0.4519999921321869,-2.6148293089731376
643.810345,,0.0,643.561,0.4620000123977661,-2.592982892619433
644.275862,,0.0,644.025,0.44699999690055847,-2.6256192720826017
644.7413789999999,,0.0,644.491,0.46299999952316284,-2.5907355090177044
645.206897,,0.0,644.955,0.4490000009536743,-2.6212300430859554
645.672414,,0.0,645.421,0.4519999921321869,-2.614706761093165
646.1379310000001,,0.0,645.885,0.4490000009536743,-2.6212742994393388
646.6034480000001,,0.0,646.351,0.4359999895095825,-2.649646544295071
647.0689659999999,,0.0,646.814,0.45100000500679016,-2.617033258733894
647.534483,,0.0,647.284,0.45100000500679016,-2.617113821937141
648.0,,0.0,647.748,0.4659999907016754,-2.5845253906001826
648.465517,,0.0,648.211,0.44699999690055847,-2.6260183319005233
648.931034,,0.0,648.674,0.44600000977516174,-2.6282999590027445
649.396552,,0.0,649.143,0.44999998807907104,-2.6196895637848767
649.862069,,0.0,649.609,0.4429999887943268,-2.635041805588445
650.327586,,0.0,650.072,0.4569999873638153,-2.6046363571362185
650.7931030000001,,0.0,650.538,0.4519999921321869,-2.6156155399775836
651.258621,,0.0,651.003,0.45899999141693115,-2.600438048392603
651.7241379999999,,0.0,651.469,0.4650000035762787,-2.587423450535575
652.189655,,0.0,651.933,0.453000009059906,-2.613606695636547
652.655172,,0.0,652.399,0.42100000381469727,-2.6833446523037052
653.12069,,0.0,652.864,0.46700000762939453,-2.5831294594372802
653.5862070000001,,0.0,653.329,0.47699999809265137,-2.561325732721701
654.051724,,0.0,653.792,0.45899999141693115,-2.6005039037942024
654.517241,,0.0,654.254,0.4300000071525574,-2.6636292080458435
654.982759,,0.0,654.722,0.4440000057220459,-2.6330577457144377
655.448276,,0.0,655.184,0.46399998664855957,-2.58940159347453
655.9137929999999,,0.0,655.652,0.4399999976158142,-2.6415953893899724
656.37931,,0.0,656.114,0.44699999690055847,-2.626244132154037
656.844828,,0.0,656.58,0.46700000762939453,-2.582566717550713
657.310345,,0.0,657.047,0.44699999690055847,-2.6260347018835684
657.7758620000001,,0.0,657.513,0.4429999887943268,-2.6346477429088195
658.241379,,0.0,657.977,0.4440000057220459,-2.6323749479455545
658.7068969999999,,0.0,658.443,0.45399999618530273,-2.610504934739598
659.172414,,0.0,658.907,0.45100000500679016,-2.616970443667162
659.637931,,0.0,659.373,0.44999998807907104,-2.6190942273726683
660.103448,,0.0,659.838,0.44699999690055847,-2.62559285084121
660.568966,,0.0,660.304,0.46399998664855957,-2.5885372773155626
661.034483,,0.0,660.767,0.4429999887943268,-2.63428961161202
661.5,,0.0,661.229,0.44600000977516174,-2.6277740556471016
661.965517,,0.0,661.696,0.47699999809265137,-2.560275210024477
662.4310340000001,,0.0,662.159,0.43700000643730164,-2.647477513997446
662.8965519999999,,0.0,662.624,0.48100000619888306,-2.5516886674376567
663.362069,,0.0,663.095,0.4909999966621399,-2.5299858605008145
663.827586,,0.0,663.554,0.4399999976158142,-2.6411896230123437
664.293103,,0.0,664.025,0.45100000500679016,-2.6173246321041557
664.7586210000001,,0.0,664.484,0.46299999952316284,-2.591285596601857
665.224138,,0.0,664.955,0.45100000500679016,-2.617534830723343
665.689655,,0.0,665.421,0.4659999907016754,-2.5849577545240163
666.155172,,0.0,665.886,0.45100000500679016,-2.61773380696217
666.62069,,0.0,666.344,0.46399998664855957,-2.5894982862832365
667.086207,,0.0,666.814,0.4690000116825104,-2.578679178081525
667.5517239999999,,0.0,667.276,0.44699999690055847,-2.626668467106533
668.017241,,0.0,667.74,0.4749999940395355,-2.5657082360691823
668.482759,,0.0,668.21,0.4490000009536743,-2.6223763936110793
668.948276,,0.0,668.674,0.44600000977516174,-2.6289166117624854
669.413793,,0.0,669.137,0.45500001311302185,-2.6092942300353474
669.87931,,0.0,669.602,0.44699999690055847,-2.6266903244862028
670.3448279999999,,0.0,670.066,0.46700000762939453,-2.583066279147183
670.810345,,0.0,670.532,0.44999998807907104,-2.6200356664013085
671.275862,,0.0,670.997,0.43799999356269836,-2.6460976644959695
671.7413789999999,,0.0,671.462,0.45399999618530273,-2.6111464112323053
672.206897,,0.0,671.929,0.4480000138282776,-2.6241169657663317
672.672414,,0.0,672.395,0.45100000500679016,-2.617474338378407
673.137931,,0.0,672.855,0.46299999952316284,-2.591221605265693
673.6034480000001,,0.0,673.321,0.41999998688697815,-2.6847960994577607
674.068966,,0.0,673.788,0.4560000002384186,-2.606262887903236
674.5344829999999,,0.0,674.251,0.3569999933242798,-2.8218575569335864
675.0,,0.0,674.718,0.41499999165534973,-2.6954192881741452
675.465517,,0.0,675.181,0.44999998807907104,-2.619106289191796
675.931034,,0.0,675.644,0.4569999873638153,-2.603810991247631
676.396552,,0.0,676.114,0.4569999873638153,-2.6037820834730647
676.862069,,0.0,676.58,0.43700000643730164,-2.6473429826738677
677.327586,,0.0,677.044,0.45500001311302185,-2.6081327934665204
677.793103,,0.0,677.509,0.4259999990463257,-2.6713367194838984
678.2586210000001,,0.0,677.974,0.4390000104904175,-2.643054610070639
678.7241379999999,,0.0,678.44,0.46700000762939453,-2.5821083099321323
679.1896549999999,,0.0,678.899,0.4480000138282776,-2.6235713197588226
679.655172,,0.0,679.365,0.4390000104904175,-2.643258908187087
680.12069,,0.0,679.837,0.4560000002384186,-2.606310628090708
680.5862070000001,,0.0,680.295,0.453000009059906,-2.6129411951517825
681.051724,,0.0,680.766,0.44699999690055847,-2.626110733989352
681.517241,,0.0,681.229,0.4480000138282776,-2.624030012176952
681.9827590000001,,0.0,681.689,0.4659999907016754,-2.5849095449137276
682.448276,,0.0,682.159,0.46299999952316284,-2.5915344408920067
682.9137929999999,,0.0,682.624,0.43799999356269836,-2.6460811515899922
683.3793099999999,,0.0,683.088,0.45100000500679016,-2.6178291433745313
683.844828,,0.0,683.554,0.4429999887943268,-2.6353169987055174
684.310345,,0.0,684.018,0.43799999356269836,-2.6462555768606704
684.775862,,0.0,684.483,0.4490000009536743,-2.622321388967289
685.241379,,0.0,684.948,0.44699999690055847,-2.626694201644086
685.706897,,0.0,685.414,0.46799999475479126,-2.5809417238069683
686.172414,,0.0,685.881,0.45100000500679016,-2.617961224644997
686.637931,,0.0,686.339,0.46000000834465027,-2.598319891641426
687.103448,,0.0,686.807,0.460999995470047,-2.596092882361917
687.5689659999999,,0.0,687.269,0.4490000009536743,-2.6221749316202945
688.034483,,0.0,687.737,0.4339999854564667,-2.654782280846513
688.5,,0.0,688.2,0.45100000500679016,-2.617664780472709
688.965517,,0.0,688.67,0.46799999475479126,-2.5805410989081383
689.4310340000001,,0.0,689.133,0.4429999887943268,-2.634916528993626
689.896552,,0.0,689.598,0.4429999887943268,-2.63482488128359
690.362069,,0.0,690.062,0.4440000057220459,-2.6325568552600647
690.827586,,0.0,690.527,0.4519999921321869,-2.615043056644565
691.293103,,0.0,690.992,0.4429999887943268,-2.6345732403739346
691.758621,,0.0,691.457,0.45500001311302185,-2.6083608393816524
692.224138,,0.0,691.922,0.4729999899864197,-2.56908702957385
692.689655,,0.0,692.388,0.4480000138282776,-2.6235065742635437
693.155172,,0.0,692.856,0.45500001311302185,-2.6082226677679654
693.6206900000001,,0.0,693.314,0.4519999921321869,-2.614739712774597
694.0862070000001,,0.0,693.785,0.44999998807907104,-2.6190929674176804
694.551724,,0.0,694.247,0.44699999690055847,-2.625639954969697
695.0172409999999,,0.0,694.715,0.45100000500679016,-2.6169511732320982
695.482759,,0.0,695.178,0.43799999356269836,-2.6453135498898264
695.948276,,0.0,695.64,0.45100000500679016,-2.617043985456033
696.4137929999999,,0.0,696.111,0.44699999690055847,-2.6258226800790574
696.87931,,0.0,696.569,0.4390000104904175,-2.643325195027763
697.344828,,0.0,697.036,0.4560000002384186,-2.6063686266201307
697.8103450000001,,0.0,697.502,0.46700000762939453,-2.5824878882754656
698.2758620000001,,0.0,697.967,0.4659999907016754,-2.5847517395779285
698.741379,,0.0,698.433,0.45100000500679016,-2.6175149834008806
699.206897,,0.0,698.9,0.453000009059906,-2.61323773583917
699.672414,,0.0,699.359,0.4490000009536743,-2.622026957127395
700.137931,,0.0,699.833,0.4480000138282776,-2.624272784740568
700.603448,,0.0,700.291,0.44699999690055847,-2.6265095573302175
701.068966,,0.0,700.759,0.4429999887943268,-2.635271688422439
701.534483,,0.0,701.221,0.453000009059906,-2.613520803096165
702.0,,0.0,701.689,0.4490000009536743,-2.6222580418519343
702.4655170000001,,0.0,702.152,0.4620000123977661,-2.5939443324969305
702.931034,,0.0,702.617,0.4359999895095825,-2.6505840690786955
703.3965519999999,,0.0,703.08,0.4560000002384186,-2.606992520636224
703.862069,,0.0,703.546,0.43799999356269836,-2.6461770281056953
704.327586,,0.0,704.01,0.37599998712539673,-2.7812118678718236
704.793103,,0.0,704.476,0.4429999887943268,-2.6351932951275576
705.2586210000001,,0.0,704.94,0.4880000054836273,-2.5370964478457143
705.724138,,0.0,705.406,0.4519999921321869,-2.6154609802594897
706.189655,,0.0,705.87,0.47200000286102295,-2.5718137739114937
706.6551720000001,,0.0,706.336,0.5249999761581421,-2.456264898673949
707.12069,,0.0,706.803,0.4620000123977661,-2.593434023691798
707.586207,,0.0,707.266,0.45899999141693115,-2.599883152787383
708.051724,,0.0,707.733,0.4410000145435333,-2.6390150708469604
708.517241,,0.0,708.196,0.4690000116825104,-2.5779351402427344
708.982759,,0.0,708.659,0.4390000104904175,-2.6432251037101864
709.4482760000001,,0.0,709.129,0.4519999921321869,-2.6148439714919807
709.913793,,0.0,709.594,0.45100000500679016,-2.6169765919576875
710.37931,,0.0,710.061,0.4339999854564667,-2.653981970109255
710.844828,,0.0,710.519,0.47200000286102295,-2.5711768080511703
711.310345,,0.0,710.988,0.4580000042915344,-2.601676376366619
711.775862,,0.0,711.454,0.46299999952316284,-2.5907963594621504
712.2413789999999,,0.0,711.918,0.4490000009536743,-2.6213253871639206
712.706897,,0.0,712.384,0.45399999618530273,-2.610474358737383
713.172414,,0.0,712.849,0.45500001311302185,-2.608350968664439
713.637931,,0.0,713.314,0.47699999809265137,-2.560486920734481
714.1034480000001,,0.0,713.777,0.4490000009536743,-2.621563917213301
714.5689659999999,,0.0,714.24,0.45500001311302185,-2.6085737459453355
715.034483,,0.0,714.711,0.46399998664855957,-2.5890523360269295
715.5,,0.0,715.173,0.46299999952316284,-2.5913189456677985
715.965517,,0.0,715.637,0.4410000145435333,-2.639336446211893
716.431034,,0.0,716.099,0.46399998664855957,-2.58931187903711
716.896552,,0.0,716.564,0.4339999854564667,-2.6547502792288986
717.362069,,0.0,717.029,0.46299999952316284,-2.591640692944703
717.827586,,0.0,717.495,0.4519999921321869,-2.615666946072314
718.2931030000001,,0.0,717.96,0.4650000035762787,-2.587393104710933
718.758621,,0.0,718.425,0.4490000009536743,-2.622286119572982
719.2241379999999,,0.0,718.892,0.4749999940395355,-2.565660614800575
719.689655,,0.0,719.358,0.46299999952316284,-2.591807383030702
720.155172,,0.0,719.826,0.4779999852180481,-2.559113829944116
720.62069,,0.0,720.288,0.4740000069141388,-2.567797832013318
721.0862070000001,,0.0,720.751,0.4819999933242798,-2.550322078713153
721.551724,,0.0,721.214,0.453000009059906,-2.6134420333179302
722.017241,,0.0,721.685,0.4620000123977661,-2.593761801025577
722.482759,,0.0,722.147,0.4309999942779541,-2.661219127326962
722.948276,,0.0,722.613,0.45899999141693115,-2.6001306643708366
723.4137929999999,,0.0,723.075,0.4429999887943268,-2.6348998191627193
723.87931,,0.0,723.541,0.43799999356269836,-2.6457037641644074
724.344828,,0.0,724.007,0.4650000035762787,-2.58679354386357
724.810345,,0.0,724.473,0.4560000002384186,-2.606319177888186
725.2758620000001,,0.0,724.94,0.44200000166893005,-2.63674502379481
725.741379,,0.0,725.406,0.46799999475479126,-2.5800343059038853
726.2068969999999,,0.0,725.871,0.44699999690055847,-2.625731058549477
726.672414,,0.0,726.329,0.4860000014305115,-2.540720968330027
727.137931,,0.0,726.8,0.4440000057220459,-2.632194518523121
727.603448,,0.0,727.262,0.4490000009536743,-2.6212862147432863
728.068966,,0.0,727.725,0.46000000834465027,-2.597321422987738
728.534483,,0.0,728.195,0.4519999921321869,-2.6147660243131887
729.0,,0.0,728.656,0.4519999921321869,-2.614795972477531
729.465517,,0.0,729.125,0.45899999141693115,-2.5995890111570055
729.9310340000001,,0.0,729.591,0.46700000762939453,-2.5822152179594995
730.3965519999999,,0.0,730.054,0.4620000123977661,-2.593173699168972
730.8620689999999,,0.0,730.52,0.43799999356269836,-2.6455348852952594
731.327586,,0.0,730.984,0.453000009059906,-2.612935489854689
731.793103,,0.0,731.451,0.45100000500679016,-2.617377486270072
732.2586210000001,,0.0,731.91,0.460999995470047,-2.5956770617453584
732.724138,,0.0,732.376,0.4699999988079071,-2.576153515660919
733.189655,,0.0,732.841,0.47600001096725464,-2.5631609987231396
733.655172,,0.0,733.307,0.46000000834465027,-2.598091470760105
734.12069,,0.0,733.77,0.45100000500679016,-2.6177626547845696
734.586207,,0.0,734.24,0.46399998664855957,-2.589493446022951
735.0517239999999,,0.0,734.703,0.44699999690055847,-2.626572029009071
735.517241,,0.0,735.166,0.46000000834465027,-2.5982785264244526
735.982759,,0.0,735.633,0.47600001096725464,-2.56343526145776
736.448276,,0.0,736.096,0.4490000009536743,-2.622259427816897
736.913793,,0.0,736.561,0.44999998807907104,-2.6200676995821692
737.37931,,0.0,737.026,0.4490000009536743,-2.622220474023124
737.844828,,0.0,737.492,0.45399999618530273,-2.6112894233352524
738.310345,,0.0,737.959,0.45100000500679016,-2.617776628419599
738.775862,,0.0,738.425,0.46000000834465027,-2.5981104643861372
739.2413789999999,,0.0,738.889,0.45899999141693115,-2.6002227141166543
739.706897,,0.0,739.355,0.44600000977516174,-2.6284726212662615
740.172414,,0.0,739.818,0.46399998664855957,-2.5891807197532146
740.637931,,0.0,740.28,0.46299999952316284,-2.5912810985273946
741.1034480000001,,0.0,740.748,0.4650000035762787,-2.5868454940835686
741.568966,,0.0,741.21,0.4860000014305115,-2.541017330549684
742.034483,,0.0,741.674,0.46700000762939453,-2.582338649957655
742.5,,0.0,742.144,0.46399998664855957,-2.5888077133144853
742.965517,,0.0,742.609,0.4390000104904175,-2.6432159811294555
743.431034,,0.0,743.072,0.45500001311302185,-2.608311127759724
743.896552,,0.0,743.538,0.4729999899864197,-2.569061393693779
744.362069,,0.0,744.004,0.4300000071525574,-2.6627223672880977
744.827586,,0.0,744.469,0.45399999618530273,-2.610428516358007
745.293103,,0.0,744.934,0.4620000123977661,-2.593007500972498
745.7586210000001,,0.0,745.399,0.4519999921321869,-2.6148158830180455
746.2241379999999,,0.0,745.859,0.46299999952316284,-2.5908854988879737
746.6896549999999,,0.0,746.324,0.4390000104904175,-2.643219876139372
747.155172,,0.0,746.792,0.4519999921321869,-2.614955320562916
747.62069,,0.0,747.254,0.48100000619888306,-2.551840941735489
748.086207,,0.0,747.722,0.4560000002384186,-2.606379379427444
748.551724,,0.0,748.184,0.46000000834465027,-2.597740790966775
749.017241,,0.0,748.652,0.44699999690055847,-2.626141387608345
749.4827590000001,,0.0,749.115,0.4490000009536743,-2.621862350794713
749.9482760000001,,0.0,749.581,0.45399999618530273,-2.611045253235104
750.4137929999999,,0.0,750.047,0.45899999141693115,-2.600223420166302
750.8793099999999,,0.0,750.513,0.460999995470047,-2.595930324170491
751.344828,,0.0,750.977,0.4569999873638153,-2.60469995722984
751.810345,,0.0,751.443,0.453000009059906,-2.6134589037589873
752.275862,,0.0,751.908,0.45100000500679016,-2.617848961019623
752.741379,,0.0,752.374,0.45100000500679016,-2.6178692768845515
753.206897,,0.0,752.834,0.45500001311302185,-2.6091619378057427
753.672414,,0.0,753.3,0.4580000042915344,-2.602619855919399
754.1379310000001,,0.0,753.77,0.46000000834465027,-2.598242961487565
754.603448,,0.0,754.233,0.45899999141693115,-2.6003891423130203
755.0689659999999,,0.0,754.696,0.4860000014305115,-2.5415206870764466
755.534483,,0.0,755.166,0.4519999921321869,-2.6155385414000385
756.0,,0.0,755.625,0.4740000069141388,-2.5675427923225813
756.465517,,0.0,756.096,0.4440000057220459,-2.6328300985325788
756.931034,,0.0,756.554,0.45899999141693115,-2.6000741913112724
757.396552,,0.0,757.019,0.4650000035762787,-2.586924321523779
757.862069,,0.0,757.484,0.44999998807907104,-2.619526601685424
758.3275860000001,,0.0,757.951,0.43299999833106995,-2.6564897472717215
758.793103,,0.0,758.417,0.4569999873638153,-2.6041346666794665
759.258621,,0.0,758.885,0.44699999690055847,-2.625861584271548
759.724138,,0.0,759.35,0.47200000286102295,-2.5713449492309297
760.189655,,0.0,759.811,0.45899999141693115,-2.599627121078788
760.655172,,0.0,760.281,0.4519999921321869,-2.614848750285491
761.1206900000001,,0.0,760.744,0.45500001311302185,-2.6082964549900187
761.5862070000001,,0.0,761.207,0.46799999475479126,-2.5799705314395798
762.051724,,0.0,761.67,0.4399999976158142,-2.6409819401686647
762.517241,,0.0,762.14,0.45500001311302185,-2.608324300276776
762.982759,,0.0,762.599,0.45500001311302185,-2.6083585032157783
763.448276,,0.0,763.07,0.4519999921321869,-2.6149393851532277
763.9137929999999,,0.0,763.535,0.46299999952316284,-2.591028226960996
764.37931,,0.0,763.994,0.45500001311302185,-2.6085185495590126
764.844828,,0.0,764.46,0.4560000002384186,-2.6064063759775014
765.310345,,0.0,764.929,0.4519999921321869,-2.615190830061651
765.7758620000001,,0.0,765.395,0.45899999141693115,-2.6000113484502276
766.241379,,0.0,765.859,0.43799999356269836,-2.6458332778195452
766.706897,,0.0,766.325,0.46399998664855957,-2.589255966661058
767.172414,,0.0,766.785,0.45100000500679016,-2.617640778198563
767.637931,,0.0,767.255,0.45500001311302185,-2.6089814721087
768.103448,,0.0,767.718,0.44699999690055847,-2.6264574998945007
768.568966,,0.0,768.181,0.4569999873638153,-2.604707975501714
769.034483,,0.0,768.649,0.453000009059906,-2.613448402095144
769.5,,0.0,769.11,0.45100000500679016,-2.6178197950895545
769.9655170000001,,0.0,769.576,0.46399998664855957,-2.5894992440471323
770.4310340000001,,0.0,770.041,0.4480000138282776,-2.6243470664745554
770.8965519999999,,0.0,770.506,0.453000009059906,-2.6134316491776963
771.362069,,0.0,770.974,0.4699999988079071,-2.576361347938444
771.827586,,0.0,771.439,0.45100000500679016,-2.617712023286862
772.293103,,0.0,771.899,0.44999998807907104,-2.6198385585586488
772.7586210000001,,0.0,772.365,0.45399999618530273,-2.611065306926808
773.224138,,0.0,772.837,0.4620000123977661,-2.593572556564711
773.689655,,0.0,773.295,0.4569999873638153,-2.6043991916298617
774.155172,,0.0,773.759,0.46000000834465027,-2.5977954792740126
774.62069,,0.0,774.229,0.4620000123977661,-2.5933714788962177
775.086207,,0.0,774.689,0.46299999952316284,-2.591129137822646
775.551724,,0.0,775.159,0.45100000500679016,-2.6172143203856617
776.017241,,0.0,775.625,0.46000000834465027,-2.5975550922422825
776.482759,,0.0,776.088,0.46299999952316284,-2.590976430420758
776.9482760000001,,0.0,776.554,0.4569999873638153,-2.604015409648834
777.413793,,0.0,777.019,0.4490000009536743,-2.6214227431883086
777.87931,,0.0,777.484,0.4650000035762787,-2.5865543874205756
778.344828,,0.0,777.944,0.47600001096725464,-2.5625907426765018
778.810345,,0.0,778.41,0.45100000500679016,-2.6170696396662927
779.275862,,0.0,778.874,0.45500001311302185,-2.6083790450734607
779.7413789999999,,0.0,779.339,0.45500001311302185,-2.608413964650879
780.206897,,0.0,779.807,0.4560000002384186,-2.606279932428485
780.672414,,0.0,780.269,0.44699999690055847,-2.6259407246439475
781.137931,,0.0,780.737,0.4560000002384186,-2.6063925996614876
781.6034480000001,,0.0,781.199,0.47600001096725464,-2.562883616707122
782.0689659999999,,0.0,781.67,0.45100000500679016,-2.6174156661224592
782.5344829999999,,0.0,782.132,0.45500001311302185,-2.608767015532972
783.0,,0.0,782.598,0.4519999921321869,-2.6153674008835983
783.465517,,0.0,783.062,0.47600001096725464,-2.563140131454344
783.931034,,0.0,783.527,0.46000000834465027,-2.5980523803632223
784.396552,,0.0,783.992,0.45100000500679016,-2.6177062182889084
784.862069,,0.0,784.458,0.4569999873638153,-2.6046715811261945
785.327586,,0.0,784.923,0.45399999618530273,-2.61123481692037
785.7931030000001,,0.0,785.388,0.4569999873638153,-2.604715394569752
786.258621,,0.0,785.855,0.47600001096725464,-2.5633258107130557
786.7241379999999,,0.0,786.314,0.4650000035762787,-2.5872833981315186
787.189655,,0.0,786.781,0.39899998903274536,-2.731055928394927
787.655172,,0.0,787.25,0.460999995470047,-2.595952672730005
788.12069,,0.0,787.711,0.45399999618530273,-2.6111674837857475
788.5862070000001,,0.0,788.181,0.47699999809265137,-2.5610138382043166
789.051724,,0.0,788.644,0.46000000834465027,-2.5979981391290425
789.517241,,0.0,789.107,0.453000009059906,-2.6131899563624135
789.982759,,0.0,789.573,0.46299999952316284,-2.591340997772764
790.448276,,0.0,790.037,0.46399998664855957,-2.589097846507395
790.9137929999999,,0.0,790.503,0.46299999952316284,-2.5912117414905818
791.3793099999999,,0.0,790.97,0.4779999852180481,-2.5584689232739115
791.844828,,0.0,791.436,0.4819999933242798,-2.549694240876448
792.310345,,0.0,791.9,0.4690000116825104,-2.5779614148452623
792.7758620000001,,0.0,792.359,0.4790000021457672,-2.55612665600327
793.241379,,0.0,792.834,0.46000000834465027,-2.597481538655134
793.7068969999999,,0.0,793.292,0.42500001192092896,-2.6737062625860717
794.172414,,0.0,793.755,0.453000009059906,-2.612689726638837
794.637931,,0.0,794.226,0.45100000500679016,-2.6170464976516903
795.103448,,0.0,794.689,0.453000009059906,-2.6127020615295584
795.568966,,0.0,795.151,0.44699999690055847,-2.625799939424196
796.034483,,0.0,795.617,0.45100000500679016,-2.617123625692347
796.5,,0.0,796.08,0.4560000002384186,-2.606279619873349
796.965517,,0.0,796.545,0.46399998664855957,-2.5889085364728235
797.4310340000001,,0.0,797.011,0.46700000762939453,-2.582437057774892
797.8965519999999,,0.0,797.476,0.4390000104904175,-2.6435082620608905
798.3620689999999,,0.0,797.941,0.45100000500679016,-2.6174364676332837
798.827586,,0.0,798.407,0.45100000500679016,-2.6175090301748756
799.293103,,0.0,798.874,0.44999998807907104,-2.6197581603582734
799.758621,,0.0,799.339,0.45100000500679016,-2.6176453817216965
800.224138,,0.0,799.8,0.45899999141693115,-2.600275120536772
800.689655,,0.0,800.269,0.46000000834465027,-2.598145923674758
801.155172,,0.0,800.729,0.46000000834465027,-2.598184057188139
801.62069,,0.0,801.199,0.4569999873638153,-2.604745501193365
802.086207,,0.0,801.659,0.4410000145435333,-2.6396160795865256
802.5517239999999,,0.0,802.129,0.49000000953674316,-2.532860582238119
803.017241,,0.0,802.595,0.4650000035762787,-2.5873101173243853
803.482759,,0.0,803.061,0.4699999988079071,-2.5763856253320454
803.948276,,0.0,803.519,0.5270000100135803,-2.452157081106496
804.413793,,0.0,803.985,0.45899999141693115,-2.6002461663878615
804.87931,,0.0,804.45,0.46399998664855957,-2.589283780764998
805.344828,,0.0,804.918,0.46700000762939453,-2.582672165187899
805.810345,,0.0,805.384,0.4519999921321869,-2.6152726968258118
806.275862,,0.0,805.848,0.46000000834465027,-2.597763868342666
806.7413789999999,,0.0,806.314,0.4259999990463257,-2.6717615269049477
807.206897,,0.0,806.777,0.43700000643730164,-2.6477267772082698
807.672414,,0.0,807.24,0.4569999873638153,-2.604093409630116
808.137931,,0.0,807.711,0.4560000002384186,-2.6062219439647
808.603448,,0.0,808.174,0.4429999887943268,-2.6345062827228456
809.068966,,0.0,808.637,0.4569999873638153,-2.6039805513163876
809.534483,,0.0,809.099,0.4429999887943268,-2.6344712373473156
810.0,,0.0,809.565,0.46399998664855957,-2.58872358580385
810.465517,,0.0,810.03,0.4519999921321869,-2.614885168040819
810.931034,,0.0,810.496,0.47099998593330383,-2.573521435193495
811.396552,,0.0,810.962,0.46399998664855957,-2.5888138173059647
811.862069,,0.0,811.428,0.43700000643730164,-2.6476892459385537
812.327586,,0.0,811.895,0.45500001311302185,-2.608534491791745
812.793103,,0.0,812.354,0.4519999921321869,-2.615138098320139
813.2586210000001,,0.0,812.822,0.46000000834465027,-2.5977803103257124
813.724138,,0.0,813.285,0.4560000002384186,-2.606567432088501
814.1896549999999,,0.0,813.755,0.46000000834465027,-2.597923694830029
814.655172,,0.0,814.217,0.4429999887943268,-2.6350277135672813
815.12069,,0.0,814.685,0.5009999871253967,-2.5087261347764107
815.586207,,0.0,815.147,0.4429999887943268,-2.6351380864831597
816.051724,,0.0,815.613,0.44999998807907104,-2.619927259913859
816.517241,,0.0,816.075,0.46700000762939453,-2.5829184430710312
816.982759,,0.0,816.541,0.5120000243186951,-2.4848934247715757
817.4482760000001,,0.0,817.01,0.4569999873638153,-2.604718009983428
817.913793,,0.0,817.476,0.45500001311302185,-2.609060028630977
818.3793099999999,,0.0,817.94,0.453000009059906,-2.6133899173040747
818.844828,,0.0,818.406,0.46399998664855957,-2.5893862289348513
819.310345,,0.0,818.87,0.4650000035762787,-2.587158876171166
819.775862,,0.0,819.329,0.4230000078678131,-2.6786057897741227
820.241379,,0.0,819.797,0.46399998664855957,-2.5892200826146374
820.706897,,0.0,820.259,0.45100000500679016,-2.6174782903813765
821.172414,,0.0,820.729,0.46399998664855957,-2.589090434444633
821.6379310000001,,0.0,821.191,0.47600001096725464,-2.5628817525632734
822.1034480000001,,0.0,821.659,0.46299999952316284,-2.5911418747791006
822.5689659999999,,0.0,822.121,0.46000000834465027,-2.5976205208666916
823.034483,,0.0,822.587,0.47699999809265137,-2.5605333943917272
823.5,,0.0,823.051,0.4490000009536743,-2.6214943918741724
823.965517,,0.0,823.517,0.4650000035762787,-2.5866056991724617
824.431034,,0.0,823.982,0.4659999907016754,-2.5844086792861893
824.896552,,0.0,824.448,0.46799999475479126,-2.5800451923675816
825.362069,,0.0,824.915,0.4699999988079071,-2.575694056744822
825.827586,,0.0,825.38,0.4569999873638153,-2.6040350069266687
826.293103,,0.0,825.845,0.453000009059906,-2.6127802743943707
826.758621,,0.0,826.311,0.46700000762939453,-2.582321219267149
827.224138,,0.0,826.773,0.46799999475479126,-2.580194007057821
827.689655,,0.0,827.236,0.46299999952316284,-2.591146014970752
828.155172,,0.0,827.704,0.4650000035762787,-2.5868528985584223
828.6206900000001,,0.0,828.166,0.45500001311302185,-2.6087069088261785
829.0862070000001,,0.0,828.637,0.45500001311302185,-2.6087757201474493
829.551724,,0.0,829.099,0.4749999940395355,-2.5652701929037494
830.017241,,0.0,829.565,0.46000000834465027,-2.598013001205742
830.482759,,0.0,830.025,0.4519999921321869,-2.6154990418437416
830.948276,,0.0,830.491,0.46000000834465027,-2.5981186586506295
831.4137929999999,,0.0,830.955,0.4050000011920929,-2.717984289063568
831.87931,,0.0,831.421,0.46299999952316284,-2.591652842972268
832.344828,,0.0,831.888,0.45399999618530273,-2.6112789250657844
832.810345,,0.0,832.354,0.46299999952316284,-2.5916755028097604
833.2758620000001,,0.0,832.814,0.4819999933242798,-2.550270851403166
833.741379,,0.0,833.284,0.45899999141693115,-2.6003543596950935
834.2068969999999,,0.0,833.744,0.46700000762939453,-2.5828856322404463
834.672414,,0.0,834.214,0.4690000116825104,-2.5784760544328016
835.137931,,0.0,834.677,0.4659999907016754,-2.584948528938106
835.603448,,0.0,835.14,0.43299999833106995,-2.656771994145659
836.068966,,0.0,835.606,0.3799999952316284,-2.772164781711231
836.534483,,0.0,836.069,0.44999998807907104,-2.619583892818422
837.0,,0.0,836.535,0.44699999690055847,-2.626045479797027
837.4655170000001,,0.0,836.999,0.4699999988079071,-2.5758641615682785
837.9310340000001,,0.0,837.465,0.46399998664855957,-2.588867409868566
838.3965519999999,,0.0,837.93,0.4569999873638153,-2.604055284032553
838.862069,,0.0,838.395,0.4620000123977661,-2.5931078270996553
839.327586,,0.0,838.862,0.45899999141693115,-2.5996001678009675
839.793103,,0.0,839.328,0.4659999907016754,-2.584318045537979
840.2586210000001,,0.0,839.789,0.4659999907016754,-2.584299652769279
840.724138,,0.0,840.259,0.44699999690055847,-2.62568990740875
841.189655,,0.0,840.722,0.45500001311302185,-2.6082719556181098
841.655172,,0.0,841.185,0.43799999356269836,-2.6453359765260522
842.12069,,0.0,841.655,0.4620000123977661,-2.593090398246146
842.586207,,0.0,842.118,0.45899999141693115,-2.5996818842104554
843.0517239999999,,0.0,842.583,0.45100000500679016,-2.617178196381527
843.517241,,0.0,843.048,0.46299999952316284,-2.5911113293573105
843.982759,,0.0,843.514,0.4569999873638153,-2.604267356181141
844.4482760000001,,0.0,843.974,0.46700000762939453,-2.582569269188734
844.913793,,0.0,844.44,0.4490000009536743,-2.621874994852852
845.37931,,0.0,844.908,0.46399998664855957,-2.5892841534800315
845.844828,,0.0,845.373,0.4620000123977661,-2.5937259650713624
846.310345,,0.0,845.837,0.46399998664855957,-2.589445897641815
846.775862,,0.0,846.302,0.453000009059906,-2.6134782906138123
847.2413789999999,,0.0,846.77,0.45100000500679016,-2.617891071529836
847.706897,,0.0,847.233,0.46299999952316284,-2.5917889763323223
848.172414,,0.0,847.696,0.4560000002384186,-2.607065525243941
848.637931,,0.0,848.159,0.46299999952316284,-2.5918240959630827
849.1034480000001,,0.0,848.624,0.46700000762939453,-2.5831009147567587
849.5689659999999,,0.0,849.095,0.4620000123977661,-2.593967711068169
850.0344829999999,,0.0,849.554,0.47999998927116394,-2.5547081302718353
850.5,,0.0,850.026,0.43799999356269836,-2.6461513344192156
850.965517,,0.0,850.484,0.45899999141693115,-2.600326126101152
851.431034,,0.0,850.956,0.45100000500679016,-2.617670535463582
851.896552,,0.0,851.414,0.46000000834465027,-2.597969071214586
852.362069,,0.0,851.881,0.4869999885559082,-2.5390453166559652
852.827586,,0.0,852.347,0.453000009059906,-2.6130150462188304
853.2931030000001,,0.0,852.815,0.3569999933242798,-2.822062996019318
853.758621,,0.0,853.277,0.47200000286102295,-2.5714231633334212
854.2241379999999,,0.0,853.745,0.4659999907016754,-2.5844078194388795
854.689655,,0.0,854.208,0.4569999873638153,-2.6039372997126016
855.155172,,0.0,854.67,0.4560000002384186,-2.606049452876186
855.62069,,0.0,855.14,0.4580000042915344,-2.6016399533595758
856.0862070000001,,0.0,855.599,0.45500001311302185,-2.608139753880498
856.551724,,0.0,856.07,0.46000000834465027,-2.597227746063226
