Trial: ,16
Threshold: ,0.0
Maximum EMG: ,0.036366065929058916
Success: ,True

EMG Time,Raw EMG,Filtered EMG,Force Time,Raw Force (V),Filtered Force (N)
0.0,samples,7.688057612940732e-11,0.467,0.5699999928474426,-2.3566168497650435
0.46551699999999996,time,7.925414139981885e-11,0.934,0.5460000038146973,-2.4092185087173124
0.9310339999999999,value,8.144773865643641e-11,1.401,0.5540000200271606,-2.3921452276503086
1.396552,,8.344577712531002e-11,1.86,0.5720000267028809,-2.3533161292205795
1.862069,,8.52326897126812e-11,2.326,0.5429999828338623,-2.4169019742934563
2.327586,,8.679298951170273e-11,2.793,0.5460000038146973,-2.410777199630309
2.793103,,8.811132846374614e-11,3.256,0.5839999914169312,-2.3283927797464483
3.258621,,8.91725580582682e-11,3.726,0.550000011920929,-2.4028503154115883
3.724138,,8.996179194293145e-11,4.189,0.5669999718666077,-2.366164101028972
4.189654999999999,,9.046447030332374e-11,4.653,0.5419999957084656,-2.420937382461322
4.655172,,9.066642585923998e-11,5.115,0.5709999799728394,-2.358010108015963
5.12069,,9.055395131211855e-11,5.58,0.5540000200271606,-2.395238294929059
5.586207,,9.011386806590927e-11,6.051,0.5540000200271606,-2.3953608621215405
6.051723999999999,,8.933359603143493e-11,6.51,0.5669999718666077,-2.3670881487572455
6.517241,,8.820122431224425e-11,6.982,0.5669999718666077,-2.367062268462129
6.982759,,8.670558255808817e-11,7.44,0.5669999718666077,-2.366960959889224
7.448276,,8.483631276053544e-11,7.905,0.5460000038146973,-2.412538903122077
7.913793000000001,,8.258394125392926e-11,8.371,0.5540000200271606,-2.3948694105680874
8.379309999999998,,7.993995067392858e-11,8.838,0.5669999718666077,-2.366247185340711
8.844828000000001,,7.689685161532837e-11,9.304,0.5130000114440918,-2.4835441025163947
9.310345,,7.34482537207696e-11,9.771,0.5410000085830688,-2.422153672833939
9.775862,,6.958893592238712e-11,10.234,0.5889999866485596,-2.3171631022441237
10.241379,,6.531491554945838e-11,10.697,0.5419999957084656,-2.4191283571696083
10.706897,,6.06235160067657e-11,11.167,0.5730000138282776,-2.3511568991719582
11.172414,,5.55134327207266e-11,11.627,0.5630000233650208,-2.3725215523475796
11.637931,,4.998479704343655e-11,12.097,0.5699999928474426,-2.35687375922442
12.103447999999998,,4.403923779866583e-11,12.555,0.550000011920929,-2.4000868981500316
12.568966000000001,,3.767994014861052e-11,13.02,0.546999990940094,-2.4063128978955644
13.034483,,3.091170145587528e-11,13.486,0.5659999847412109,-2.3646686562418164
13.5,,2.374098381181685e-11,13.952,0.5770000219345093,-2.340521029844227
13.965517,,1.6175962900055568e-11,14.417,0.5669999718666077,-2.362198410240471
14.431034,,8.226572862721061e-12,14.883,0.531000018119812,-2.4405984967026466
14.896552,,9.54531631119521e-14,15.348,0.5339999794960022,-2.4341125449559895
15.362069,,8.776547170271077e-12,15.812,0.5640000104904175,-2.368883013917515
15.827586000000002,,1.7801275396792283e-11,16.282,0.5669999718666077,-2.3625524700355025
16.293103,,2.715231275728919e-11,16.745,0.5899999737739563,-2.3127170957068888
16.758621,,3.6810422911104843e-11,17.207,0.5419999957084656,-2.417625875710934
17.224138,,4.6754444281725916e-11,17.675,0.5540000200271606,-2.391866897111644
17.689655,,5.6961282334309297e-11,18.138,0.5709999799728394,-2.3552544206465456
18.155172,,6.740590840911835e-11,18.604,0.5490000247955322,-2.4036351807555647
18.62069,,7.80613653981604e-11,19.066,0.5540000200271606,-2.3932050640263003
19.086207,,8.889878054033409e-11,19.533,0.5759999752044678,-2.345735888703153
19.551724,,9.988738559691391e-11,19.998,0.5540000200271606,-2.3941099680721725
20.017241000000002,,1.1099454465420132e-10,20.464,0.5540000200271606,-2.3945231003624334
20.482758999999998,,1.2218578978364758e-10,20.93,0.5669999718666077,-2.3665701166974595
20.948276,,1.334248647716943e-10,21.396,0.5659999847412109,-2.3690619331854226
21.413793000000002,,1.4467377711198186e-10,21.856,0.5450000166893005,-2.415060502788776
21.87931,,1.558928584314477e-10,22.321,0.5540000200271606,-2.395625890678459
22.344828,,1.6704083349918342e-10,22.79,0.5669999718666077,-2.3673968716233342
22.810344999999998,,1.7807489794275937e-10,23.252,0.5669999718666077,-2.367406100519624
23.275862,,1.8895080477107494e-10,23.715,0.5630000233650208,-2.3760446706166314
23.741379,,1.9962295977568473e-10,24.186,0.5440000295639038,-2.4172802293305833
24.206897,,2.1004452585401133e-10,24.649,0.5690000057220459,-2.3625771577863834
24.672414,,2.201675362679326e-10,25.111,0.5709999799728394,-2.3579111518102542
25.137931,,2.2994301681996544e-10,25.577,0.5460000038146973,-2.4120058051582913
25.603448,,2.3932111689671714e-10,26.041,0.5649999976158142,-2.370188961864687
26.068966,,2.4825124929549687e-10,26.507,0.5630000233650208,-2.374085378363718
26.534483,,2.5668223871504253e-10,26.971,0.5440000295639038,-2.414994830326529
27.0,,2.6456247875529594e-10,27.436,0.5519999861717224,-2.3970724481060444
27.465517,,2.7184009723413617e-10,27.901,0.597000002861023,-2.298546098937845
27.931034,,2.7846312959103955e-10,28.366,0.574999988079071,-2.3460093834740743
28.396552,,2.8437970010887906e-10,28.831,0.5540000200271606,-2.3913291763942537
28.862069,,2.8953821064560056e-10,29.297,0.5929999947547913,-2.3059797164607643
29.327586,,2.938875365274344e-10,29.76,0.5410000085830688,-2.4189491459198864
29.793103000000002,,2.9737722921473214e-10,30.23,0.5389999747276306,-2.4230599343110217
30.258620999999998,,2.9995772531058395e-10,30.69,0.5690000057220459,-2.3575363211482774
30.724138,,3.015805614411973e-10,31.16,0.5540000200271606,-2.390139419685698
31.189655000000002,,3.021985944957534e-10,31.63,0.5419999957084656,-2.4162973673400128
31.655172000000004,,3.0176622667222555e-10,32.085,0.546999990940094,-2.405509767138209
32.12069,,3.002396347346153e-10,32.551,0.546999990940094,-2.405704249397691
32.586207,,2.975770028463686e-10,33.016,0.5410000085830688,-2.4190538890686235
33.051724,,2.937387583045585e-10,33.482,0.5630000233650208,-2.3714762199994603
33.517241000000006,,2.886878094599104e-10,33.949,0.5199999809265137,-2.4655751530490537
33.982759,,2.8238978506907896e-10,34.415,0.5669999718666077,-2.3636473838209224
34.448276,,2.7481327428793787e-10,34.875,0.5649999976158142,-2.3685097079937827
34.913793,,2.659300664781834e-10,35.341,0.5630000233650208,-2.3733918591217114
35.37931,,2.557153899644744e-10,35.808,0.5440000295639038,-2.415314922347026
35.844828,,2.441481488458099e-10,36.27,0.5809999704360962,-2.335220990062144
36.310345,,2.3121115693307146e-10,36.741,0.5690000057220459,-2.3618507264239517
36.775862,,2.168913678548202e-10,37.204,0.5820000171661377,-2.333968384082332
37.241378999999995,,2.0118010034572288e-10,37.667,0.5180000066757202,-2.473783037361317
37.706897000000005,,1.8407325770658784e-10,38.13,0.5730000138282776,-2.354268184821578
38.172414,,1.6557154040209887e-10,38.595,0.5419999957084656,-2.422036569446696
38.637931,,1.456806507421442e-10,39.065,0.574999988079071,-2.350282545014877
39.103448,,1.2441148857532657e-10,39.531,0.5669999718666077,-2.3677588734687993
39.568965999999996,,1.0178033690900445e-10,39.997,0.546999990940094,-2.4112826940487277
40.034483,,7.780903635923118e-11,40.455,0.550000011920929,-2.404603229330931
40.5,,5.252514732640993e-11,40.922,0.5490000247955322,-2.4065483033080124
40.965517,,2.5962098788543807e-11,41.388,0.5460000038146973,-2.4127675358993326
41.431034,,1.8406773961999354e-12,41.852,0.5669999718666077,-2.3666251919869152
41.896552,,3.083762778210844e-11,42.318,0.5669999718666077,-2.3661714878446825
42.362069000000005,,6.097697532033823e-11,42.782,0.550000011920929,-2.402705608158101
42.827586000000004,,9.220063511960754e-11,43.245,0.5659999847412109,-2.3673111677733893
43.293103,,1.2444414905112516e-10,43.715,0.5270000100135803,-2.4517261288970826
43.758621,,1.5763664024467287e-10,44.178,0.5690000057220459,-2.3596719811496074
44.224138,,1.917007884970769e-10,44.641,0.5540000200271606,-2.391818921286671
44.689655,,2.2655282758387256e-10,45.111,0.5830000042915344,-2.3281395098800153
45.155172,,2.621025654296902e-10,45.57,0.5440000295639038,-2.412658068405919
45.620689999999996,,2.9825342805268413e-10,46.042,0.5540000200271606,-2.390487911544558
46.086206999999995,,3.3490252815312236e-10,46.5,0.550000011920929,-2.398896716926392
46.551724,,3.7194075916599487e-10,46.967,0.5669999718666077,-2.36164152096859
47.017241,,4.0925291554215037e-10,47.433,0.5419999957084656,-2.415984273901243
47.482759,,4.4671783996200307e-10,47.898,0.5669999718666077,-2.361494057809789
47.948276,,4.842085981202659e-10,48.363,0.5410000085830688,-2.4182155535418377
48.413793,,5.215926816494698e-10,48.83,0.5419999957084656,-2.416213015782689
48.879310000000004,,5.587322396742575e-10,49.296,0.546999990940094,-2.4055906317275513
49.344828,,5.95484339407643e-10,49.757,0.550000011920929,-2.3994119968087637
49.810345,,6.317012561146773e-10,50.226,0.5419999957084656,-2.4172742596821637
50.275862,,6.672307926783403e-10,50.686,0.5669999718666077,-2.3633033428695525
50.741379,,7.01916628907119e-10,51.156,0.5630000233650208,-2.3725593568367067
51.206897,,7.355987006237401e-10,51.615,0.5830000042915344,-2.329556749591984
51.672414,,7.681136084700958e-10,52.085,0.5619999766349792,-2.375889580022045
52.137931,,7.992950562546734e-10,52.551,0.5669999718666077,-2.3655704818457353
52.603448,,8.289743185560075e-10,53.015,0.5699999928474426,-2.359583816579077
53.068966,,8.569807371790226e-10,53.481,0.5429999828338623,-2.418914932283959
53.534483,,8.831422459408908e-10,53.946,0.5630000233650208,-2.3757922156789357
54.0,,9.072859231394564e-10,54.411,0.5529999732971191,-2.3979575869986514
54.465517,,9.292385709306652e-10,54.871,0.574999988079071,-2.350321879645472
54.931034,,9.488273207121287e-10,55.336,0.5669999718666077,-2.3679514776689268
55.396552,,9.658802634782605e-10,55.804,0.5630000233650208,-2.3767653749521345
55.862069,,9.80227103978748e-10,56.266,0.5379999876022339,-2.4312273611192023
56.327586,,9.916998373768203e-10,56.734,0.5490000247955322,-2.407154552207309
56.793102999999995,,1.0001334469672906e-09,57.197,0.5669999718666077,-2.367730710212567
57.258621000000005,,1.0053666213770957e-09,57.66,0.5820000171661377,-2.3347467514072706
57.724138,,1.0072424895335e-09,58.13,0.5419999957084656,-2.421501667779704
58.189655,,1.005609371547737e-09,58.596,0.5600000023841858,-2.38182055974748
58.655172,,1.0003215435251538e-09,59.058,0.5519999861717224,-2.3987244574516486
59.120689999999996,,9.912400141773829e-10,59.524,0.5410000085830688,-2.4221205420420677
59.586207,,9.78233310978247e-10,59.99,0.5889999866485596,-2.3169499044336987
60.051724,,9.611782734735702e-10,60.455,0.5809999704360962,-2.3337740625333696
60.517241,,9.399608512263416e-10,60.92,0.5709999799728394,-2.3549643257962884
60.982758999999994,,9.144769037534032e-10,61.385,0.5419999957084656,-2.417577520811124
61.448276,,8.846329996885404e-10,61.85,0.5540000200271606,-2.390913628866454
61.913793,,8.503472122902029e-10,62.316,0.5540000200271606,-2.390457706216954
62.379310000000004,,8.115499083006528e-10,62.779,0.5730000138282776,-2.348685548862938
62.84482800000001,,7.6818452705776e-10,63.241,0.5419999957084656,-2.415936006768222
63.310345000000005,,7.202083466615809e-10,63.711,0.5669999718666077,-2.361282001512965
63.775862000000004,,6.675932339058867e-10,64.174,0.5379999876022339,-2.4243813762918536
64.241379,,6.103263746005932e-10,64.635,0.5669999718666077,-2.3612286823799677
64.706897,,5.484109808352174e-10,65.105,0.35199999809265137,-2.8297789163340656
65.172414,,4.818669716666796e-10,65.571,0.6039999723434448,-2.281011438908791
65.637931,,4.107316236576148e-10,66.03,0.5669999718666077,-2.3619725039222694
66.103448,,3.3506018764446977e-10,66.496,0.5230000019073486,-2.4582696469022656
66.56896599999999,,2.5492646807865363e-10,66.961,0.5889999866485596,-2.314988625246238
67.03448300000001,,1.7042336125948484e-10,67.426,0.5820000171661377,-2.3308046696447855
67.5,,8.166334876520687e-11,67.893,0.5669999718666077,-2.3640875451776107
67.965517,,1.1221057611494907e-11,68.359,0.5540000200271606,-2.39303256478767
68.431034,,1.0807692310371194e-10,68.824,0.5540000200271606,-2.393656278936815
68.896552,,2.087305530394803e-10,69.29,0.5649999976158142,-2.370296519225049
69.362069,,3.1298721535189915e-10,69.753,0.5329999923706055,-2.4405815326547775
69.827586,,4.206309260863355e-10,70.215,0.5820000171661377,-2.334341062931482
70.293103,,5.314243013899001e-10,70.683,0.5680000185966492,-2.3652836165619155
70.75862099999999,,6.451084793819417e-10,71.145,0.5699999928474426,-2.3612815849098796
71.22413800000001,,7.614031152020192e-10,71.61,0.5440000295639038,-2.4181848071972296
71.689655,,8.800064524133606e-10,72.08,0.5690000057220459,-2.363872531618228
72.15517200000001,,1.0005954738049218e-09,72.546,0.5440000295639038,-2.4183831555671444
72.62069,,1.1228261344835893e-09,73.007,0.5490000247955322,-2.407423716480495
73.086207,,1.246333679979662e-09,73.473,0.5669999718666077,-2.368033102357007
73.551724,,1.370733051903337e-09,73.937,0.5809999704360962,-2.3372523504584275
74.017241,,1.4956193834874832e-09,74.403,0.5419999957084656,-2.421843724160776
74.482759,,1.6205685871324635e-09,74.868,0.5789999961853027,-2.3407736474533585
74.94827599999999,,1.745138035832237e-09,75.334,0.5540000200271606,-2.394709630723508
75.41379300000001,,1.8688673401075187e-09,75.797,0.5659999847412109,-2.3679820248571355
75.87931,,1.991279221801573e-09,76.266,0.5669999718666077,-2.36518395320347
76.344828,,2.11188048580754e-09,76.73,0.5450000166893005,-2.412478564298009
76.810345,,2.230163090493294e-09,77.193,0.5720000267028809,-2.3530234372919416
77.275862,,2.3456053172711564e-09,77.656,0.5659999847412109,-2.3654870899782483
77.741379,,2.45767303942572e-09,78.126,0.5419999957084656,-2.417208768185749
78.206897,,2.565821089964173e-09,78.585,0.5630000233650208,-2.3709520211064956
78.67241399999999,,2.6694947278903787e-09,79.051,0.5419999957084656,-2.4162754199367296
79.137931,,2.768131201927326e-09,79.517,0.5640000104904175,-2.3680070387314025
79.603448,,2.86116141032311e-09,79.985,0.546999990940094,-2.4048068542353036
80.068966,,2.9480116549742024e-09,80.451,0.5440000295639038,-2.4112140816819263
80.53448300000001,,3.0281054876873223e-09,80.916,0.5630000233650208,-2.3698039790541565
81.0,,3.1008656459787286e-09,81.381,0.5680000185966492,-2.359007693377315
81.465517,,3.165716075378291e-09,81.846,0.5640000104904175,-2.3679286342722876
81.931034,,3.222084034766399e-09,82.311,0.5540000200271606,-2.3900247671684802
82.396552,,3.2694022808258833e-09,82.775,0.574999988079071,-2.3446767528289945
82.86206899999999,,3.3071113272399424e-09,83.237,0.5669999718666077,-2.3625905403656393
83.327586,,3.3346617738119746e-09,83.705,0.5649999976158142,-2.36749833955582
83.79310299999999,,3.3515167002256518e-09,84.167,0.5509999990463257,-2.398599455539222
84.258621,,3.3571541187050805e-09,84.634,0.5329999923706055,-2.438446982499384
84.72413800000001,,3.3510694793770634e-09,85.097,0.5659999847412109,-2.367195900314519
85.189655,,3.3327782216819598e-09,85.562,0.5809999704360962,-2.3351517776875257
85.65517200000001,,3.301818364728168e-09,86.027,0.5630000233650208,-2.374973529503228
86.12069,,3.25775312903961e-09,86.492,0.5540000200271606,-2.3951398042768486
86.586207,,3.200173581707602e-09,86.957,0.550000011920929,-2.4043483874500504
87.051724,,3.128701296530069e-09,87.422,0.550000011920929,-2.404762737429018
87.517241,,3.0429910203041506e-09,87.89,0.5270000100135803,-2.4551938592814566
87.98275899999999,,2.942733336034773e-09,88.356,0.5379999876022339,-2.431449199544645
88.448276,,2.8276573134338264e-09,88.824,0.5419999957084656,-2.4228460642277474
88.913793,,2.697533136714187e-09,89.282,0.5540000200271606,-2.3967003508506894
89.37931,,2.5521746993320497e-09,89.745,0.5630000233650208,-2.376976268262956
89.844828,,2.3914421550020046e-09,90.215,0.5419999957084656,-2.422500433033268
90.310345,,2.2152444140040917e-09,90.675,0.5419999957084656,-2.4221689331937704
90.775862,,2.0235415735228204e-09,91.144,0.5490000247955322,-2.406493071117966
91.241379,,1.8163472705069704e-09,91.61,0.5630000233650208,-2.3754853388209263
91.706897,,1.5937309453180003e-09,92.073,0.5960000157356262,-2.3030160801204542
92.17241399999999,,1.3558200042461778e-09,92.538,0.550000011920929,-2.4026098980327686
92.63793100000001,,1.1028018688191573e-09,93.004,0.5669999718666077,-2.364918780204379
93.103448,,8.349258997097276e-10,93.47,0.5709999799728394,-2.355540374016493
93.568966,,5.525051829698069e-10,93.934,0.5669999718666077,-2.3636019122409393
94.03448300000001,,2.5591816627841195e-10,94.4,0.5289999842643738,-2.44576947582032
94.5,,5.43898671058227e-11,94.865,0.546999990940094,-2.4059854212792335
94.965517,,3.7790549895016615e-10,95.33,0.5669999718666077,-2.3619144807839785
95.431034,,7.140460633813785e-10,95.793,0.5799999833106995,-2.3331788606665675
95.896552,,1.0621587329774487e-09,96.256,0.5519999861717224,-2.393865618514881
96.36206899999999,,1.421519815458708e-09,96.726,0.5509999990463257,-2.395837642179509
96.827586,,1.7913342725803224e-09,97.189,0.5540000200271606,-2.3892112677738115
97.293103,,2.170735472537254e-09,97.653,0.574999988079071,-2.343488330913416
97.758621,,2.558785186849012e-09,98.115,0.5170000195503235,-2.469997367470959
98.224138,,2.9544738422937873e-09,98.58,0.5389999747276306,-2.4223306636636743
98.689655,,3.3567210380090024e-09,99.052,0.5659999847412109,-2.3638785449127115
99.155172,,3.764376337367123e-09,99.51,0.5649999976158142,-2.366523870307504
99.62069,,4.1762203436712175e-09,99.982,0.5460000038146973,-2.408465762093884
100.086207,,4.590966068093777e-09,100.44,0.5630000233650208,-2.3720406643667604
100.551724,,5.0072605976044785e-09,100.912,0.5460000038146973,-2.40973523606864
101.017241,,5.4236870698979006e-09,101.37,0.5419999957084656,-2.4191328126398544
101.482759,,5.83876696154075e-09,101.842,0.5709999799728394,-2.3566390621539166
101.948276,,6.250962694710413e-09,102.3,0.5879999995231628,-2.320270255541804
102.413793,,6.658680566993114e-09,102.768,0.550000011920929,-2.403686950041511
102.87931,,7.060274007751515e-09,103.23,0.5509999990463257,-2.4020774795989377
103.344828,,7.45404716355918e-09,103.701,0.5659999847412109,-2.3698904384096973
103.810345,,7.838258814134353e-09,104.163,0.5659999847412109,-2.3702903907598962
104.275862,,8.211126619089405e-09,104.631,0.5440000295639038,-2.4185151503838425
104.741379,,8.570831694646875e-09,105.093,0.5419999957084656,-2.423053037685476
105.206897,,8.915523518260267e-09,105.558,0.5690000057220459,-2.364289897473967
105.672414,,9.243325157820052e-09,106.023,0.5699999928474426,-2.3620482814484047
106.13793100000001,,9.55233882082506e-09,106.489,0.5180000066757202,-2.475153584324538
106.603448,,9.840651717559503e-09,106.953,0.5630000233650208,-2.376814894883309
107.068966,,1.010634223093933e-08,107.419,0.5630000233650208,-2.3764086566169134
107.534483,,1.0347486384281725e-08,107.886,0.5429999828338623,-2.4194804968711625
108.0,,1.056216459681198e-08,108.351,0.5680000185966492,-2.3644335259144857
108.46551699999999,,1.074846871525656e-08,108.812,0.5730000138282776,-2.352897362285001
108.931034,,1.0904509308383934e-08,109.275,0.5789999961853027,-2.3391393879542624
109.396552,,1.102842320985013e-08,109.745,0.5260000228881836,-2.453900403962821
109.862069,,1.1118381293188634e-08,110.208,0.5789999961853027,-2.3377264337561177
110.32758600000001,,1.1172596461258788e-08,110.676,0.578000009059906,-2.3392222592267236
110.793103,,1.1189331830938835e-08,111.137,0.5519999861717224,-2.395228213610375
111.258621,,1.116690909232392e-08,111.603,0.5690000057220459,-2.357616854717226
111.724138,,1.1103717020171766e-08,112.066,0.5230000019073486,-2.4573441219741192
112.189655,,1.0998220113834845e-08,112.532,0.5709999799728394,-2.3523782854329793
112.655172,,1.0848967340433754e-08,112.998,0.5669999718666077,-2.3608138224959405
113.12069,,1.0654600954568242e-08,113.463,0.4909999966621399,-2.5262335174212036
113.586207,,1.0413865366436235e-08,113.93,0.47200000286102295,-2.5676003761971793
114.051724,,1.0125616028843865e-08,114.396,0.5350000262260437,-2.430450254813551
114.51724100000001,,9.78882831224738e-09,114.86,0.5659999847412109,-2.3631437105481443
114.982759,,9.402606335677764e-09,115.326,0.46299999952316284,-2.587895200742791
115.448276,,8.966191720167705e-09,115.786,0.5720000267028809,-2.350882537444604
115.913793,,8.47897223013509e-09,116.256,0.5540000200271606,-2.390651701634586
116.37931,,7.940490267084688e-09,116.719,0.5680000185966492,-2.3607783903811956
116.84482799999999,,7.350451178976788e-09,117.181,0.5429999828338623,-2.4159273778634587
117.310345,,6.708731347685821e-09,117.649,0.5460000038146973,-2.410108173341164
117.77586199999999,,6.0153860161399525e-09,118.111,0.550000011920929,-2.4021222404740987
118.241379,,5.270656816001723e-09,118.577,0.5879999995231628,-2.3200503599264994
118.70689700000001,,4.474978956126764e-09,119.041,0.5669999718666077,-2.366483275679168
119.172414,,3.6289880315294053e-09,119.507,0.5640000104904175,-2.373643573560902
119.63793100000001,,2.7335264121973723e-09,119.972,0.5720000267028809,-2.3567627797136934
120.103448,,1.7896491708393254e-09,120.438,0.5440000295639038,-2.418220502466493
120.568966,,7.986295085252706e-10,120.905,0.5839999914169312,-2.3314231843533855
121.034483,,2.380363628029456e-10,121.371,0.5419999957084656,-2.4231569519160825
121.5,,1.3186249218097077e-09,121.831,0.5400000214576721,-2.4276203171039246
121.96551699999999,,2.4411816637740574e-09,122.296,0.5460000038146973,-2.414527635680349
122.431034,,3.603518091195222e-09,122.764,0.5429999828338623,-2.420916354771561
122.896552,,4.803209408423637e-09,123.226,0.5379999876022339,-2.431540511142967
123.362069,,6.037592958939379e-09,123.697,0.5659999847412109,-2.370155503677615
123.827586,,7.303767442921005e-09,124.159,0.5419999957084656,-2.421957833746712
124.293103,,8.598592951592356e-09,124.627,0.5379999876022339,-2.4301003422931533
124.758621,,9.918691853499596e-09,125.089,0.5339999794960022,-2.4381744165097325
125.22413800000001,,1.1260450566352448e-08,125.555,0.5720000267028809,-2.3546960693933725
125.68965500000002,,1.2620022246359811e-08,126.019,0.5630000233650208,-2.373585551831128
126.15517200000001,,1.3993330425098797e-08,126.485,0.5419999957084656,-2.4186124489835796
126.62069000000001,,1.5376073621876457e-08,126.945,0.5519999861717224,-2.396118101426283
127.086207,,1.676373095727401e-08,127.411,0.550000011920929,-2.399806519950118
127.55172400000001,,1.8151568791104527e-08,127.875,0.5809999704360962,-2.331658895709304
128.017241,,1.953464840536704e-08,128.341,0.5419999957084656,-2.416094479966678
128.48275900000002,,2.0907834749944546e-08,128.809,0.5669999718666077,-2.3611916193524456
128.948276,,2.2265806265771814e-08,129.271,0.5490000247955322,-2.4000793912917384
129.413793,,2.3603065796994873e-08,129.741,0.5540000200271606,-2.388977734178377
129.87931,,2.4913952600260058e-08,130.204,0.550000011920929,-2.39761020749973
130.344828,,2.619265545571159e-08,130.667,0.5669999718666077,-2.360619882302367
130.81034499999998,,2.743322688054777e-08,131.13,0.5669999718666077,-2.360793453390454
131.275862,,2.8629598442092905e-08,131.596,0.5389999747276306,-2.4220911491600305
131.741379,,2.97755971632918e-08,132.066,0.5540000200271606,-2.3898205561951125
132.206897,,3.086496300933359e-08,132.525,0.550000011920929,-2.39904560789901
132.67241399999997,,3.1891367439770743e-08,132.997,0.5410000085830688,-2.419249373391752
133.13793099999998,,3.2848433006026004e-08,133.455,0.5669999718666077,-2.3632674362119075
133.60344800000001,,3.3729753969586136e-08,133.92,0.5699999928474426,-2.357439812764798
134.06896600000002,,3.4528917911476174e-08,134.386,0.5419999957084656,-2.419173767264214
134.53448300000002,,3.5239528298805025e-08,134.853,0.5429999828338623,-2.41772854072688
135.0,,3.585522796928473e-08,135.318,0.5820000171661377,-2.3334730410497566
135.465517,,3.6369723489665136e-08,135.786,0.5669999718666077,-2.366819838362031
135.931034,,3.6776810339008345e-08,136.248,0.6029999852180481,-2.2889887734020506
136.396552,,3.707039886266781e-08,136.712,0.5440000295639038,-2.4180439793649238
136.862069,,3.724454093775214e-08,137.182,0.5649999976158142,-2.3727071364470116
137.327586,,3.7293457285760255e-08,137.645,0.5519999861717224,-2.4013316420362054
137.793103,,3.7211565362990305e-08,138.108,0.5680000185966492,-2.3666528545941947
138.258621,,3.6993507754268485e-08,138.573,0.5540000200271606,-2.397205455743767
138.724138,,3.663418099053415e-08,139.037,0.5669999718666077,-2.3688047436475084
139.189655,,3.612876470587547e-08,139.503,0.5299999713897705,-2.449209280610608
139.655172,,3.5472751044754454e-08,139.967,0.5789999961853027,-2.342129296920156
140.12069,,3.466197422541363e-08,140.433,0.5540000200271606,-2.3961580439628567
140.586207,,3.369264016084007e-08,140.897,0.5540000200271606,-2.395622772082364
141.05172399999998,,3.256135603419768e-08,141.363,0.5789999961853027,-2.3405399919859784
141.51724099999998,,3.126515972134917e-08,141.83,0.5109999775886536,-2.488009642231222
141.982759,,2.9801548948996404e-08,142.296,0.5659999847412109,-2.3674654799039225
142.44827600000002,,2.816851007309615e-08,142.756,0.550000011920929,-2.4015872018660933
142.913793,,2.6364546358580095e-08,143.226,0.5630000233650208,-2.3725320755969905
143.37931,,2.438870563804756e-08,143.686,0.5759999752044678,-2.3435032848797417
143.844828,,2.2240607224029472e-08,144.156,0.5419999957084656,-2.416918889470559
144.310345,,1.9920467946666755e-08,144.622,0.5929999947547913,-2.3052179348707784
144.77586200000002,,1.7429127186228853e-08,145.085,0.550000011920929,-2.3983964714998196
145.241379,,1.4768070767841338e-08,145.551,0.5529999732971191,-2.3914601241520956
145.706897,,1.1939453584118873e-08,146.016,0.5429999828338623,-2.412962449901194
146.172414,,8.946120810133601e-09,146.481,0.5540000200271606,-2.3888385257310025
146.637931,,5.791627574311184e-09,146.942,0.5540000200271606,-2.388810140486943
147.103448,,2.4802569484589838e-09,147.408,0.5419999957084656,-2.4150569813886347
147.568966,,9.829638797859842e-10,147.871,0.5960000157356262,-2.297640659510299
148.034483,,4.5922493882279e-09,148.337,0.5540000200271606,-2.3894944728556
148.5,,8.34104359015636e-09,148.8,0.5440000295639038,-2.4117413271543584
148.965517,,1.2222010126606478e-08,149.271,0.5709999799728394,-2.353474667900666
149.43103399999998,,1.6227024712120012e-08,149.734,0.5429999828338623,-2.4151125647117704
149.89655199999999,,2.0347170062574253e-08,150.196,0.5450000166893005,-2.411450789849636
150.362069,,2.457273343035134e-08,150.66,0.5419999957084656,-2.418721262812965
150.82758600000003,,2.8893206868237906e-08,151.13,0.5669999718666077,-2.365005290929123
151.293103,,3.3297290338961605e-08,151.596,0.5519999861717224,-2.3984270330474473
151.758621,,3.777289778217776e-08,152.059,0.5540000200271606,-2.394780494973146
152.224138,,4.230716624500741e-08,152.525,0.5540000200271606,-2.395438182653583
152.68965500000002,,4.6886468175891187e-08,152.989,0.5540000200271606,-2.396022145507191
153.155172,,5.149642697455736e-08,153.455,0.546999990940094,-2.411764833871662
153.62069,,5.61219358833048e-08,153.92,0.5630000233650208,-2.3772910645426957
154.086207,,6.074718029657196e-08,154.385,0.5440000295639038,-2.4189504058988947
154.551724,,6.535566355690406e-08,154.85,0.5540000200271606,-2.3973010365536256
155.017241,,6.993023629594573e-08,155.315,0.5540000200271606,-2.3973056840295253
155.482759,,7.445312936898373e-08,155.778,0.6740000247955322,-2.135737116642397
155.948276,,7.890599042085125e-08,156.241,0.5419999957084656,-2.423054775151731
156.413793,,8.3269924109696e-08,156.708,0.5759999752044678,-2.3485933716572256
156.87931,,8.752553600322124e-08,157.171,0.5419999957084656,-2.422170624624299
157.34482799999998,,9.165298014955058e-08,157.642,0.5410000085830688,-2.4237591795676927
157.81034499999998,,9.563201031186335e-08,158.104,0.5540000200271606,-2.3947721461551934
158.275862,,9.944203484241994e-08,158.57,0.550000011920929,-2.402767959654266
158.741379,,1.030621751575722e-07,159.035,0.5789999961853027,-2.3388358438102337
159.20689700000003,,1.0647132776086107e-07,159.5,0.5960000157356262,-2.3010369722891286
159.672414,,1.0964822974637249e-07,159.96,0.5740000009536743,-2.34821802148285
160.137931,,1.1257152769918973e-07,160.425,0.546999990940094,-2.4063292898454516
160.60344800000001,,1.1521984989408006e-07,160.89,0.5669999718666077,-2.3621044388365524
161.06896600000002,,1.1757188167752925e-07,161.356,0.550000011920929,-2.3985704106344934
161.534483,,1.1960644390192893e-07,161.823,0.5419999957084656,-2.415527967555426
162.0,,1.2130257426417782e-07,162.289,0.5669999718666077,-2.3607044327366213
162.465517,,1.2263961138422585e-07,162.752,0.5789999961853027,-2.3343278238875054
162.931034,,1.235972814422205e-07,163.215,0.5540000200271606,-2.388692787909819
163.396552,,1.2415578717596446e-07,163.686,0.546999990940094,-2.403977894515668
163.862069,,1.2429589902341704e-07,164.148,0.5830000042915344,-2.3257158433762544
164.327586,,1.2399904817802964e-07,164.614,0.550000011920929,-2.3979097181155122
164.793103,,1.2324742130785946e-07,165.078,0.5540000200271606,-2.3896140019587557
165.258621,,1.2202405667271905e-07,165.544,0.5410000085830688,-2.41846355913293
165.72413799999998,,1.203129413571603e-07,166.009,0.574999988079071,-2.3450082236156207
166.189655,,1.1809910932092604e-07,166.474,0.5540000200271606,-2.391450181295588
166.655172,,1.1536873995270412e-07,166.941,0.5669999718666077,-2.363868315151698
167.12069,,1.1210925679765584e-07,167.4,0.5789999961853027,-2.3384915829859985
167.58620699999997,,1.0830942611434027e-07,167.871,0.5690000057220459,-2.3610473438637842
168.051724,,1.0395945490239125e-07,168.337,0.5640000104904175,-2.3726882600191685
168.517241,,9.905108802870114e-08,168.797,0.5680000185966492,-2.3646766537040924
168.98275900000002,,9.357770406700155e-08,169.26,0.5669999718666077,-2.367491720389757
169.44827600000002,,8.753440945368657e-08,169.73,0.5709999799728394,-2.3593267004544565
169.913793,,8.091813055157097e-08,170.193,0.5509999990463257,-2.4033455394530296
170.37931,,7.372770320310052e-08,170.66,0.5669999718666077,-2.3688157804800825
170.844828,,6.596395934540461e-08,171.122,0.550000011920929,-2.406053702822015
171.310345,,5.762981025158745e-08,171.588,0.550000011920929,-2.406121006550528
171.775862,,4.873032595586557e-08,172.052,0.5540000200271606,-2.3973380017151382
172.241379,,3.927281041465494e-08,172.519,0.5799999833106995,-2.340490416817203
172.706897,,2.926687195156541e-08,172.986,0.5370000004768372,-2.4338409938452585
173.172414,,1.8724488531546668e-08,173.451,0.5820000171661377,-2.335352335346138
173.637931,,7.660067408219646e-09,173.915,0.5529999732971191,-2.397979237071301
174.103448,,3.9095013112091325e-09,174.381,0.5419999957084656,-2.4213032491784485
174.568966,,1.5964797637050908e-08,174.845,0.5419999957084656,-2.420595899001712
175.034483,,2.848383165415037e-08,175.311,0.5709999799728394,-2.356663047061849
175.5,,4.1442010909239184e-08,175.771,0.5540000200271606,-2.392925764636177
175.96551699999998,,5.48121156657634e-08,176.241,0.5540000200271606,-2.3921534780957465
176.43103399999998,,6.856428245415841e-08,176.704,0.5699999928474426,-2.356548830863332
176.896552,,8.266599633446199e-08,177.167,0.5830000042915344,-2.3275284107949004
177.36206900000002,,9.708209227510764e-08,177.635,0.5830000042915344,-2.3268998310519238
177.827586,,1.1177476603669015e-07,178.098,0.5509999990463257,-2.3960774909951965
178.293103,,1.2670359493240842e-07,178.563,0.5519999861717224,-2.393467381802503
178.758621,,1.418255688177416e-07,179.031,0.5450000166893005,-2.408408393633647
179.224138,,1.5709513164068155e-07,179.496,0.5839999914169312,-2.3232630967668233
179.68965500000002,,1.724642338605134e-07,179.956,0.5540000200271606,-2.3885809668634774
180.155172,,1.8788239601770102e-07,180.422,0.5419999957084656,-2.414821961411885
180.62069,,2.0329678370989154e-07,180.886,0.5619999766349792,-2.3714827716896845
181.086207,,2.1865229419941352e-07,181.352,0.5249999761581421,-2.452456309114516
181.551724,,2.3389165484591963e-07,181.816,0.5419999957084656,-2.415902102132024
182.01724099999998,,2.489555335240409e-07,182.285,0.5799999833106995,-2.333700155871574
182.482759,,2.6378266115010717e-07,182.749,0.5690000057220459,-2.3583360728766856
182.948276,,2.7830996640418786e-07,183.211,0.5640000104904175,-2.3699632506938406
183.413793,,2.9247272269396435e-07,183.675,0.5509999990463257,-2.3990606291462773
183.87931,,3.062047073653223e-07,184.145,0.574999988079071,-2.3475649971697337
184.34482799999998,,3.1943837312111415e-07,184.61,0.5669999718666077,-2.3657780024025956
184.81034499999998,,3.3210503156436593e-07,185.074,0.5889999866485596,-2.31859832341349
185.27586200000002,,3.4413504873537033e-07,185.539,0.5540000200271606,-2.395545044975068
185.74137900000002,,3.5545805246372344e-07,186.004,0.5669999718666077,-2.3678392138708735
186.206897,,3.6600315130652107e-07,186.47,0.5709999799728394,-2.3596443636753506
186.672414,,3.756991647927574e-07,186.934,0.5699999928474426,-2.3622293543399295
187.137931,,3.844748646415796e-07,187.4,0.5789999961853027,-2.3429015066541665
187.60344800000001,,3.9225922656858584e-07,187.865,0.550000011920929,-2.4062273219342702
188.06896600000002,,3.9898169223995383e-07,188.33,0.5759999752044678,-2.3495883466315384
188.534483,,4.045724408790061e-07,188.793,0.5460000038146973,-2.4148141909897154
189.0,,4.089626699740219e-07,189.256,0.5419999957084656,-2.4232605414171333
189.465517,,4.1208488447986016e-07,189.723,0.5529999732971191,-2.3989011467410215
189.931034,,4.13873193849453e-07,190.186,0.5339999794960022,-2.4397871816727617
190.39655199999999,,4.142636161746466e-07,190.653,0.5529999732971191,-2.397786283596424
190.862069,,4.1319438865941e-07,191.116,0.574999988079071,-2.3491689148663077
191.327586,,4.106062835923062e-07,191.582,0.5789999961853027,-2.339706604511577
191.793103,,4.064429289295412e-07,192.045,0.5419999957084656,-2.419531441549815
192.25862099999998,,4.0065113254509165e-07,192.51,0.5849999785423279,-2.3250516331860958
192.72413799999998,,3.93181209150595e-07,192.975,0.5830000042915344,-2.3286220154434103
193.189655,,3.839873088350983e-07,193.44,0.5509999990463257,-2.397587301921093
193.655172,,3.730277461236455e-07,193.905,0.5529999732971191,-2.3925385184893373
194.12069000000002,,3.602653284042852e-07,194.371,0.550000011920929,-2.3984649690758406
194.586207,,3.456676825256449e-07,194.838,0.5669999718666077,-2.3609195579140927
195.051724,,3.2920757832200717e-07,195.303,0.5659999847412109,-2.3627060703053777
195.517241,,3.108632477800895e-07,195.771,0.550000011920929,-2.3973010501088794
195.98275900000002,,2.906186985217331e-07,196.234,0.5419999957084656,-2.4146048803312814
196.448276,,2.684640202397051e-07,196.697,0.5419999957084656,-2.4146221739948066
196.913793,,2.443956826900807e-07,197.167,0.5230000019073486,-2.4561766799787175
197.37931,,2.184168238144518e-07,197.63,0.5419999957084656,-2.4150810002968033
197.844828,,1.9053752653877064e-07,198.093,0.5440000295639038,-2.411151191595696
198.310345,,1.607750827732345e-07,198.558,0.5809999704360962,-2.33108346350477
198.775862,,1.2915424311950804e-07,199.024,0.5730000138282776,-2.349151280228472
199.241379,,9.570745077801227e-08,199.489,0.5540000200271606,-2.3912610703730777
199.706897,,6.047505813922755e-08,199.957,0.5529999732971191,-2.394210782052906
200.172414,,2.350552453919969e-08,200.415,0.5789999961853027,-2.3383683376596704
200.63793099999998,,1.5144406339063487e-08,200.887,0.5860000252723694,-2.3239257891355054
201.103448,,5.54095509296456e-08,201.345,0.5419999957084656,-2.4205750985885754
201.568966,,9.72161536119039e-08,201.815,0.5630000233650208,-2.3755694015726614
202.034483,,1.4048177938290963e-07,202.278,0.5540000200271606,-2.3958576508147686
202.5,,1.8511523282965e-07,202.741,0.5849999785423279,-2.3289126594866443
202.965517,,2.3101650482561745e-07,203.211,0.5669999718666077,-2.3686149702964414
203.431034,,2.7807674833912496e-07,203.675,0.5830000042915344,-2.3341213600455863
203.896552,,3.261782846968416e-07,204.137,0.5440000295639038,-2.4193208435012057
204.36206900000002,,3.7519464159551685e-07,204.602,0.5720000267028809,-2.358411669994708
204.827586,,4.2499062409754716e-07,205.065,0.5669999718666077,-2.369255664726968
205.293103,,4.754224197818421e-07,205.531,0.5249999761581421,-2.460569105333641
205.758621,,5.263377391503064e-07,206.0,0.5540000200271606,-2.397064841248772
206.224138,,5.775759923121156e-07,206.466,0.5490000247955322,-2.407510899316563
206.689655,,6.289685028828097e-07,206.93,0.5419999957084656,-2.4222039543339116
207.155172,,6.803387599430553e-07,207.396,0.5630000233650208,-2.3758013703753793
207.62069,,7.315027088027613e-07,207.86,0.578000009059906,-2.342396450584189
208.086207,,7.822690812101324e-07,208.326,0.5519999861717224,-2.3982636425509964
208.551724,,8.324397655322787e-07,208.789,0.550000011920929,-2.4018152741080048
209.01724099999998,,8.81810217314272e-07,209.252,0.5799999833106995,-2.3356471846407687
209.482759,,9.301699104972066e-07,209.719,0.5669999718666077,-2.3631820009871425
209.948276,,9.77302829443011e-07,210.181,0.5540000200271606,-2.3907622137270015
210.413793,,1.022988001774707e-06,210.645,0.5619999766349792,-2.3726600711548467
210.87930999999998,,1.0670000718957056e-06,211.115,0.5709999799728394,-2.3524689047739407
211.344828,,1.109109914900865e-06,211.58,0.5540000200271606,-2.389030233661187
211.810345,,1.149085290435648e-06,212.044,0.5419999957084656,-2.414821688110567
212.27586200000002,,1.186691535898193e-06,212.51,0.5669999718666077,-2.360137702048908
212.741379,,1.2216922982127375e-06,212.974,0.5519999861717224,-2.3927406498889834
213.206897,,1.2538503032320443e-06,213.44,0.5199999809265137,-2.46252495852636
213.672414,,1.2829281616516652e-06,213.905,0.5490000247955322,-2.3995548376633917
214.137931,,1.308689210140498e-06,214.371,0.5450000166893005,-2.4086167149936992
214.60344800000001,,1.3308983862106252e-06,214.831,0.550000011920929,-2.3981960480213718
215.068966,,1.3493231351653765e-06,215.296,0.550000011920929,-2.398779240402804
215.534483,,1.3637343472784967e-06,215.764,0.5379999876022339,-2.425599014216318
216.0,,1.373907323169777e-06,216.227,0.5460000038146973,-2.408917836589466
216.465517,,1.379622765154137e-06,216.69,0.5540000200271606,-2.3922853728675184
216.93103399999998,,1.380667792152579e-06,217.159,0.5929999947547913,-2.3081376903140733
217.39655199999999,,1.3768369755652946e-06,217.627,0.5789999961853027,-2.3394544117735054
217.862069,,1.3679333933202237e-06,218.09,0.6169999837875366,-2.2574512898725736
218.327586,,1.3537696991252336e-06,218.555,0.5669999718666077,-2.367114717751376
218.793103,,1.3341692037695568e-06,219.02,0.5669999718666077,-2.3677697545406584
219.25862099999998,,1.308966965140954e-06,219.486,0.5649999976158142,-2.372687010608009
219.724138,,1.2780108834500365e-06,219.945,0.5799999833106995,-2.34045494314959
220.18965500000002,,1.2411627979830977e-06,220.41,0.4909999966621399,-2.5346774344926546
220.65517200000002,,1.1982995815404908e-06,220.875,0.5669999718666077,-2.369289767312137
221.12069,,1.1493142285598696e-06,221.342,0.5540000200271606,-2.397661863464496
221.586207,,1.0941169327733462e-06,221.812,0.5659999847412109,-2.3714253469094237
222.051724,,1.0326361501056465e-06,222.275,0.5830000042915344,-2.334155212695811
222.517241,,9.648196423875614e-07,222.738,0.5669999718666077,-2.3686469659450164
222.98275900000002,,8.906354973362271e-07,223.2,0.515999972820282,-2.4792702518520455
223.448276,,8.100731201419338e-07,223.671,0.5419999957084656,-2.422033116268738
223.913793,,7.231441919010869e-07,224.133,0.5630000233650208,-2.3756025952803377
224.37931,,6.298835900475329e-07,224.599,0.5540000200271606,-2.3944646882919347
224.844828,,5.30350265860545e-07,225.062,0.5699999928474426,-2.3588161584754155
225.31034499999998,,4.2462807406819723e-07,225.528,0.5419999957084656,-2.419007993598079
225.775862,,3.128265495204721e-07,225.993,0.5540000200271606,-2.3920590395813637
226.241379,,1.9508162587805425e-07,226.459,0.5460000038146973,-2.4087132845420167
226.706897,,7.155629125116575e-08,226.926,0.5490000247955322,-2.401456191314948
227.172414,,5.755882427125037e-08,227.392,0.5709999799728394,-2.352880494673296
227.63793099999998,,1.9204493423744819e-07,227.856,0.5460000038146973,-2.406796103295205
228.103448,,3.3165465958611127e-07,228.322,0.5360000133514404,-2.4281445215065904
228.56896600000002,,4.761116754662128e-07,228.782,0.5419999957084656,-2.414761269160666
229.03448300000002,,6.251104459696314e-07,229.245,0.5429999828338623,-2.4124073598939937
229.5,,7.783160515186042e-07,229.715,0.550000011920929,-2.3971226014060205
229.965517,,9.353641135246552e-07,230.178,0.5400000214576721,-2.4190169382518905
230.431034,,1.0958608207883178e-06,230.642,0.4480000138282776,-2.6197011339690954
230.896552,,1.2593830619393666e-06,231.112,0.5260000228881836,-2.45014990604799
231.362069,,1.425478668025009e-06,231.57,0.5540000200271606,-2.3896524058744477
231.827586,,1.5936667691382925e-06,232.037,0.5389999747276306,-2.4229401260224788
232.293103,,1.7634382687406168e-06,232.503,0.5920000076293945,-2.3081628248041084
232.758621,,1.934256439070551e-06,232.967,0.5440000295639038,-2.4134901505235002
233.224138,,2.10555764074608e-06,233.433,0.5709999799728394,-2.355457014416547
233.689655,,2.276752169358947e-06,233.898,0.5540000200271606,-2.3932981885230276
234.155172,,2.4472252315279944e-06,234.364,0.5490000247955322,-2.404985118602066
234.62069,,2.616338052523532e-06,234.83,0.5540000200271606,-2.3948511562314705
235.086207,,2.7834291171970296e-06,235.297,0.5440000295639038,-2.417339382618891
235.55172399999998,,2.9478155455501897e-06,235.76,0.546999990940094,-2.4114265996332973
236.01724099999998,,3.108794603855206e-06,236.222,0.5720000267028809,-2.3574853749417524
236.482759,,3.2656453517942666e-06,236.69,0.5419999957084656,-2.423255694868178
236.94827600000002,,3.417630425621759e-06,237.152,0.5519999861717224,-2.401753825181476
237.413793,,3.563997956867982e-06,237.618,0.5540000200271606,-2.3975465941722462
237.87931,,3.7039836255992972e-06,238.084,0.5669999718666077,-2.3692351341433917
238.344828,,3.836812846727515e-06,238.55,0.5519999861717224,-2.401786193925548
238.810345,,3.961703087322045e-06,239.016,0.5540000200271606,-2.397165209901132
239.27586200000002,,4.077866312322999e-06,239.481,0.5529999732971191,-2.3989540223661705
239.741379,,4.184511555483451e-06,239.945,0.5669999718666077,-2.3679486766142803
240.206897,,4.280847611785742e-06,240.411,0.5540000200271606,-2.3956679209806917
240.672414,,4.366085846981599e-06,240.876,0.550000011920929,-2.403699671105004
241.137931,,4.439443119300513e-06,241.342,0.5669999718666077,-2.3659213245151345
241.603448,,4.500144807757041e-06,241.804,0.5879999995231628,-2.3193916647731916
242.068966,,4.547427940867203e-06,242.266,0.5540000200271606,-2.392674706873923
242.534483,,4.580544418959018e-06,242.734,0.5789999961853027,-2.3374293286341286
243.0,,4.598764322634288e-06,243.197,0.546999990940094,-2.4064030122867663
243.465517,,4.601379299310288e-06,243.66,0.5540000200271606,-2.390468855335632
243.93103399999998,,4.587706019143144e-06,244.13,0.5669999718666077,-2.361543594247352
244.39655199999999,,4.557089691011782e-06,244.595,0.5419999957084656,-2.415505761122993
244.862069,,4.508907628624715e-06,245.058,0.5759999752044678,-2.3410420397310125
245.327586,,4.442572856204179e-06,245.524,0.5680000185966492,-2.358206905224523
245.793103,,4.357537742605591e-06,245.989,0.5669999718666077,-2.360254477938654
246.258621,,4.253297652147872e-06,246.455,0.5640000104904175,-2.3667962820982558
246.724138,,4.129394599864262e-06,246.92,0.550000011920929,-2.3974404213459732
247.18965500000002,,3.985420898336787e-06,247.386,0.5509999990463257,-2.3955379027228925
247.655172,,3.821022782753159e-06,247.846,0.5389999747276306,-2.42208261414796
248.12069,,3.6359040003255477e-06,248.311,0.5720000267028809,-2.3506999288070283
248.586207,,3.429829349739156e-06,248.775,0.5669999718666077,-2.3622011703013563
249.051724,,3.2026281558577172e-06,249.245,0.5519999861717224,-2.39556468139698
249.517241,,2.9541976645058638e-06,249.708,0.5429999828338623,-2.4159118388684986
249.982759,,2.684506341777666e-06,250.171,0.574999988079071,-2.3469669464208334
250.44827600000002,,2.3935970619894324e-06,250.638,0.5669999718666077,-2.365175866811865
250.913793,,2.0815901681059393e-06,251.1,0.5709999799728394,-2.357224265952272
251.37931000000003,,1.748686388225512e-06,251.565,0.5659999847412109,-2.3688404107518406
251.844828,,1.395169591513631e-06,252.031,0.5540000200271606,-2.395645043133338
252.31034499999998,,1.0214093668297304e-06,252.497,0.5540000200271606,-2.3962242510071405
252.77586200000002,,6.278634072003243e-07,252.963,0.5669999718666077,-2.368381682038724
253.241379,,2.1507968325616829e-07,253.429,0.5720000267028809,-2.357853440732616
253.706897,,2.163016112256175e-07,253.894,0.5460000038146973,-2.414737857784273
254.172414,,6.655463584492057e-07,254.36,0.5879999995231628,-2.3233413920902533
254.63793099999998,,1.1318250770244747e-06,254.826,0.5540000200271606,-2.397386031772584
255.10344800000001,,1.6142117601017221e-06,255.285,0.5540000200271606,-2.3972221251358605
255.56896600000002,,2.1116830073490563e-06,255.753,0.5709999799728394,-2.359892397435679
256.03448299999997,,2.6231174665540366e-06,256.215,0.550000011920929,-2.4052313546420896
256.5,,3.147295600208891e-06,256.686,0.550000011920929,-2.404712345368255
256.965517,,3.682899791943405e-06,257.148,0.5540000200271606,-2.395388839005232
257.431034,,4.22851480709997e-06,257.614,0.5519999861717224,-2.399066244858343
257.896552,,4.782628621100075e-06,258.078,0.5690000057220459,-2.361298863705923
258.362069,,5.343633628529842e-06,258.544,0.5419999957084656,-2.419364246320566
258.827586,,5.909828245073171e-06,259.009,0.5519999861717224,-2.3968156179902858
259.29310300000003,,6.4794189135443615e-06,259.474,0.5429999828338623,-2.415681061028799
259.758621,,7.050522524317298e-06,259.942,0.5540000200271606,-2.3910158888675097
260.224138,,7.621169259415619e-06,260.4,0.5519999861717224,-2.394736960181472
260.689655,,8.189305868417937e-06,260.867,0.5529999732971191,-2.392004924048452
261.155172,,8.752799383144799e-06,261.333,0.5440000295639038,-2.41115907982205
261.62068999999997,,9.3094412768305e-06,261.801,0.5540000200271606,-2.3890327109903255
262.086207,,9.856952072144443e-06,262.263,0.5389999747276306,-2.4214965500466445
262.551724,,1.039298640101488e-05,262.726,0.5649999976158142,-2.364765728456021
263.017241,,1.091513851772443e-05,263.196,0.550000011920929,-2.39749154548217
263.482759,,1.1420948265194178e-05,263.66,0.5630000233650208,-2.369345278068844
263.94827599999996,,1.1907907492753405e-05,264.122,0.5360000133514404,-2.4284696916103274
264.413793,,1.237346692200876e-05,264.589,0.5540000200271606,-2.3896704156685336
264.87931,,1.2815043455682432e-05,265.052,0.546999990940094,-2.405439908585383
265.34482799999995,,1.323002792248775e-05,265.518,0.5640000104904175,-2.369007594319069
265.810345,,1.3615793249256265e-05,265.982,0.5830000042915344,-2.3282842782140767
266.27586199999996,,1.39697030496272e-05,266.448,0.546999990940094,-2.407431830592717
266.741379,,1.4289120616662862e-05,266.915,0.5849999785423279,-2.325382723365283
267.206897,,1.4571418304767155e-05,267.381,0.5669999718666077,-2.365338261838296
267.672414,,1.4813987284264266e-05,267.841,0.5839999914169312,-2.3290183744967914
268.137931,,1.501424764994638e-05,268.307,0.5889999866485596,-2.318797495962185
268.603448,,1.5169658862829254e-05,268.775,0.4740000069141388,-2.569950958253361
269.06896600000005,,1.527773050226906e-05,269.237,0.5669999718666077,-2.3678661206825984
269.53448299999997,,1.5336033303499634e-05,269.701,0.5820000171661377,-2.3356188315686706
270.0,,1.5342210453553506e-05,270.171,0.5509999990463257,-2.403477947607061
270.465517,,1.5293989116439965e-05,270.634,0.5490000247955322,-2.4080359520730092
270.931034,,1.5189192156376922e-05,271.097,0.5669999718666077,-2.368895455255838
271.396552,,1.5025750025818194e-05,271.563,0.5849999785423279,-2.3296261896485753
271.86206899999996,,1.4801712782992458e-05,272.027,0.5860000252723694,-2.3272661734555182
272.327586,,1.4515262201682915e-05,272.493,0.550000011920929,-2.4053948101267073
272.793103,,1.416472393403642e-05,272.96,0.5210000276565552,-2.4681628341034307
273.258621,,1.3748579685306506e-05,273.425,0.5699999928474426,-2.3609001014323474
273.724138,,1.3265479357615263e-05,273.89,0.5879999995231628,-2.321093348218166
274.18965499999996,,1.2714253118074039e-05,274.355,0.5540000200271606,-2.3945115717778864
274.655172,,1.2093923344941416e-05,274.823,0.5709999799728394,-2.356774889227525
275.12069,,1.1403716403928994e-05,275.281,0.5669999718666077,-2.3647674275869477
275.586207,,1.064307420530009e-05,275.749,0.5720000267028809,-2.353151522665147
276.051724,,9.81166549105379e-06,276.211,0.5699999928474426,-2.3568079298903473
276.517241,,8.909396800256304e-06,276.679,0.5540000200271606,-2.3910085582359173
276.98275900000004,,7.936423059482945e-06,277.141,0.546999990940094,-2.4056655346305487
277.448276,,6.893157744376867e-06,277.607,0.546999990940094,-2.405154542197665
277.913793,,5.780282557524541e-06,278.077,0.550000011920929,-2.398205673171441
278.37931,,4.59875656720225e-06,278.535,0.550000011920929,-2.397903129120604
278.844828,,3.3498247510717286e-06,279.0,0.5429999828338623,-2.4129704888998917
279.31034500000004,,2.035025888605597e-06,279.466,0.5460000038146973,-2.4063759359207157
279.77586199999996,,6.561997459132217e-07,279.93,0.5649999976158142,-2.3650487352870835
280.241379,,7.845065032765008e-07,280.396,0.5389999747276306,-2.4218836500731373
280.706897,,2.284632676428982e-06,280.86,0.5400000214576721,-2.420012049710462
281.172414,,3.841400856266149e-06,281.326,0.5669999718666077,-2.3616030095906897
281.637931,,5.451711594807729e-06,281.794,0.5540000200271606,-2.3904330289347033
282.10344799999996,,7.11214110117518e-06,282.256,0.5540000200271606,-2.39101805166896
282.568966,,8.818939465762157e-06,282.727,0.5440000295639038,-2.4134490677251037
283.034483,,1.0568029971957361e-05,283.189,0.5720000267028809,-2.3531308088870424
283.5,,1.2355009544943977e-05,283.653,0.5669999718666077,-2.364725560802088
283.965517,,1.4175150385190075e-05,284.115,0.5649999976158142,-2.369779802220541
284.431034,,1.60234028320823e-05,284.581,0.574999988079071,-2.3486646130948325
284.89655200000004,,1.789439950073788e-05,285.045,0.574999988079071,-2.349289435634041
285.362069,,1.978246073235489e-05,285.511,0.5759999752044678,-2.3476701073490704
285.827586,,2.1681601395526235e-05,285.975,0.5709999799728394,-2.3590404221992185
286.293103,,2.358553907274821e-05,286.441,0.5460000038146973,-2.413887981263995
286.758621,,2.5487703662899973e-05,286.908,0.5720000267028809,-2.3575181530038782
287.22413800000004,,2.738124842675668e-05,287.374,0.5540000200271606,-2.3968946783516993
287.689655,,2.9259062498628738e-05,287.842,0.5519999861717224,-2.401294510679983
288.155172,,3.111378488299513e-05,288.3,0.5419999957084656,-2.4230049830808507
288.62069,,3.2937819950524836e-05,288.771,0.5419999957084656,-2.4228138285591188
289.086207,,3.472335444316178e-05,289.234,0.5730000138282776,-2.354975309316751
289.55172400000004,,3.646237599299122e-05,289.697,0.5630000233650208,-2.3763608758820998
290.01724099999996,,3.8146693154417446e-05,290.16,0.5519999861717224,-2.399837279650155
290.482759,,3.976795694377125e-05,290.63,0.5429999828338623,-2.418884422901537
290.948276,,4.131768387484221e-05,291.093,0.5799999833106995,-2.3376590174529284
291.413793,,4.2787280473004104e-05,291.559,0.5419999957084656,-2.419796034880146
291.87931,,4.416806924458553e-05,292.024,0.574999988079071,-2.347232824616886
292.344828,,4.545131607194422e-05,292.489,0.5529999732971191,-2.3944994117856697
292.81034500000004,,4.662825899834725e-05,292.956,0.5529999732971191,-2.393860114713944
293.275862,,4.769013836025601e-05,293.421,0.5540000200271606,-2.3910862091479306
293.74137900000005,,4.862822821798084e-05,293.886,0.5699999928474426,-2.3556944133985342
294.206897,,4.943386902892409e-05,294.352,0.5490000247955322,-2.400989899400538
294.672414,,5.009850150079068e-05,294.812,0.5270000100135803,-2.4485559292203236
295.13793100000004,,5.061370155523257e-05,295.275,0.5199999809265137,-2.4635460257793222
295.603448,,5.0971216325429165e-05,295.745,0.5770000219345093,-2.339213178274577
296.068966,,5.116300110411156e-05,296.207,0.5440000295639038,-2.4110721473272543
296.534483,,5.118125715153982e-05,296.675,0.5429999828338623,-2.4133284297041895
297.0,,5.101847026596144e-05,297.137,0.5960000157356262,-2.298048119819805
297.46551700000003,,5.066745001214338e-05,297.603,0.5669999718666077,-2.361520107903402
297.931034,,5.012136949670481e-05,298.066,0.5649999976158142,-2.366262071566765
298.396552,,4.9373805572210924e-05,298.531,0.5419999957084656,-2.4168383184862896
298.862069,,4.8418779345348174e-05,298.997,0.5659999847412109,-2.365086567843163
299.327586,,4.725079685801624e-05,299.462,0.5820000171661377,-2.330815105920487
299.79310300000003,,4.5864889803872585e-05,299.927,0.593999981880188,-2.305290320495871
300.258621,,4.425665613678095e-05,300.393,0.5839999914169312,-2.3277082857979114
300.724138,,4.242230042177725e-05,300.856,0.5669999718666077,-2.3653708699248357
301.189655,,4.035867377360533e-05,301.322,0.5490000247955322,-2.4051884221623134
301.65517200000005,,3.806331322262324e-05,301.79,0.5509999990463257,-2.401392715761695
302.12069,,3.5534480342969544e-05,302.252,0.578000009059906,-2.3430734280571683
302.586207,,3.277119897334043e-05,302.715,0.5690000057220459,-2.363112599916934
303.05172400000004,,2.977329185659444e-05,303.185,0.5669999718666077,-2.367815705251066
303.517241,,2.654141602070416e-05,303.646,0.5490000247955322,-2.407282130249557
303.982759,,2.307709672034502e-05,304.115,0.5429999828338623,-2.4205039351002484
304.448276,,1.9382759755681363e-05,304.58,0.5540000200271606,-2.3965839041503814
304.913793,,1.5461761982710778e-05,305.044,0.5659999847412109,-2.370379400917426
305.37931000000003,,1.1318419827889181e-05,305.51,0.5659999847412109,-2.370214297908941
305.844828,,6.958035618711073e-06,305.975,0.546999990940094,-2.411344760637778
306.310345,,2.3869215414905647e-06,306.44,0.5249999761581421,-2.4589219278782752
306.775862,,2.3875789621929917e-06,306.9,0.5389999747276306,-2.4279902563874827
307.241379,,7.357072548029116e-06,307.366,0.578000009059906,-2.342527133456862
307.70689699999997,,1.2512100256543506e-05,307.83,0.5899999737739563,-2.3158355900791983
308.172414,,1.784212491943812e-05,308.296,0.5709999799728394,-2.356645654161771
308.637931,,2.3335521865384365e-05,308.764,0.5649999976158142,-2.369114982525897
309.103448,,2.8979573102124603e-05,309.226,0.5690000057220459,-2.3597981376235917
309.568966,,3.476046514712703e-05,309.69,0.5519999861717224,-2.3962515634071404
310.034483,,4.0663290673627515e-05,310.16,0.5540000200271606,-2.391347012961714
310.5,,4.667205413266438e-05,310.63,0.5189999938011169,-2.4671061932795157
310.96551700000003,,5.276968150465618e-05,311.086,0.550000011920929,-2.3991431993850516
311.431034,,5.8938034326178256e-05,311.551,0.5669999718666077,-2.361761707075779
311.896552,,6.515792812885444e-05,312.016,0.5720000267028809,-2.3506126365232562
312.362069,,7.14091554176909e-05,312.482,0.5860000252723694,-2.3199510991635433
312.827586,,7.767051330573862e-05,312.949,0.5540000200271606,-2.389607021268316
313.29310300000003,,8.391983591068053e-05,313.415,0.5669999718666077,-2.3613255043840287
313.758621,,9.013403160680344e-05,313.875,0.5540000200271606,-2.3897890872137535
314.224138,,9.628912521284148e-05,314.341,0.546999990940094,-2.4052771603745797
314.689655,,0.00010236030518237867,314.808,0.550000011920929,-2.3990678607578353
315.155172,,0.00010832197584888731,315.271,0.5640000104904175,-2.3689723721385
315.62068999999997,,0.00011414781476207485,315.741,0.5709999799728394,-2.354193283735972
316.086207,,0.00011981083513603664,316.204,0.5849999785423279,-2.32421429502304
316.551724,,0.0001252834534127911,316.672,0.5839999914169312,-2.3269493692258907
317.017241,,0.00013053756192713705,317.134,0.5529999732971191,-2.395062073942956
317.482759,,0.00013554460664045478,317.599,0.5540000200271606,-2.393460048028615
317.94827599999996,,0.00014027566989210761,318.062,0.5630000233650208,-2.374414429008871
318.413793,,0.00014470155809753366,318.528,0.5509999990463257,-2.4010893097142283
318.87931000000003,,0.00014879289430199023,318.994,0.5669999718666077,-2.3667152120462607
319.344828,,0.0001525202154782792,319.46,0.5540000200271606,-2.3954606838374746
319.810345,,0.00015585407443569063,319.92,0.5669999718666077,-2.367488032621427
320.275862,,0.00015876514618591364,320.386,0.5669999718666077,-2.3677539339960463
320.741379,,0.00016122433858983725,320.853,0.5630000233650208,-2.3766428014620513
321.20689699999997,,0.0001632029070870678,321.319,0.5450000166893005,-2.415937026034642
321.672414,,0.00016467257328768776,321.782,0.5799999833106995,-2.339665153747238
322.137931,,0.00016560564718335358,322.251,0.5830000042915344,-2.333012075201702
322.603448,,0.000165975152712347,322.712,0.5669999718666077,-2.367658938769121
323.068966,,0.00016575495639073942,323.175,0.5699999928474426,-2.3608239620859557
323.53448299999997,,0.00016491989869948253,323.645,0.5419999957084656,-2.4214496872702482
324.0,,0.0001634459278950932,324.107,0.5669999718666077,-2.366541587154062
324.465517,,0.00016131023588973853,324.573,0.5669999718666077,-2.3660471212137457
324.931034,,0.00015849139582504873,325.037,0.5879999995231628,-2.3197623920927315
325.396552,,0.0001549695009429779,325.503,0.5529999732971191,-2.395459374273859
325.86206899999996,,0.00015072630433660418,325.967,0.5669999718666077,-2.364396950046591
326.327586,,0.0001457453591440011,326.433,0.5809999704360962,-2.3333455287677465
326.793103,,0.00014001215872933096,326.897,0.4659999907016754,-2.5833684647781574
327.258621,,0.00013351427637720757,327.363,0.5440000295639038,-2.4129586235291813
327.724138,,0.0001262415040092578,327.828,0.5630000233650208,-2.371148417478714
328.189655,,0.00011818598941578427,328.293,0.5669999718666077,-2.3620869425657807
328.655172,,0.00010934237148060031,328.756,0.5640000104904175,-2.368354074968911
329.12068999999997,,9.970791286358472e-05,329.226,0.5669999718666077,-2.361635199156185
329.586207,,8.928262959339015e-05,329.69,0.5690000057220459,-2.35718538050825
330.051724,,7.806941701214231e-05,330.152,0.5419999957084656,-2.4160097007790027
330.517241,,6.607417150499714e-05,330.618,0.5669999718666077,-2.361637547602622
330.982759,,5.330590744017984e-05,331.084,0.5329999923706055,-2.4358958605885963
331.44827599999996,,3.977686873972055e-05,331.55,0.5460000038146973,-2.407842645462418
331.913793,,2.550263449762135e-05,332.015,0.5519999861717224,-2.3951166956345067
332.37931,,1.0502218060736098e-05,332.481,0.4909999966621399,-2.52842692596785
332.844828,,5.201841011684531e-06,332.946,0.5009999871253967,-2.5071092796952206
333.310345,,2.1583392690938086e-05,333.412,0.5419999957084656,-2.418295402583822
333.77586199999996,,3.861260050026346e-05,333.871,0.5460000038146973,-2.410116187408877
334.241379,,5.625587438306973e-05,334.337,0.5419999957084656,-2.41937380980839
334.706897,,7.44758129763747e-05,334.804,0.5540000200271606,-2.3937640960389457
335.17241399999995,,9.323115583527612e-05,335.267,0.5429999828338623,-2.4182384211285086
335.637931,,0.00011247674613909182,335.734,0.5450000166893005,-2.4143501332070585
336.103448,,0.00013216350439195136,336.196,0.5379999876022339,-2.4300162112671293
336.56896600000005,,0.00015223841361013438,336.66,0.5690000057220459,-2.3628273645557543
337.034483,,0.00017264451646530863,337.13,0.5540000200271606,-2.395779364535326
337.5,,0.00019332092482683062,337.596,0.5540000200271606,-2.3959668725753493
337.965517,,0.00021420284211724058,338.06,0.5350000262260437,-2.4374594225728234
338.431034,,0.00023522159886319005,338.526,0.5669999718666077,-2.367749404994288
338.89655200000004,,0.0002563047017897871,338.99,0.5649999976158142,-2.3720212349309255
339.36206899999996,,0.00027737589676973644,339.456,0.5799999833106995,-2.3391663798011617
339.827586,,0.0002983552458986706,339.915,0.5410000085830688,-2.4238748040755214
340.293103,,0.00031915921892392197,340.381,0.5709999799728394,-2.358181820355408
340.758621,,0.00033970079920718173,340.846,0.5699999928474426,-2.359962328526623
341.224138,,0.00035988960435495845,341.312,0.5619999766349792,-2.376940980718638
341.68965499999996,,0.0003796320216038243,341.775,0.5630000233650208,-2.3742734698930623
342.155172,,0.0003988313579937089,342.244,0.5540000200271606,-2.393369718734069
342.62069,,0.00041738800529840693,342.705,0.5699999928474426,-2.3579926243372915
343.086207,,0.00043519961961852537,343.175,0.5419999957084656,-2.4184847364863375
343.551724,,0.00045216131549428496,343.638,0.5770000219345093,-2.3417461038491925
344.01724099999996,,0.0004681658743552806,344.1,0.550000011920929,-2.4001223028179233
344.48275900000004,,0.0004831039670520615,344.566,0.5540000200271606,-2.391012430036255
344.948276,,0.0004968643900968621,345.031,0.550000011920929,-2.3993959543264194
345.413793,,0.0005093343151487791,345.497,0.5849999785423279,-2.3228854104606356
345.87931,,0.0005203995512965048,345.963,0.550000011920929,-2.3989601141183017
346.344828,,0.0005299448197415767,346.429,0.5540000200271606,-2.3901529530326764
346.81034500000004,,0.0005378540403319277,346.893,0.5680000185966492,-2.3596472214327098
347.275862,,0.0005440106290124042,347.358,0.5249999761581421,-2.453412265981149
347.741379,,0.0005482978051081977,347.823,0.5460000038146973,-2.4078291455339955
348.206897,,0.0005505989078636988,348.289,0.5799999833106995,-2.33400290850161
348.672414,,0.0005507977222118475,348.75,0.5199999809265137,-2.465040249068487
349.13793100000004,,0.0005487788129871906,349.22,0.5669999718666077,-2.3630232743670647
349.60344799999996,,0.000544427864891865,349.682,0.546999990940094,-2.4070246295809503
350.068966,,0.0005376320254133181,350.152,0.550000011920929,-2.400952354448068
350.534483,,0.0005282802515639802,350.61,0.5419999957084656,-2.4188666344101337
351.0,,0.0005162636643165886,351.08,0.5419999957084656,-2.4193583121394853
351.465517,,0.0005014759093074932,351.546,0.5540000200271606,-2.3936976320345695
351.93103399999995,,0.00048381351183285793,352.011,0.5669999718666077,-2.3658345375546594
352.396552,,0.00046317621651354026,352.47,0.5540000200271606,-2.394577842380034
352.862069,,0.00043946732543847497,352.935,0.5519999861717224,-2.3993055959762626
353.32758600000005,,0.0004125940623343051,353.401,0.5389999747276306,-2.4279374605015196
353.793103,,0.000382467952969252,353.867,0.5690000057220459,-2.36281727619458
354.258621,,0.00034900515386336036,354.333,0.5379999876022339,-2.4305176418909693
354.72413800000004,,0.00031212669169249725,354.801,0.5360000133514404,-2.434956142769279
355.189655,,0.0002717587194198702,355.263,0.5540000200271606,-2.3957391487724946
355.655172,,0.0002278329473741922,355.726,0.550000011920929,-2.404369941689521
356.12069,,0.0001802871536989922,356.196,0.5630000233650208,-2.3758837895627773
356.586207,,0.000129065368808945,356.657,0.5419999957084656,-2.4213974295196654
357.05172400000004,,7.411760322418688e-05,357.12,0.578000009059906,-2.3426612346716222
357.517241,,1.539984431357975e-05,357.585,0.5709999799728394,-2.357549247171393
357.982759,,4.712483447380787e-05,358.051,0.5529999732971191,-2.3963559693839347
358.448276,,0.0001134848745805593,358.516,0.5789999961853027,-2.3392688663411363
358.913793,,0.00018370093804471842,358.982,0.5649999976158142,-2.3693080381252893
359.37931000000003,,0.00025778893993789423,359.448,0.5509999990463257,-2.399342137802681
359.844828,,0.0003357606643283961,359.912,0.5440000295639038,-2.414135922195215
360.310345,,0.00041761772698189884,360.378,0.5429999828338623,-2.4158828417945557
360.775862,,0.000503345261536863,360.845,0.5929999947547913,-2.306555763403552
361.241379,,0.0005929191306587726,361.311,0.5429999828338623,-2.4151418923420853
361.706897,,0.0006863245620193118,361.771,0.5540000200271606,-2.39088963243709
362.172414,,0.0007835561569010533,362.241,0.6499999761581421,-2.1815188856160734
362.63793100000004,,0.0008845796196975085,362.704,0.5730000138282776,-2.349124853138708
363.103448,,0.0009893013290535615,363.167,0.546999990940094,-2.4056962751207323
363.568966,,0.0010976229510519895,363.635,0.5659999847412109,-2.36430889751045
364.034483,,0.001209547841556294,364.097,0.550000011920929,-2.399254162730463
364.5,,0.0013251539693016796,364.562,0.5759999752044678,-2.3427730329902916
364.96551700000003,,0.0014443539494974906,365.026,0.5299999713897705,-2.443226117539502
365.431034,,0.0015667598014162327,365.492,0.5540000200271606,-2.3912383868221014
365.896552,,0.001692069073438313,365.96,0.5860000252723694,-2.321876086814355
366.362069,,0.0018206515926346666,366.425,0.5659999847412109,-2.3658456682679145
366.827586,,0.0019532242591899555,366.89,0.5370000004768372,-2.4294532146094063
367.29310300000003,,0.002089385917836635,367.356,0.5659999847412109,-2.366716987987071
367.758621,,0.0022271181996941477,367.816,0.5730000138282776,-2.3519142303448275
368.224138,,0.002365400938640919,368.286,0.5540000200271606,-2.3937453355538536
368.689655,,0.002507325827620309,368.749,0.5669999718666077,-2.3658355638729964
369.155172,,0.0026572032132545775,369.212,0.550000011920929,-2.4032483662968818
369.62068999999997,,0.0028118528138351495,369.675,0.6029999852180481,-2.2881070708878224
370.086207,,0.002959606669989953,370.144,0.5669999718666077,-2.3668058302685746
370.55172400000004,,0.0030974234063378342,370.61,0.5759999752044678,-2.347397848634934
371.017241,,0.003246591412230421,371.073,0.5490000247955322,-2.4063486741118716
371.482759,,0.003430065018045372,371.539,0.5640000104904175,-2.3737209302884446
371.948276,,0.003622097380617591,372.004,0.5809999704360962,-2.3366589375649576
372.413793,,0.003754667273691792,372.47,0.5540000200271606,-2.395381095266651
372.87931000000003,,0.0038261741866627203,372.93,0.5540000200271606,-2.3952078610010106
373.344828,,0.003974922400374449,373.396,0.5799999833106995,-2.3383236340081934
373.810345,,0.004314203885967099,373.864,0.5419999957084656,-2.4208141647977226
374.275862,,0.004649594241994256,374.329,0.5540000200271606,-2.394323769557995
374.741379,,0.0045927482125440395,374.79,0.5540000200271606,-2.3939400055487163
375.20689699999997,,0.004235085615105362,375.26,0.5619999766349792,-2.3761015838209345
375.672414,,0.004455967588294384,375.723,0.5540000200271606,-2.3931083894149037
376.137931,,0.005783334354981054,376.185,0.5669999718666077,-2.3643637543259985
376.603448,,0.0067853672007384975,376.653,0.5680000185966492,-2.3617753262164736
377.068966,,0.004822749868273739,377.115,0.5429999828338623,-2.415857298288134
377.53448299999997,,0.0005659726008384097,377.581,0.5690000057220459,-2.3588654850004755
378.0,,0.006187034293716941,378.045,0.5669999718666077,-2.362923418327959
378.465517,,0.00872350833807971,378.51,0.5659999847412109,-2.3648585965588302
378.931034,,0.008785787737319813,378.975,0.5669999718666077,-2.3624997710722813
379.396552,,0.009603812460488036,379.44,0.550000011920929,-2.3994252689560303
379.862069,,0.012538494397986865,379.905,0.5540000200271606,-2.390671571141442
380.327586,,0.01589190533930052,380.371,0.5709999799728394,-2.3536685766855854
380.79310300000003,,0.01783750445977277,380.838,0.5460000038146973,-2.4082400652030005
381.258621,,0.018765040558460244,381.304,0.5860000252723694,-2.321266950665298
381.724138,,0.020296293823699196,381.772,0.5920000076293945,-2.3084287609816188
382.189655,,0.02290071637180821,382.234,0.5540000200271606,-2.391504085572049
382.655172,,0.02510573397471325,382.697,0.5429999828338623,-2.415801474346535
383.12068999999997,,0.024791211937123338,383.167,0.5669999718666077,-2.3638818469658656
383.586207,,0.02076578993709826,383.627,0.5460000038146973,-2.4100253442413297
384.051724,,0.013137479057061616,384.097,0.574999988079071,-2.347248121207144
384.517241,,0.0028391213071443625,384.555,0.5879999995231628,-2.3193274658524374
384.982759,,0.008591625290829921,385.026,0.6370000243186951,-2.212959377858685
385.44827599999996,,0.01890280363858193,385.485,0.550000011920929,-2.40285948965374
385.913793,,0.025460630696172003,385.957,0.5540000200271606,-2.394465869168577
386.37931,,0.026267133666420004,386.415,0.5540000200271606,-2.3947422380420185
386.84482799999995,,0.021120909904472726,386.882,0.5709999799728394,-2.3579285330555155
387.310345,,0.012159949100687096,387.348,0.5540000200271606,-2.395128823907446
387.775862,,0.0030017638049157857,387.816,0.5809999704360962,-2.336404041058135
388.241379,,0.0035923980269488573,388.279,0.5339999794960022,-2.4388320362324243
388.70689699999997,,0.007722149477188425,388.742,0.5669999718666077,-2.366901050438805
389.172414,,0.011575730177808864,389.211,0.5709999799728394,-2.358084790647241
389.637931,,0.01623342871217479,389.675,0.546999990940094,-2.4102077436225904
390.103448,,0.0196795098443047,390.137,0.5270000100135803,-2.453559630718551
390.56896600000005,,0.018623984307230692,390.603,0.5709999799728394,-2.3574289566252045
391.03448299999997,,0.012143307562531697,391.065,0.5649999976158142,-2.3701887335540275
391.5,,0.002801023681157087,391.531,0.574999988079071,-2.3480570744003697
391.965517,,0.00599521663788914,391.997,0.5419999957084656,-2.4195850949577835
392.431034,,0.012942612374577332,392.463,0.5879999995231628,-2.3189890003514475
392.896552,,0.01863598289095212,392.928,0.5529999732971191,-2.3948637337954612
393.36206899999996,,0.023373722100714686,393.393,0.5440000295639038,-2.4141056088520148
393.827586,,0.02646185103017497,393.86,0.5429999828338623,-2.415942709244403
394.293103,,0.027371362821684512,394.326,0.5630000233650208,-2.3720621827880795
394.75862099999995,,0.02626481673560102,394.786,0.5669999718666077,-2.363082702191439
395.224138,,0.023298300908620447,395.256,0.5950000286102295,-2.3018645542471083
395.68965499999996,,0.018505523337573923,395.719,0.5299999713897705,-2.4433165273745696
396.155172,,0.012619849128373136,396.182,0.5540000200271606,-2.3909300137473335
396.62069,,0.007105405845224598,396.645,0.5649999976158142,-2.366930419951454
397.086207,,0.0029559924884841084,397.115,0.5809999704360962,-2.3321014768567787
397.551724,,3.356789667003912e-06,397.581,0.5680000185966492,-2.360515331815669
398.017241,,0.0023114028617382295,398.044,0.5519999861717224,-2.3955249056985317
398.48275900000004,,0.004010391523629933,398.51,0.5799999833106995,-2.3347289770468023
398.94827599999996,,0.0048229718667414994,398.974,0.5889999866485596,-2.315375171880226
399.413793,,0.004954650009970669,399.44,0.5879999995231628,-2.3178470136196236
399.87931,,0.005011507826049358,399.905,0.5540000200271606,-2.3922450709799
400.344828,,0.005179352346811597,400.371,0.5540000200271606,-2.3925914745755708
400.810345,,0.004954481516143834,400.831,0.5630000233650208,-2.3733425165426145
401.27586199999996,,0.0038671224641344732,401.297,0.5830000042915344,-2.330129538564054
401.741379,,0.0021979221133778502,401.76,0.5490000247955322,-2.4045536265005656
402.206897,,0.0007866663588706854,402.23,0.5529999732971191,-2.3961697560950657
402.672414,,0.00026195403912535254,402.69,0.5630000233650208,-2.374684862786699
403.137931,,0.0005515847996881458,403.16,0.5770000219345093,-2.3444469763259077
403.60344799999996,,0.000999208837916965,403.627,0.5669999718666077,-2.3664500247228553
404.068966,,0.0008658917138785411,404.089,0.550000011920929,-2.403650804198607
404.534483,,9.805481478776736e-05,404.555,0.5879999995231628,-2.3209687763927294
405.0,,0.0013659698883484233,405.02,0.5879999995231628,-2.321014083852157
405.465517,,0.001965548303855434,405.486,0.5640000104904175,-2.3732842475673173
405.931034,,0.0012941121864230686,405.945,0.5540000200271606,-2.394992479267468
406.39655200000004,,0.00026477926403274525,406.41,0.5540000200271606,-2.3948567971180688
406.862069,,0.0015521068170286625,406.876,0.5540000200271606,-2.394668116079948
407.327586,,0.001649883315023404,407.342,0.5669999718666077,-2.3661096444157295
407.793103,,0.0008448945678741587,407.812,0.5299999713897705,-2.4464434325836764
408.258621,,0.0003899272607003852,408.275,0.5540000200271606,-2.3938483916429307
408.72413800000004,,0.0010598199983691827,408.738,0.5789999961853027,-2.3390522062748236
409.18965499999996,,0.0022076242075771794,409.2,0.5879999995231628,-2.3190999028209474
409.655172,,0.002682646228532173,409.668,0.5830000042915344,-2.329643708791714
410.12069,,0.0024084930215756855,410.13,0.5770000219345093,-2.342371636081237
410.586207,,0.0023451937756264205,410.595,0.5669999718666077,-2.3638305122900998
411.05172400000004,,0.002968003907402206,411.066,0.5789999961853027,-2.3373851314778125
411.51724099999996,,0.003621608569861441,411.531,0.5830000042915344,-2.3284037734810115
411.982759,,0.0035493392723956485,411.992,0.5669999718666077,-2.363038122644815
412.448276,,0.00279485600034263,412.458,0.5649999976158142,-2.3672211086619335
412.913793,,0.0017977504901301557,412.923,0.5690000057220459,-2.358387561132444
413.37931,,0.0007735894672624883,413.388,0.5460000038146973,-2.4084367186537303
413.844828,,8.507753453222255e-05,413.856,0.5460000038146973,-2.408438608054283
414.31034500000004,,0.00028462172411405624,414.315,0.5669999718666077,-2.3627504908175685
414.775862,,0.0005138460326895089,414.782,0.5630000233650208,-2.3715872493051617
415.241379,,0.001803619383430725,415.245,0.5270000100135803,-2.450196390347164
415.706897,,0.002504107943784149,415.716,0.5299999713897705,-2.4438896271091752
416.172414,,0.002176492697597758,416.178,0.5730000138282776,-2.3504807791508755
416.63793100000004,,0.001686671166472701,416.646,0.5709999799728394,-2.3551453358860233
417.103448,,0.0022730817903978038,417.108,0.5920000076293945,-2.30972431274736
417.568966,,0.004046008219315999,417.573,0.5680000185966492,-2.362355668481798
418.034483,,0.00582911741355794,418.038,0.5799999833106995,-2.336558777656101
418.5,,0.00659271811763012,418.503,0.5759999752044678,-2.34561291009272
418.96551700000003,,0.006687186114014046,418.968,0.5540000200271606,-2.3938655217827782
419.43103399999995,,0.007340291949631209,419.434,0.5529999732971191,-2.3963409624477614
419.896552,,0.009045017993799618,419.9,0.5659999847412109,-2.36828088762876
420.362069,,0.010786066615727865,420.366,0.5759999752044678,-2.346714122451974
420.827586,,0.011030379115894334,420.831,0.5529999732971191,-2.3969934666938166
421.293103,,0.009407083351391645,421.29,0.5540000200271606,-2.394931550498555
421.758621,,0.007269788851439289,421.76,0.5690000057220459,-2.3623118943795167
422.22413800000004,,0.006520026479803566,422.222,0.5320000052452087,-2.442923664797967
422.689655,,0.007868212027500966,422.69,0.5450000166893005,-2.4145455966006226
423.15517200000005,,0.010211940177612401,423.152,0.49000000953674316,-2.534261359227771
423.62069,,0.01155058517522134,423.619,0.5799999833106995,-2.3380220950744763
424.086207,,0.010455762567035457,424.084,0.5960000157356262,-2.302953916862661
424.55172400000004,,0.007012930370718015,424.55,0.5680000185966492,-2.363701966906582
425.017241,,0.0027461329360579678,425.015,0.5669999718666077,-2.365590514968636
425.482759,,0.0004852379216109795,425.481,0.5699999928474426,-2.3587374058706945
425.948276,,0.0019215447161279465,425.946,0.5799999833106995,-2.336616108687831
426.413793,,0.0023708399547461663,426.412,0.5540000200271606,-2.3929184636852385
426.87931000000003,,0.0032006073780699706,426.871,0.5830000042915344,-2.329398130380124
427.344828,,0.004978523334648713,427.337,0.5479999780654907,-2.4053245405038846
427.810345,,0.007145015332482159,427.804,0.5690000057220459,-2.3592698415047013
428.275862,,0.00875374723701348,428.267,0.5789999961853027,-2.3372125344472603
428.741379,,0.009403719313382969,428.735,0.5669999718666077,-2.3631253347858414
429.20689699999997,,0.00970580273192376,429.197,0.578000009059906,-2.3389759099750096
429.672414,,0.010857477052638087,429.66,0.5929999947547913,-2.306163984451609
430.137931,,0.013264737758444096,430.13,0.550000011920929,-2.399769749586585
430.603448,,0.015496166858531902,430.595,0.5529999732971191,-2.3932175697435087
431.068966,,0.015365784239265918,431.058,0.5789999961853027,-2.3366169443154554
431.534483,,0.012472508610296001,431.523,0.593999981880188,-2.3040396299420003
432.0,,0.008979395259963826,431.989,0.5540000200271606,-2.391342740650458
432.46551700000003,,0.007295990369249438,432.455,0.5879999995231628,-2.3174767579951068
432.931034,,0.0074694091590294465,432.92,0.5899999737739563,-2.313371708666537
433.396552,,0.007341665656624582,433.385,0.5789999961853027,-2.3376252040935643
433.862069,,0.004832775924504587,433.85,0.5659999847412109,-2.3662643960011014
434.327586,,0.0003461478848035022,434.315,0.5709999799728394,-2.355707452237985
434.79310300000003,,0.006796599320707351,434.778,0.5540000200271606,-2.3930906602375495
435.258621,,0.012782057884714164,435.241,0.5519999861717224,-2.3977945188958736
435.724138,,0.01763820972458609,435.711,0.5910000205039978,-2.3131631141222253
436.189655,,0.021938773520172594,436.174,0.5720000267028809,-2.3548717375677004
436.655172,,0.026052086875886157,436.638,0.5809999704360962,-2.335546941937993
437.12068999999997,,0.028701400669650927,437.1,0.5669999718666077,-2.3662912820744295
437.586207,,0.027420205145836894,437.566,0.5770000219345093,-2.344701026701008
438.051724,,0.020458206164550817,438.031,0.5659999847412109,-2.3688097604551515
438.517241,,0.00802579015617566,438.496,0.5080000162124634,-2.495258871350458
438.982759,,0.00805693827522191,438.96,0.5630000233650208,-2.375463189895655
439.448276,,0.02532097013833539,439.425,0.550000011920929,-2.403756282542895
439.913793,,0.04116530330924845,439.89,0.5419999957084656,-2.421096847909937
440.37931000000003,,0.05318400751246633,440.356,0.550000011920929,-2.4035223101445355
440.844828,,0.059912154807377355,440.823,0.5659999847412109,-2.3684654981476894
441.310345,,0.06141419166099611,441.289,0.5889999866485596,-2.3181092320249768
441.775862,,0.058699955368574835,441.756,0.5649999976158142,-2.370106916539671
442.241379,,0.05252420568676269,442.219,0.5929999947547913,-2.3087806357245
442.70689699999997,,0.043164246165217225,442.686,0.5929999947547913,-2.308431177559188
443.172414,,0.03132307847802786,443.148,0.574999988079071,-2.3472822434403717
443.637931,,0.01870237629567865,443.614,0.5989999771118164,-2.294626039683202
444.103448,,0.007382640409029082,444.078,0.5540000200271606,-2.392303967703073
444.568966,,0.001373783096600533,444.544,0.574999988079071,-2.3462105681066956
445.03448299999997,,0.007823558495251643,445.008,0.5899999737739563,-2.3132187238659743
445.5,,0.013336675967741648,445.474,0.5440000295639038,-2.413163681179567
445.965517,,0.019068603234813415,445.938,0.5540000200271606,-2.391153653270904
446.431034,,0.024765078122074617,446.404,0.5669999718666077,-2.3626643990259906
446.896552,,0.028912846360295046,446.871,0.5640000104904175,-2.369094821955902
447.36206899999996,,0.030252632103633256,447.337,0.5540000200271606,-2.390840995189847
447.827586,,0.029140700516894297,447.8,0.5720000267028809,-2.3516518654126792
448.29310300000003,,0.027257730715268307,448.263,0.5540000200271606,-2.3909604494680137
448.758621,,0.02594491415191083,448.731,0.5440000295639038,-2.412904197523952
449.224138,,0.02498932922328569,449.193,0.5789999961853027,-2.3368688289066726
449.689655,,0.02314279451989842,449.661,0.5669999718666077,-2.363282740110014
450.155172,,0.019695660440512876,450.123,0.5630000233650208,-2.3723119784443574
450.62068999999997,,0.015326985648247643,450.589,0.5759999752044678,-2.344339843959601
451.086207,,0.011370045673789998,451.052,0.5920000076293945,-2.3098558246904286
451.551724,,0.008456138817759338,451.518,0.5709999799728394,-2.3559944761584246
452.017241,,0.006168769209576215,451.983,0.5929999947547913,-2.308452031054404
452.482759,,0.0040497448114046606,452.448,0.5730000138282776,-2.352401963175776
452.94827599999996,,0.002583721682481917,452.915,0.5720000267028809,-2.354935606674502
453.413793,,0.0028397029578571768,453.381,0.5699999928474426,-2.35961566668285
453.87931,,0.005192984393817941,453.846,0.5529999732971191,-2.396933620043861
454.344828,,0.008678574081928245,454.311,0.5540000200271606,-2.394985894782124
454.810345,,0.01173828939513154,454.772,0.5540000200271606,-2.3951600974046476
455.27586199999996,,0.013618785207440287,455.235,0.578000009059906,-2.3429838399982756
455.741379,,0.015049992184614763,455.705,0.5540000200271606,-2.3953155862784956
456.206897,,0.017454454636560427,456.167,0.5720000267028809,-2.356075315747901
456.672414,,0.02136721553208508,456.63,0.5540000200271606,-2.395198105986435
457.137931,,0.02575702423629235,457.1,0.5669999718666077,-2.366716979199359
457.603448,,0.0290542125658368,457.566,0.5649999976158142,-2.3708538014528204
458.06896600000005,,0.030532599758394285,458.031,0.5669999718666077,-2.3662205563019185
458.53448299999997,,0.030183168912622214,458.497,0.5770000219345093,-2.3441101199034273
459.0,,0.027458878342116067,458.956,0.5690000057220459,-2.3611769030377467
459.465517,,0.021091274558662918,459.422,0.5799999833106995,-2.336821389039071
459.931034,,0.010581996990470645,459.887,0.578000009059906,-2.340771676753478
460.39655200000004,,0.002696883843060202,460.352,0.5709999799728394,-2.3556110640668373
460.86206899999996,,0.01632959017684714,460.815,0.5669999718666077,-2.3639230649021785
461.327586,,0.0283234317223699,461.285,0.5699999928474426,-2.3570056188875435
461.793103,,0.037344202117074815,461.749,0.5920000076293945,-2.308726334603177
462.258621,,0.042112377417221875,462.211,0.5540000200271606,-2.3912091998083587
462.724138,,0.041608551643257545,462.675,0.5929999947547913,-2.305989275583002
463.18965499999996,,0.03619106285967958,463.145,0.5690000057220459,-2.358085100843047
463.655172,,0.028008705108286607,463.61,0.5540000200271606,-2.3906407684374744
464.12069,,0.01976924574727151,464.073,0.5659999847412109,-2.3644457885722288
464.58620699999994,,0.0129601841172713,464.538,0.574999988079071,-2.344861193235167
465.051724,,0.007300321442628028,465.004,0.5400000214576721,-2.4212115211567067
465.517241,,0.001850069817353928,465.47,0.5929999947547913,-2.305912936148066
465.98275900000004,,0.003485560234969003,465.93,0.5540000200271606,-2.3911167386494427
466.448276,,0.007669029242402374,466.396,0.5630000233650208,-2.371805700102461
466.913793,,0.009745158118779934,466.86,0.47600001096725464,-2.5616986186162944
467.37931,,0.010082240521921835,467.326,0.550000011920929,-2.4008738139992536
467.844828,,0.010029755127796794,467.793,0.5669999718666077,-2.3642634653028365
468.31034500000004,,0.010341706390815579,468.256,0.5669999718666077,-2.3647062884559094
468.77586199999996,,0.010303278280868003,468.727,0.5830000042915344,-2.3302925568207735
469.241379,,0.008597429115667285,469.189,0.5490000247955322,-2.4047994334810623
469.706897,,0.004898875292541528,469.653,0.5789999961853027,-2.3398478854652005
470.172414,,0.000525250726475712,470.115,0.5690000057220459,-2.3620041394734916
470.63793100000004,,0.00249836046676741,470.581,0.5929999947547913,-2.31003596545595
471.10344799999996,,0.00323416175588639,471.052,0.5929999947547913,-2.3102940941832277
471.568966,,0.002984927038320157,471.51,0.574999988079071,-2.349698306400737
472.034483,,0.004617786251084419,471.975,0.5640000104904175,-2.373777086530693
472.5,,0.010355248354720521,472.44,0.5640000104904175,-2.373812921952931
472.965517,,0.01986282176896486,472.905,0.5630000233650208,-2.375948364795538
473.43103399999995,,0.030378294188818877,473.371,0.5770000219345093,-2.3453259027426414
473.89655200000004,,0.038716404154362394,473.835,0.5630000233650208,-2.3756306293766714
474.362069,,0.043113933769822754,474.3,0.5929999947547913,-2.3100053624737638
474.827586,,0.0432615626958725,474.771,0.515999972820282,-2.477434605719214
475.293103,,0.039211959584117814,475.233,0.5680000185966492,-2.3637682266262203
475.758621,,0.031092264126653786,475.701,0.5699999928474426,-2.3589956065607955
476.22413800000004,,0.019980675869516844,476.164,0.5540000200271606,-2.3934115732109458
476.689655,,0.008328392775276817,476.627,0.5450000166893005,-2.4125643023838297
477.155172,,0.0012013951401103411,477.097,0.5680000185966492,-2.362001609989259
477.62069,,0.0074282516556042014,477.555,0.5649999976158142,-2.3680984829244585
478.086207,,0.010957549481677237,478.026,0.5720000267028809,-2.3524364432616554
478.55172400000004,,0.012830075101783023,478.485,0.5759999752044678,-2.3433506472393137
479.01724099999996,,0.01338573607937619,478.952,0.5669999718666077,-2.3626387410887104
479.482759,,0.012775730428648881,479.418,0.5669999718666077,-2.3623808297647075
479.948276,,0.011953593737530488,479.883,0.5659999847412109,-2.364371754023435
480.413793,,0.012157080589034757,480.348,0.5419999957084656,-2.4165483793939972
480.87931000000003,,0.01337433542993757,480.815,0.5419999957084656,-2.416518847897933
481.344828,,0.014208418303863497,481.278,0.5460000038146973,-2.4078576761257526
481.810345,,0.013648161110222967,481.741,0.5669999718666077,-2.3622405976767595
482.275862,,0.01231670389623997,482.211,0.5540000200271606,-2.3907739330278646
482.74137900000005,,0.01142848191197659,482.675,0.5540000200271606,-2.391055255160826
483.206897,,0.011079521531299864,483.137,0.5669999718666077,-2.363076087824707
483.672414,,0.010409582100178005,483.604,0.5699999928474426,-2.3569341553332914
484.13793100000004,,0.009163662111226982,484.067,0.574999988079071,-2.3464734271632275
484.603448,,0.008071651453555026,484.532,0.5789999961853027,-2.338216256342292
485.068966,,0.007615426588329478,484.997,0.5929999947547913,-2.30818307997537
485.534483,,0.007412961736159036,485.462,0.5630000233650208,-2.3740065502937635
486.0,,0.007173911324488122,485.927,0.6660000085830688,-2.1500506880737325
486.46551700000003,,0.007418596129023607,486.393,0.5649999976158142,-2.37050524218123
486.931034,,0.008644603339135765,486.86,0.5540000200271606,-2.3948368957568085
487.396552,,0.010228507393098397,487.326,0.5820000171661377,-2.3341475967478047
487.862069,,0.010715643180411403,487.787,0.550000011920929,-2.404113855444192
488.327586,,0.009162862804325584,488.256,0.5460000038146973,-2.4130077047866125
488.79310300000003,,0.006046227397890612,488.719,0.5540000200271606,-2.395682564454999
489.258621,,0.0029352824293747497,489.181,0.550000011920929,-2.404422675254894
489.724138,,0.0012749894150989652,489.649,0.5709999799728394,-2.358616646305868
490.189655,,0.001278472879420523,490.112,0.5460000038146973,-2.4129495621510553
490.655172,,0.001912473243933295,490.577,0.5709999799728394,-2.3582751616386792
491.12069,,0.0020392843775293144,491.041,0.550000011920929,-2.4037494882981454
491.586207,,0.001536233542897363,491.507,0.5960000157356262,-2.303192919964268
492.05172400000004,,0.00116253882654952,491.972,0.5920000076293945,-2.3115161127385444
492.517241,,0.0014744018964871653,492.438,0.5540000200271606,-2.393872251534129
492.982759,,0.002266484054987369,492.905,0.5720000267028809,-2.3541970794014357
493.448276,,0.0031144209212946253,493.371,0.5669999718666077,-2.364617959059773
493.913793,,0.003937490269184499,493.831,0.5879999995231628,-2.3183944807793244
494.37931000000003,,0.00466200476241616,494.296,0.5460000038146973,-2.409441047724695
494.844828,,0.004764729184894232,494.76,0.5879999995231628,-2.317510479970766
495.310345,,0.003829489739955138,495.23,0.574999988079071,-2.34544753151727
495.775862,,0.0024402913005138367,495.69,0.5789999961853027,-2.336400869858774
496.241379,,0.0017445378493565256,496.16,0.5630000233650208,-2.3709912021333595
496.70689699999997,,0.0019236153072728537,496.63,0.5540000200271606,-2.3904041960598166
497.172414,,0.0017919327056932412,497.085,0.5419999957084656,-2.4164333813919403
497.637931,,0.0003111626534296009,497.551,0.5640000104904175,-2.3684725629037793
498.103448,,0.0020530873807716584,498.016,0.546999990940094,-2.405564184637045
498.568966,,0.0039806557635183246,498.482,0.5789999961853027,-2.3359851724894884
499.03448299999997,,0.004972551533888317,498.949,0.546999990940094,-2.4059186989145043
499.5,,0.0059365519722525285,499.415,0.5789999961853027,-2.3364912101709256
499.96551700000003,,0.008179702433706295,499.879,0.5820000171661377,-2.3303077876215514
500.431034,,0.011978763551898345,500.345,0.550000011920929,-2.4004297414448668
500.89655200000004,,0.016043458527899904,500.808,0.5669999718666077,-2.363839201714548
501.362069,,0.018366399496403993,501.27,0.5490000247955322,-2.403529257972789
501.827586,,0.01778933527329467,501.738,0.5540000200271606,-2.393124471408393
502.293103,,0.014833651256709207,502.201,0.5709999799728394,-2.356574907425801
502.758621,,0.011046328419191707,502.671,0.5889999866485596,-2.317829581280767
503.224138,,0.007729052975004683,503.133,0.5669999718666077,-2.3661982911209094
503.68965499999996,,0.005308462624776745,503.599,0.5540000200271606,-2.3949143453440103
504.15517200000005,,0.0035247152173788336,504.063,0.5929999947547913,-2.310284204485367
504.62068999999997,,0.001938127620521088,504.528,0.550000011920929,-2.404235811995024
505.08620699999994,,0.0004309784970391086,504.993,0.6079999804496765,-2.2780679994559923
505.55172400000004,,0.0006589437051286778,505.459,0.550000011920929,-2.4045410887136573
506.017241,,0.0010754800155421587,505.923,0.550000011920929,-2.404567875941596
506.48275899999993,,0.0012186378502421127,506.388,0.5640000104904175,-2.374008720239015
506.948276,,0.0017261540907366967,506.853,0.5419999957084656,-2.4217975801782146
507.413793,,0.0024353913752291046,507.319,0.5920000076293945,-2.3126439697948693
507.87931,,0.002307553333506579,507.782,0.5699999928474426,-2.3602789578211456
508.344828,,0.0007275636618763702,508.252,0.5929999947547913,-2.309808742059491
508.810345,,0.0014128352761285264,508.712,0.5540000200271606,-2.3943599092667287
509.27586199999996,,0.002381440968337665,509.182,0.5680000185966492,-2.3634012406420353
509.74137900000005,,0.0014360731630760778,509.642,0.5659999847412109,-2.367273649214661
510.20689699999997,,0.0002677687372796805,510.112,0.5490000247955322,-2.403813101931726
510.67241399999995,,0.0007947500494218507,510.57,0.5440000295639038,-2.4142121913911323
511.13793100000004,,0.0006461511978627296,511.037,0.5889999866485596,-2.3156969543890895
511.603448,,0.0030582166106060097,511.503,0.5540000200271606,-2.391505067376257
512.0689659999999,,0.004808343410321356,511.968,0.5809999704360962,-2.332282205039739
512.534483,,0.005072658259631382,512.434,0.5440000295639038,-2.4125503142317477
513.0,,0.004019525265006878,512.9,0.5669999718666077,-2.3621683272439653
513.465517,,0.0019796271965120773,513.366,0.6050000190734863,-2.279182523817817
513.931034,,0.0009169916019190704,513.831,0.5690000057220459,-2.3574980141307806
514.396552,,0.004182611283674325,514.29,0.5669999718666077,-2.3618250059655415
514.862069,,0.006727894179363757,514.76,0.5519999861717224,-2.3945620687994054
515.327586,,0.007772570971249135,515.223,0.5519999861717224,-2.394706267516882
515.793103,,0.007775992726105209,515.686,0.5820000171661377,-2.3295733281119473
516.258621,,0.007923991459832098,516.156,0.550000011920929,-2.3995919161419845
516.724138,,0.008737248567176864,516.627,0.5270000100135803,-2.4500699205535073
517.189655,,0.00968187684800654,517.082,0.5009999871253967,-2.5071420316896846
517.655172,,0.010279086852662564,517.547,0.593999981880188,-2.3049996437449476
518.1206900000001,,0.011184346415167414,518.011,0.5090000033378601,-2.490685710798529
518.5862070000001,,0.013807515770346468,518.477,0.5820000171661377,-2.3321588422494153
519.051724,,0.018880342702865194,518.942,0.5529999732971191,-2.3958514797301667
519.517241,,0.025532897231716464,519.408,0.5929999947547913,-2.3091974868927068
519.982759,,0.0318415109481853,519.876,0.5460000038146973,-2.412051017068891
520.448276,,0.0363379302069176,520.341,0.5640000104904175,-2.373243888907632
520.9137929999999,,0.03896926375123291,520.804,0.5860000252723694,-2.325660803541337
521.37931,,0.04039422304080765,521.267,0.5929999947547913,-2.3106841295228495
521.844828,,0.040233047619234415,521.73,0.5929999947547913,-2.3108753313534764
522.310345,,0.03633048957795869,522.2,0.574999988079071,-2.3501939282302176
522.7758620000001,,0.02625756319992557,522.664,0.574999988079071,-2.3502060477102944
523.241379,,0.009683523055940545,523.126,0.5709999799728394,-2.3588420946450857
523.7068969999999,,0.010877348844902724,523.592,0.5540000200271606,-2.3957127392117266
524.172414,,0.03150347297763466,524.055,0.5669999718666077,-2.36714200823394
524.637931,,0.04875811291519403,524.52,0.546999990940094,-2.4103923584236324
525.103448,,0.06057370897367087,524.986,0.5879999995231628,-2.320680615361178
525.568966,,0.06629644629665431,525.452,0.6119999885559082,-2.2679517486148173
526.034483,,0.06648077946880837,525.916,0.6110000014305115,-2.26964682878931
526.5,,0.062470354951427436,526.382,0.5789999961853027,-2.3388530214488643
526.9655170000001,,0.05578261755810047,526.849,0.593999981880188,-2.305652495573015
527.4310340000001,,0.04766800414534715,527.314,0.6200000047683716,-2.2484923259837513
527.8965519999999,,0.03909111792137981,527.775,0.5770000219345093,-2.3416802226080904
528.362069,,0.030909164996043712,528.244,0.5929999947547913,-2.3063655102062177
528.827586,,0.023781330482103204,528.705,0.5960000157356262,-2.2994252648026023
529.293103,,0.017681042753369538,529.174,0.5799999833106995,-2.3339442734495814
529.7586210000001,,0.011620275343173534,529.635,0.6340000033378601,-2.21603284187347
530.224138,,0.0043606282874489215,530.105,0.6069999933242798,-2.274674446535476
530.689655,,0.00416163013709918,530.57,0.5989999771118164,-2.2920102270614846
531.155172,,0.012181360207764846,531.035,0.5879999995231628,-2.315974630634954
531.62069,,0.01731567992516305,531.5,0.6190000176429749,-2.2485288866542987
532.086207,,0.018673706778663927,531.967,0.6079999804496765,-2.272676361114208
532.5517239999999,,0.017552034430440573,532.425,0.6069999933242798,-2.275121588090801
533.017241,,0.015900104322427937,532.89,0.609000027179718,-2.2711074266731313
533.482759,,0.014479261436534668,533.356,0.6190000176429749,-2.2497301716557296
533.9482760000001,,0.012877952020182267,533.82,0.5929999947547913,-2.3068379657298186
534.413793,,0.010933261764535457,534.286,0.6480000019073486,-2.187514375090854
534.87931,,0.009403624898634525,534.756,0.6190000176429749,-2.2512201520824875
535.344828,,0.009121200692622202,535.218,0.6579999923706055,-2.166783933437128
535.810345,,0.009959914830333955,535.686,0.6610000133514404,-2.160767776849601
536.275862,,0.010930861746749482,536.149,0.6269999742507935,-2.23533442673896
536.7413789999999,,0.011155447278752593,536.615,0.6449999809265137,-2.1965696874730227
537.206897,,0.01060356999863503,537.078,0.6389999985694885,-2.2100372710049845
537.672414,,0.00995500715016595,537.544,0.6470000147819519,-2.192936186414235
538.137931,,0.009866198741176545,538.009,0.6570000052452087,-2.171399898073209
538.6034480000001,,0.010406759929426178,538.475,0.6449999809265137,-2.197708065881597
539.0689659999999,,0.011133478754503849,538.941,0.6230000257492065,-2.245712443474349
539.5344829999999,,0.011568964352045604,539.4,0.625,-2.241338087186485
540.0,,0.011535627212974464,539.871,0.6589999794960022,-2.167155924260276
540.465517,,0.011119943011997722,540.336,0.6309999823570251,-2.2279615089640448
540.931034,,0.010452342254347838,540.797,0.6909999847412109,-2.096962855913976
541.396552,,0.00952832486987521,541.267,0.6579999923706055,-2.1685029868623458
541.862069,,0.008176047991890272,541.727,0.6679999828338623,-2.146296569334771
542.327586,,0.006243179295533078,542.196,0.6930000185966492,-2.0913584442543485
542.7931030000001,,0.003929880514071532,542.657,0.6819999814033508,-2.114813731910259
543.258621,,0.001872213506322732,543.127,0.6470000147819519,-2.1905348340294606
543.7241379999999,,0.000643151647144591,543.585,0.7020000219345093,-2.070173053314179
544.189655,,0.00010464176375673333,544.05,0.6060000061988831,-2.2788000231451617
544.655172,,0.00047125573643981214,544.516,0.6949999928474426,-2.0844068364325614
545.12069,,0.0014832119769523288,544.983,0.656000018119812,-2.1689252670385404
545.5862070000001,,0.0024681903717927497,545.449,0.6489999890327454,-2.1837856207653545
546.051724,,0.0026807023255325585,545.915,0.675000011920929,-2.1268217535710083
546.517241,,0.001958897967649599,546.381,0.6449999809265137,-2.191943396042548
546.982759,,0.0008430665927650148,546.845,0.6460000276565552,-2.189615858586219
547.448276,,0.00010875464424330409,547.311,0.6679999828338623,-2.141630776303659
547.9137929999999,,0.00034248580516385455,547.772,0.6620000004768372,-2.154742605063139
548.3793099999999,,0.0016188115065459304,548.241,0.6740000247955322,-2.128731932616086
548.844828,,0.0032821773305717096,548.704,0.6700000166893005,-2.1376684986812227
549.310345,,0.0042737224558648985,549.167,0.6869999766349792,-2.100934976311399
549.775862,,0.004025347008213874,549.631,0.6880000233650208,-2.0991311230501624
550.241379,,0.0030116761302984986,550.1,0.6690000295639038,-2.1409601985759954
550.706897,,0.0022243218890086475,550.566,0.7210000157356262,-2.028151355777799
551.172414,,0.0021076631118129357,551.031,0.7210000157356262,-2.0286619551235483
551.637931,,0.002154546895838004,551.497,0.6579999923706055,-2.1664417462382666
552.103448,,0.001546640110925388,551.956,0.6610000133514404,-2.160431072454182
552.568966,,3.032278315366951e-05,552.422,0.7039999961853027,-2.0672591813227656
553.034483,,0.0019000985505901906,552.886,0.6539999842643738,-2.176669978866726
553.5,,0.0035162026086584617,553.351,0.7229999899864197,-2.0267749299478375
553.965517,,0.004366313401774155,553.815,0.7260000109672546,-2.0206092428390656
554.4310340000001,,0.004327797879382891,554.285,0.6589999794960022,-2.166876247897779
554.896552,,0.003437014373119832,554.745,0.6579999923706055,-2.1692729295775672
555.3620689999999,,0.0019809846862077576,555.215,0.5669999718666077,-2.3676651667125554
555.827586,,0.0007739876024093257,555.675,0.6959999799728394,-2.086668441421158
556.293103,,0.0009075594176491098,556.145,0.6700000166893005,-2.1432719557887068
556.758621,,0.0027884592157904836,556.61,0.6629999876022339,-2.158390717601861
557.224138,,0.005553041572046534,557.073,0.7350000143051147,-2.001308746455132
557.689655,,0.007838139209307137,557.539,0.6579999923706055,-2.1687636992980774
558.155172,,0.009062907856432607,558.004,0.6700000166893005,-2.142247239148724
558.6206900000001,,0.009517390500085392,558.47,0.722000002861023,-2.0285246723034427
559.0862070000001,,0.00922591436082153,558.93,0.6819999814033508,-2.115189370939961
559.5517239999999,,0.007343478955530701,559.396,0.6570000052452087,-2.1691414479964437
560.017241,,0.0030210546330142578,559.861,0.6240000128746033,-2.2405080144433147
560.482759,,0.003424784035246235,560.327,0.6520000100135803,-2.1789796064507376
560.948276,,0.01047159449275292,560.79,0.6620000004768372,-2.1566849158358696
561.413793,,0.01640569234957844,561.26,0.6439999938011169,-2.1954252847688007
561.87931,,0.02038862183261197,561.723,0.6449999809265137,-2.192819085449379
562.344828,,0.02276190453098557,562.185,0.7070000171661377,-2.0573749788949613
562.8103450000001,,0.024245717119512924,562.653,0.703000009059906,-2.065790443300443
563.275862,,0.024619267705069475,563.116,0.6489999890327454,-2.18321607273928
563.7413789999999,,0.022469756039755234,563.582,0.6700000166893005,-2.137329033466862
564.206897,,0.016726885532659122,564.045,0.625,-2.2353242774008546
564.672414,,0.008277900104476005,564.51,0.6320000290870667,-2.2201235001297213
565.137931,,0.0005117544021492332,564.975,0.6330000162124634,-2.218087541698257
565.603448,,0.007916153787365014,565.44,0.6499999761581421,-2.181281138363557
566.068966,,0.014069702355399432,565.905,0.6579999923706055,-2.1641623457652455
566.534483,,0.020107590512233722,566.371,0.6650000214576721,-2.1492916719769997
567.0,,0.02655850525755477,566.838,0.6539999842643738,-2.1736943647508737
567.465517,,0.03256547858681408,567.304,0.5540000200271606,-2.3920428699080554
567.931034,,0.03610326202464886,567.767,0.625,-2.2378763356297653
568.396552,,0.03481806969648505,568.237,0.6660000085830688,-2.1490854379047697
568.862069,,0.027293479505742162,568.697,0.6449999809265137,-2.1953679887392608
569.327586,,0.014108341613026393,569.167,0.6579999923706055,-2.1675567442229777
569.793103,,0.0022285165289108663,569.627,0.6140000224113464,-2.2638936700514583
570.2586210000001,,0.018444123921562458,570.09,0.6570000052452087,-2.170639220414602
570.724138,,0.03177240346428179,570.555,0.6060000061988831,-2.2821156506262166
571.189655,,0.040629281648117445,571.02,0.6209999918937683,-2.2497286088401465
571.655172,,0.044741891489867715,571.486,0.6209999918937683,-2.2499398617256263
572.12069,,0.044877059620834325,571.952,0.6240000128746033,-2.243526704000668
572.586207,,0.042192308555133645,572.418,0.6179999709129333,-2.25662915091736
573.051724,,0.03756991763388503,572.883,0.6110000014305115,-2.27181689099696
573.517241,,0.031494069035397435,573.349,0.6019999980926514,-2.2912710843310045
573.982759,,0.024395123015518248,573.812,0.6240000128746033,-2.243100765989465
574.4482760000001,,0.016764053484062274,574.282,0.6110000014305115,-2.2711036321905844
574.913793,,0.008866269013587532,574.745,0.6190000176429749,-2.2532847485692837
575.37931,,0.0007320465270754019,575.208,0.5820000171661377,-2.333447480744236
575.844828,,0.007322057124879226,575.671,0.597000002861023,-2.30027735840954
576.310345,,0.014500921193999804,576.141,0.5950000286102295,-2.3041160972817583
576.775862,,0.020258639702967374,576.607,0.597000002861023,-2.2992277346802634
577.241379,,0.024934034899280044,577.069,0.5910000205039978,-2.31177202897521
577.706897,,0.02898657497237945,577.535,0.6100000143051147,-2.269869527253768
578.172414,,0.03155033942857261,578.0,0.625,-2.2367155598100323
578.6379310000001,,0.03045305246180263,578.465,0.6190000176429749,-2.2493606942488236
579.1034480000001,,0.024163753796055672,578.93,0.6060000061988831,-2.277317197993854
579.5689659999999,,0.013552832243323197,579.395,0.6159999966621399,-2.2552371824892616
580.034483,,0.0015248400692264956,579.86,0.6019999980926514,-2.285526356853575
580.5,,0.008910180464783677,580.326,0.550000011920929,-2.398693745823977
580.965517,,0.016114012284239337,580.786,0.6119999885559082,-2.263589712800819
581.431034,,0.019824396805627465,581.256,0.5809999704360962,-2.3311947627388747
581.896552,,0.02035080010514679,581.719,0.5929999947547913,-2.3052103518837495
582.362069,,0.01808597760652399,582.182,0.5690000057220459,-2.357745684327133
582.827586,,0.013674145269345765,582.645,0.6230000257492065,-2.240426843017464
583.2931030000001,,0.008297239220664587,583.115,0.5709999799728394,-2.354114848646116
583.758621,,0.003397683459290523,583.581,0.597000002861023,-2.297926245670846
584.2241379999999,,0.0001494439778781936,584.045,0.5540000200271606,-2.3921094835327392
584.689655,,0.002543091271767122,584.511,0.5830000042915344,-2.329460279771812
585.155172,,0.004539168616468972,584.975,0.5709999799728394,-2.3561495228866463
585.6206900000001,,0.006488128893971521,585.441,0.578000009059906,-2.3414410508618517
586.0862070000001,,0.008123407308358468,585.9,0.5770000219345093,-2.3441417282055306
586.551724,,0.009227637453108105,586.366,0.5540000200271606,-2.3947367508378345
587.017241,,0.010137859561468838,586.831,0.6140000224113464,-2.264452494273288
587.482759,,0.011402178802764933,587.297,0.5669999718666077,-2.367217878467179
587.948276,,0.01302172258307448,587.76,0.5540000200271606,-2.395832305735119
588.4137929999999,,0.014193203862026499,588.23,0.550000011920929,-2.4047545163519373
588.87931,,0.01403821232044343,588.69,0.5860000252723694,-2.3264392136415397
589.344828,,0.01277070961314203,589.16,0.5699999928474426,-2.3613173595506636
589.810345,,0.011923989135304007,589.63,0.5419999957084656,-2.422242278920727
590.2758620000001,,0.012973149134504695,590.085,0.5720000267028809,-2.3567113296738817
590.741379,,0.015675118140850562,590.551,0.5669999718666077,-2.3673435259794067
591.2068969999999,,0.018126428081631292,591.015,0.5730000138282776,-2.353927786967352
591.672414,,0.01862623570518952,591.481,0.5649999976158142,-2.370940948427372
592.137931,,0.017307365739876884,591.946,0.5540000200271606,-2.394430573814207
592.603448,,0.015888234035405464,592.411,0.5540000200271606,-2.3939106659399356
593.068966,,0.016059711693364988,592.878,0.5669999718666077,-2.365039750611607
593.534483,,0.018244630020549248,593.344,0.5920000076293945,-2.310011971984751
594.0,,0.02173876234635085,593.808,0.5669999718666077,-2.3639204229767383
594.4655170000001,,0.025719750879095112,594.271,0.5540000200271606,-2.3917064235715344
594.9310340000001,,0.029899137087199507,594.741,0.546999990940094,-2.4064599242099547
595.3965519999999,,0.034308621898286464,595.204,0.5720000267028809,-2.351551233770508
595.862069,,0.038795797184680514,595.667,0.5789999961853027,-2.3359259851839527
596.327586,,0.04283562811375804,596.13,0.5690000057220459,-2.357416556746024
596.793103,,0.04559614181447986,596.596,0.5540000200271606,-2.3898892009069024
597.2586210000001,,0.046042629487810544,597.066,0.5699999928474426,-2.3549198496351895
597.724138,,0.04305448017093836,597.532,0.5540000200271606,-2.389766998727049
598.189655,,0.03543805259012479,597.996,0.5540000200271606,-2.3898567181878803
598.655172,,0.021904707294905693,598.455,0.5789999961853027,-2.3355786292453646
599.12069,,0.0016741485321844472,598.92,0.5649999976158142,-2.36636009691222
599.586207,,0.02410082520459177,599.386,0.5540000200271606,-2.3906898637650125
600.0517239999999,,0.051504297553511234,599.853,0.5529999732971191,-2.393307386314608
600.517241,,0.07518775029186345,600.319,0.5759999752044678,-2.3436979040657127
600.982759,,0.09117501806468473,600.782,0.5540000200271606,-2.3921726363701654
601.448276,,0.09870549707504946,601.245,0.5680000185966492,-2.36224471043133
601.913793,,0.0996400323878062,601.712,0.5730000138282776,-2.351935484482846
602.37931,,0.09624556083314079,602.182,0.5690000057220459,-2.361226627131274
602.844828,,0.08947111359522879,602.645,0.5519999861717224,-2.3988153421169764
603.310345,,0.07918250803312947,603.107,0.5450000166893005,-2.4145763180422115
603.775862,,0.06579064155023936,603.573,0.574999988079071,-2.3496703750859425
604.2413789999999,,0.05119338491389651,604.038,0.5630000233650208,-2.376195534445982
604.706897,,0.03778266784480475,604.504,0.5540000200271606,-2.3961007873919846
605.172414,,0.026694985740703354,604.971,0.550000011920929,-2.405019864992134
605.637931,,0.017397347733222778,605.43,0.5519999861717224,-2.400767702624231
606.1034480000001,,0.008805793120402295,605.901,0.5789999961853027,-2.3419456322058543
606.5689659999999,,0.0002904953173481624,606.36,0.5529999732971191,-2.398487341621819
607.0344829999999,,0.008224595838785919,606.826,0.5820000171661377,-2.335101114756286
607.5,,0.016285110609727774,607.292,0.5730000138282776,-2.3544070162618125
607.965517,,0.02279688519010724,607.76,0.550000011920929,-2.404126480907212
608.431034,,0.026617427715841406,608.223,0.5540000200271606,-2.39494747819117
608.896552,,0.027692359051601466,608.686,0.5820000171661377,-2.3334197662854432
609.362069,,0.027191065423260604,609.156,0.5450000166893005,-2.4134586204687185
609.827586,,0.026263738638832627,609.623,0.5460000038146973,-2.4106814780577537
610.293103,,0.02512403325168844,610.085,0.5460000038146973,-2.410074597840568
610.758621,,0.02359970811709087,610.551,0.5659999847412109,-2.3659046670274857
611.2241379999999,,0.022021202790571646,611.016,0.5879999995231628,-2.317404497774384
611.689655,,0.02100971528249193,611.481,0.5490000247955322,-2.401846232475386
612.155172,,0.02059041004309718,611.945,0.5450000166893005,-2.4100971548156305
612.62069,,0.020032713557805382,612.411,0.550000011920929,-2.398817405592822
613.0862070000001,,0.018621443689869926,612.876,0.5540000200271606,-2.389805484490564
613.551724,,0.016267258803226638,613.342,0.5429999828338623,-2.413572067792355
614.017241,,0.013403027749444275,613.805,0.5669999718666077,-2.3611909061020984
614.4827590000001,,0.010737233996766245,614.267,0.5270000100135803,-2.4483515392043094
614.948276,,0.009147334013423459,614.73,0.5379999876022339,-2.424510305638226
615.4137929999999,,0.0092562356976623,615.2,0.4909999966621399,-2.527137509641871
615.8793099999999,,0.01082564496032258,615.66,0.5460000038146973,-2.407643019169201
616.344828,,0.012835033053121692,616.13,0.5450000166893005,-2.4102421884859724
616.810345,,0.014234102780758241,616.596,0.5410000085830688,-2.4194528714745283
617.275862,,0.0143186350993759,617.058,0.5659999847412109,-2.365542723366518
617.741379,,0.012507348137279556,617.524,0.5540000200271606,-2.3922846464253626
618.206897,,0.008513235358491867,617.989,0.5360000133514404,-2.4321225772595105
618.672414,,0.003132528097230158,618.455,0.5230000019073486,-2.4610731829305537
619.137931,,0.0016049611760244587,618.92,0.5370000004768372,-2.431187211426174
619.603448,,0.003639529194326621,619.385,0.5649999976158142,-2.370767151973439
620.068966,,0.002362596227635667,619.845,0.5370000004768372,-2.432299446241718
620.534483,,0.0009797945690814506,620.311,0.5400000214576721,-2.426225427681749
621.0,,0.004096657591752182,620.779,0.5370000004768372,-2.4331411693804545
621.465517,,0.005049255479177434,621.241,0.5519999861717224,-2.4007467192179113
621.9310340000001,,0.0035115680653218105,621.712,0.5410000085830688,-2.4248931387921355
622.396552,,0.0010176172219993006,622.174,0.5270000100135803,-2.455466081741855
622.862069,,0.0002957032933828866,622.638,0.5180000066757202,-2.475034661673361
623.327586,,0.0004095124650552766,623.1,0.527999997138977,-2.4530990635704097
623.793103,,0.001959490074377021,623.566,0.5389999747276306,-2.4288788112585933
624.258621,,0.002534850704931641,624.031,0.5289999842643738,-2.4503111913484137
624.724138,,0.0016614495797338475,624.496,0.531000018119812,-2.4455115200611997
625.189655,,0.0004002114480832188,624.963,0.5260000228881836,-2.4558878066723095
625.655172,,0.0004224924246064809,625.429,0.5400000214576721,-2.4248107049537673
626.1206900000001,,0.0013179669149385237,625.893,0.5989999771118164,-2.295651455995357
626.5862070000001,,0.0029756956081551248,626.359,0.5329999923706055,-2.438797979155844
627.0517239999999,,0.004779391225059718,626.823,0.5419999957084656,-2.418541704214208
627.5172409999999,,0.005403178316251154,627.289,0.5199999809265137,-2.465840933863602
627.982759,,0.004627038810429898,627.757,0.5249999761581421,-2.454354205638177
628.448276,,0.003752257849854702,628.219,0.5210000276565552,-2.462531666989079
628.913793,,0.004129738590519795,628.682,0.531000018119812,-2.440281370986227
629.37931,,0.0057535100250354215,629.145,0.5149999856948853,-2.4747638270204315
629.844828,,0.007442566317375164,629.611,0.5299999713897705,-2.4418079950192135
630.3103450000001,,0.008098748389313055,630.081,0.5170000195503235,-2.4699629068985387
630.7758620000001,,0.007550682658241966,630.547,0.5339999794960022,-2.43287260108686
631.2413789999999,,0.006299388267807579,631.011,0.5299999713897705,-2.4416495518779926
631.706897,,0.004836541090081507,631.47,0.5339999794960022,-2.433111079890591
632.172414,,0.0034356442075893392,631.942,0.5440000295639038,-2.411608994730958
632.637931,,0.002287993961214182,632.4,0.5220000147819519,-2.459923630083633
633.103448,,0.0013659899886870094,632.865,0.5299999713897705,-2.4429675029707116
633.568966,,0.0002560733198591927,633.33,0.531000018119812,-2.4413360525630483
634.034483,,0.0013876199175478392,633.8,0.5260000228881836,-2.4528340590879276
634.5,,0.003198945655289984,634.263,0.5419999957084656,-2.4186192464972507
634.9655170000001,,0.0043059429699313445,634.731,0.5419999957084656,-2.4192811599539357
635.431034,,0.004229800671302695,635.193,0.5170000195503235,-2.474407365193781
635.8965519999999,,0.0032437973955255126,635.661,0.5360000133514404,-2.433651320638096
636.362069,,0.0018273547930273218,636.124,0.5339999794960022,-2.4386051867073557
636.827586,,0.00023399216610535856,636.589,0.531000018119812,-2.445676944649411
637.293103,,0.0011584754216025462,637.052,0.5249999761581421,-2.4592077253629037
637.7586210000001,,0.0015550567332851,637.518,0.5400000214576721,-2.426895157075219
638.224138,,0.000464421984845546,637.982,0.4909999966621399,-2.533913599857718
638.689655,,0.0013370850462108932,638.448,0.5379999876022339,-2.4316711554353647
639.155172,,0.0022161206820619297,638.913,0.5339999794960022,-2.440423386147051
639.62069,,0.0013178254888467932,639.378,0.5170000195503235,-2.477379542858337
640.086207,,0.0006234349937190664,639.845,0.5440000295639038,-2.4183590934384966
640.551724,,0.0022879906628828946,640.31,0.5339999794960022,-2.439837886108694
641.017241,,0.003093968941015585,640.771,0.5379999876022339,-2.4307135106614446
641.482759,,0.0032614054387878205,641.241,0.5519999861717224,-2.399712857579124
641.9482760000001,,0.0031107510530632874,641.704,0.5450000166893005,-2.414388713493348
642.413793,,0.0028188125838851615,642.167,0.5270000100135803,-2.4529727015623766
642.87931,,0.0026134871091341555,642.63,0.5339999794960022,-2.4370535723802695
643.344828,,0.002677571426917257,643.1,0.5080000162124634,-2.4930140341454257
643.810345,,0.002795864484144545,643.566,0.531000018119812,-2.4422267099618784
644.275862,,0.0024498633320569336,644.031,0.531000018119812,-2.441574982202669
644.7413789999999,,0.0014428612851133452,644.497,0.5419999957084656,-2.417004491637654
645.206897,,0.0001679258545133242,644.956,0.5419999957084656,-2.416463947093388
645.672414,,0.0009551372092327219,645.422,0.5320000052452087,-2.437791705378802
646.1379310000001,,0.0019895873571120245,645.886,0.5440000295639038,-2.4112856560733107
646.6034480000001,,0.0031056239901541692,646.351,0.4519999921321869,-2.611468813852626
647.0689659999999,,0.004041066828299716,646.823,0.5419999957084656,-2.4152569948264286
647.534483,,0.004472830213891741,647.282,0.546999990940094,-2.404352357282473
648.0,,0.004811290247500408,647.75,0.5519999861717224,-2.393568383086693
648.465517,,0.006055382417893321,648.212,0.47999998927116394,-2.5506590476440745
648.931034,,0.008624747774711585,648.675,0.527999997138977,-2.4464254086930888
649.396552,,0.011633207870591298,649.145,0.5460000038146973,-2.407653746896535
649.862069,,0.01367970804366829,649.611,0.5400000214576721,-2.4212571223194
650.327586,,0.014347782331063024,650.074,0.5419999957084656,-2.417502438876039
650.7931030000001,,0.014570371604462937,650.54,0.5630000233650208,-2.3724054821224554
651.258621,,0.01528689218558553,651.004,0.5379999876022339,-2.427558216697953
651.7241379999999,,0.01605276001378393,651.47,0.550000011920929,-2.4021116795803263
652.189655,,0.01546663581807283,651.934,0.5410000085830688,-2.422406421820044
652.655172,,0.012846914864062987,652.4,0.5410000085830688,-2.4230618198255556
653.12069,,0.008883890274800197,652.86,0.5450000166893005,-2.414950949453141
653.5862070000001,,0.00454771748380182,653.325,0.5669999718666077,-2.367553599023842
654.051724,,8.061314347025794e-05,653.793,0.5379999876022339,-2.4311794381112204
654.517241,,0.005581705345223326,654.256,0.5889999866485596,-2.3204114823371516
654.982759,,0.01209756363638405,654.727,0.5329999923706055,-2.442646097777641
655.448276,,0.018766711230439208,655.189,0.5709999799728394,-2.3599680974248862
655.9137929999999,,0.02423110965217157,655.657,0.5540000200271606,-2.396992532221501
656.37931,,0.0275770560932079,656.119,0.5529999732971191,-2.3990358877074263
656.844828,,0.028735007661888686,656.585,0.5759999752044678,-2.34867273883909
657.310345,,0.02803186994029352,657.051,0.515999972820282,-2.4790267701323048
657.7758620000001,,0.025624468499611613,657.516,0.5630000233650208,-2.376166680226335
658.241379,,0.021674607883101864,657.975,0.5770000219345093,-2.3451169641809697
658.7068969999999,,0.016950523779755377,658.44,0.5419999957084656,-2.42075211089463
659.172414,,0.012719707057478663,658.905,0.5419999957084656,-2.420085586508683
659.637931,,0.00980223763267022,659.371,0.5440000295639038,-2.415033994845763
660.103448,,0.008017008975925633,659.838,0.6209999918937683,-2.246576080203316
660.568966,,0.0067268694670837795,660.304,0.550000011920929,-2.4005704466965434
661.034483,,0.005575342129857598,660.767,0.5540000200271606,-2.391200992523259
661.5,,0.004389759854347648,661.23,0.550000011920929,-2.399317218777694
661.965517,,0.0027245820615647664,661.697,0.550000011920929,-2.3987939702345087
662.4310340000001,,0.00013896761479659537,662.167,0.515999972820282,-2.4724370182989577
662.8965519999999,,0.0030210084352973858,662.627,0.546999990940094,-2.404573982654808
663.362069,,0.00565450241909775,663.09,0.6439999938011169,-2.1930341219819254
663.827586,,0.006960072324920282,663.556,0.5519999861717224,-2.393377078948791
664.293103,,0.007083713100284816,664.023,0.5460000038146973,-2.406478989896904
664.7586210000001,,0.006552936965756177,664.488,0.5540000200271606,-2.3892037082214514
665.224138,,0.0056325052481694905,664.952,0.5180000066757202,-2.4679088429659957
665.689655,,0.004657524340752723,665.418,0.5889999866485596,-2.3136098399523464
666.155172,,0.004405048414966026,665.882,0.5540000200271606,-2.3903457088355315
666.62069,,0.005324444935375309,666.348,0.5519999861717224,-2.395269623038738
667.086207,,0.006613224608144273,666.816,0.5649999976158142,-2.3675800593139043
667.5517239999999,,0.00685216924735335,667.279,0.5540000200271606,-2.392224643403535
668.017241,,0.005671402985956809,667.741,0.550000011920929,-2.401644593430118
668.482759,,0.004277977362146817,668.211,0.578000009059906,-2.3413516159410626
668.948276,,0.0041516556783742,668.675,0.5809999704360962,-2.3355058204608166
669.413793,,0.0054861862170567915,669.137,0.5669999718666077,-2.3666561120097365
669.87931,,0.007064316851414775,669.603,0.5379999876022339,-2.430426173276371
670.3448279999999,,0.007511558363102266,670.066,0.5920000076293945,-2.3132904948939133
670.810345,,0.006486860272276973,670.532,0.5630000233650208,-2.3768880789905875
671.275862,,0.004716015576017443,670.996,0.5630000233650208,-2.377197384488536
671.7413789999999,,0.003164698448000357,671.462,0.5460000038146973,-2.414427543909599
672.206897,,0.00230676735244215,671.927,0.550000011920929,-2.405784316982346
672.672414,,0.0019807734176858515,672.393,0.5709999799728394,-2.359979924856657
673.137931,,0.0017765787375134047,672.857,0.574999988079071,-2.3510888489883643
673.6034480000001,,0.0015522920306820218,673.323,0.574999988079071,-2.350793555342134
674.068966,,0.0014913996767351896,673.785,0.5709999799728394,-2.359103085111675
674.5344829999999,,0.0016380729894911864,674.255,0.5720000267028809,-2.3564220526641857
675.0,,0.0016316850749288016,674.716,0.5879999995231628,-2.320979481123504
675.465517,,0.0010590875675315276,675.185,0.5669999718666077,-2.3660828134848217
675.931034,,9.771125851073218e-05,675.649,0.5809999704360962,-2.33488956256239
676.396552,,0.0014723088447660161,676.112,0.5540000200271606,-2.3929988719969466
676.862069,,0.0026109744665884435,676.578,0.5540000200271606,-2.3922857428160915
