Trial: ,13
Threshold: ,0.0
Maximum EMG: ,0.03974597388446034
Success: ,True

EMG Time,Raw EMG,Filtered EMG,Force Time,Raw Force (V),Filtered Force (N)
0.0,samples,3.609174800156459e-07,0.471,0.5170000195503235,-2.4740989344569018
0.46551699999999996,time,4.1410339654876546e-07,0.933,0.515999972820282,-2.4766037237012153
0.9310339999999999,value,4.681103310596143e-07,1.401,0.515999972820282,-2.4769083605839435
1.396552,,5.227812505049758e-07,1.862,0.5049999952316284,-2.5011475979649043
1.862069,,5.779499734420714e-07,2.328,0.5090000033378601,-2.492668499036621
2.327586,,6.334413672382769e-07,2.793,0.5049999952316284,-2.5015727421510148
2.793103,,6.890715857019927e-07,3.258,0.4819999933242798,-2.5518198415214615
3.258621,,7.446483480334305e-07,3.722,0.5299999713897705,-2.4473268487582622
3.724138,,7.99971259885621e-07,4.188,0.503000020980835,-2.5061725050717976
4.189654999999999,,8.548321772099919e-07,4.653,0.5289999842643738,-2.4494884683681724
4.655172,,9.090156134374957e-07,5.118,0.5019999742507935,-2.5082119941877283
5.12069,,9.622991904156127e-07,5.585,0.5249999761581421,-2.4579448329178923
5.586207,,1.0144541333837512e-06,6.044,0.5170000195503235,-2.475161586277636
6.051723999999999,,1.0652458101248113e-06,6.512,0.5809999704360962,-2.3354663195581176
6.517241,,1.1144343142791815e-06,6.974,0.5049999952316284,-2.5007390573260038
6.982759,,1.1617750926494315e-06,7.444,0.5149999856948853,-2.4786157641106454
7.448276,,1.2070196161597731e-06,7.907,0.5040000081062317,-2.5022230938627104
7.913793000000001,,1.2499160939642533e-06,8.373,0.5080000162124634,-2.493140705641566
8.379309999999998,,1.2902102300220034e-06,8.838,0.5139999985694885,-2.4797021574112033
8.844828000000001,,1.3276460212770664e-06,9.304,0.5180000066757202,-2.4706327430270725
9.310345,,1.3619665963947993e-06,9.764,0.5260000228881836,-2.452871092699628
9.775862,,1.3929150938170305e-06,10.23,0.5249999761581421,-2.4547497506652762
10.241379,,1.4202355777045577e-06,10.697,0.503000020980835,-2.5024218820000717
10.706897,,1.4436739901387253e-06,11.163,0.5130000114440918,-2.480428255913134
11.172414,,1.4629791377542551e-06,11.631,0.5329999923706055,-2.4367054261776984
11.637931,,1.4779037107738611e-06,12.089,0.5180000066757202,-2.4692968660319505
12.103447999999998,,1.4882053322120387e-06,12.559,0.5070000290870667,-2.4932388792827793
12.568966000000001,,1.4936476348114705e-06,13.022,0.5199999809265137,-2.4649603156880024
13.034483,,1.494001363071429e-06,13.49,0.5270000100135803,-2.4498190937142517
13.5,,1.4890454975240767e-06,13.952,0.5090000033378601,-2.4892067932496778
13.965517,,1.4785683982124444e-06,14.415,0.49000000953674316,-2.5308318609059266
14.431034,,1.462368964123873e-06,14.885,0.49300000071525574,-2.5245798010608396
14.896552,,1.440257805135643e-06,15.351,0.515999972820282,-2.474799398816877
15.362069,,1.4120584228362116e-06,15.813,0.5040000081062317,-2.5013056890796017
15.827586000000002,,1.3776083963968033e-06,16.279,0.49799999594688416,-2.5147634863972774
16.293103,,1.3367605694848792e-06,16.744,0.5450000166893005,-2.412763922055534
16.758621,,1.2893842340341978e-06,17.21,0.5109999775886536,-2.4872330097543554
17.224138,,1.2353663065166264e-06,17.674,0.5170000195503235,-2.4745419911552307
17.689655,,1.174612492199518e-06,18.14,0.5120000243186951,-2.4857909290054594
18.155172,,1.1070484327202434e-06,18.604,0.515999972820282,-2.4773957694321624
18.62069,,1.0326208321673185e-06,19.069,0.5040000081062317,-2.5038125340413147
19.086207,,9.512985567264175e-07,19.53,0.5180000066757202,-2.473529621978632
19.551724,,8.630737028303639e-07,19.999,0.5130000114440918,-2.4845788587627577
20.017241000000002,,7.67962628645877e-07,20.46,0.503000020980835,-2.5064540427777073
20.482758999999998,,6.660069436373705e-07,20.929,0.5090000033378601,-2.4934007678263095
20.948276,,5.57274450870368e-07,21.393,0.4959999918937683,-2.5216708155915497
21.413793000000002,,4.418600366550312e-07,21.855,0.503000020980835,-2.5062981172491963
21.87931,,3.198865020847956e-07,22.321,0.5099999904632568,-2.4908589363605165
22.344828,,1.9150533099704801e-07,22.786,0.5180000066757202,-2.4731791143722233
22.810344999999998,,5.689738887301225e-08,23.251,0.5289999842643738,-2.4489081091913443
23.275862,,8.372645279663607e-08,23.715,0.5130000114440918,-2.483413923330184
23.741379,,2.3012477212464137e-07,24.181,0.5070000290870667,-2.4960976734132627
24.206897,,3.820251378128102e-07,24.648,0.5120000243186951,-2.4847928576028044
24.672414,,5.391237408333939e-07,25.114,0.5120000243186951,-2.484370226895442
25.137931,,7.010851220358153e-07,25.579,0.35499998927116394,-2.826000314636743
25.603448,,8.675420007923078e-07,26.044,0.5049999952316284,-2.498805558046518
26.068966,,1.0380952096567652e-06,26.508,0.5099999904632568,-2.487544842126326
26.534483,,1.2123137398480892e-06,26.97,0.5040000081062317,-2.5002873888941393
27.0,,1.3897349021821193e-06,27.438,0.4950000047683716,-2.519614484694433
27.465517,,1.5698646078644569e-06,27.901,0.5139999985694885,-2.4779967419525772
27.931034,,1.7521777733198645e-06,28.366,0.5059999823570251,-2.4952665014209736
28.396552,,1.936118852972185e-06,28.829,0.49799999594688416,-2.5126053767798706
28.862069,,2.1211025036017388e-06,29.295,0.5019999742507935,-2.5038731858391814
29.327586,,2.306514383594842e-06,29.759,0.4860000014305115,-2.5387877428365124
29.793103000000002,,2.4917120900624897e-06,30.225,0.5139999985694885,-2.4779143635490986
30.258620999999998,,2.676026236442432e-06,30.692,0.5049999952316284,-2.4977194873341553
30.724138,,2.8587616728111183e-06,31.158,0.5139999985694885,-2.4783714574258227
31.189655000000002,,3.0391988507194955e-06,31.623,0.5149999856948853,-2.476507544321068
31.655172000000004,,3.216595333929934e-06,32.089,0.49900001287460327,-2.5117264195999307
32.12069,,3.3901874559710272e-06,32.552,0.5049999952316284,-2.4990508613863223
32.586207,,3.5591921249433783e-06,33.014,0.5080000162124634,-2.4929352536026625
33.051724,,3.7228087755033916e-06,33.482,0.5249999761581421,-2.4563297629044256
33.517241000000006,,3.880221467424409e-06,33.944,0.503000020980835,-2.504689341952098
33.982759,,4.030601129586217e-06,34.415,0.49399998784065247,-2.5247124099094735
34.448276,,4.173107947676035e-06,34.877,0.5210000276565552,-2.466277456948772
34.913793,,4.306893893297797e-06,35.343,0.515999972820282,-2.477520475598627
35.37931,,4.4311053915831555e-06,35.807,0.4909999966621399,-2.532286789267614
35.844828,,4.54488612377849e-06,36.272,0.515999972820282,-2.4780625617798466
36.310345,,4.64737996064895e-06,36.737,0.5120000243186951,-2.4869528812680435
36.775862,,4.737734021894766e-06,37.203,0.5109999775886536,-2.489235450701713
37.241378999999995,,4.81510185611853e-06,37.667,0.5149999856948853,-2.4805492112578866
37.706897000000005,,4.878646735216698e-06,38.133,0.5199999809265137,-2.46960746915702
38.172414,,4.9275450563962325e-06,38.6,0.6039999723434448,-2.286474833859498
38.637931,,4.960989844340206e-06,39.059,0.5540000200271606,-2.3952046675212237
39.103448,,4.978194345366462e-06,39.53,0.515999972820282,-2.477721462645595
39.568965999999996,,4.9783957047434376e-06,39.992,0.5149999856948853,-2.479569174408773
40.034483,,4.96085871764944e-06,40.46,0.5170000195503235,-2.474832648181407
40.5,,4.924879643588403e-06,40.922,0.5009999871253967,-2.5092754056951776
40.965517,,4.869790073409241e-06,41.386,0.5070000290870667,-2.4957641907538184
41.431034,,4.794960837419848e-06,41.855,0.5139999985694885,-2.4800641836395636
41.896552,,4.699805942443495e-06,42.321,0.5090000033378601,-2.4905109045020977
42.362069000000005,,4.583786525037562e-06,42.786,0.5170000195503235,-2.4726515944485117
42.827586000000004,,4.44641480748524e-06,43.244,0.5170000195503235,-2.472250772120705
43.293103,,4.287258042582886e-06,43.715,0.5080000162124634,-2.4914992413421246
43.758621,,4.105942432682258e-06,44.181,0.527999997138977,-2.447619249521048
44.224138,,3.902157007910885e-06,44.645,0.515999972820282,-2.4735173868704363
44.689655,,3.675657447988491e-06,45.104,0.5120000243186951,-2.482055191787123
45.155172,,3.4262698315857322e-06,45.578,0.5070000290870667,-2.492846707401944
45.620689999999996,,3.153894296736765e-06,46.037,0.5090000033378601,-2.488466129166592
46.086206999999995,,2.858508595422407e-06,46.504,0.5249999761581421,-2.453663390102358
46.551724,,2.54017152508905e-06,46.966,0.515999972820282,-2.4734037185529423
47.017241,,2.199026219563163e-06,47.43,0.515999972820282,-2.473609232702731
47.482759,,1.8353032815652212e-06,47.9,0.49900001287460327,-2.5109191203789347
47.948276,,1.4493237388233242e-06,48.365,0.5249999761581421,-2.4546066772874617
48.413793,,1.041501805638568e-06,48.828,0.5139999985694885,-2.478953122539104
48.879310000000004,,6.123474316643449e-07,49.294,0.49900001287460327,-2.512051910145098
49.344828,,1.624686196330088e-07,49.759,0.49399998784065247,-2.52339023938284
49.810345,,3.074265062015051e-07,50.224,0.5210000276565552,-2.4650240893499804
50.275862,,7.965278990348297e-07,50.69,0.5339999794960022,-2.4371566019492374
50.741379,,1.3039220738560886e-06,51.155,0.5130000114440918,-2.4833459650339837
51.206897,,1.8285908948814517e-06,51.615,0.5059999823570251,-2.4990046825591317
51.672414,,2.3694106834784017e-06,52.081,0.5049999952316284,-2.5015499698126678
52.137931,,2.9251516635903185e-06,52.548,0.515999972820282,-2.4778988596286737
52.603448,,3.494477761201947e-06,53.01,0.503000020980835,-2.506472708782422
53.068966,,4.075946773838021e-06,53.478,0.515999972820282,-2.4783316915692097
53.534483,,4.668010925458298e-06,53.941,0.5199999809265137,-2.4697222256926983
54.0,,5.269017821401273e-06,54.404,0.5149999856948853,-2.480640790609059
54.465517,,5.877211817234894e-06,54.874,0.515999972820282,-2.478406849053884
54.931034,,6.490735814494922e-06,55.34,0.5070000290870667,-2.4978803564917205
55.396552,,7.107633495329693e-06,55.805,0.5170000195503235,-2.4758848430086204
55.862069,,7.725852007023677e-06,56.271,0.5090000033378601,-2.4930363566861686
56.327586,,8.34324510624161e-06,56.73,0.5099999904632568,-2.490519747416938
56.793102999999995,,8.957576771620259e-06,57.196,0.5249999761581421,-2.457451762618013
57.258621000000005,,9.566525292037091e-06,57.663,0.49000000953674316,-2.5332776210594634
57.724138,,1.0167687836504872e-05,58.129,0.5170000195503235,-2.4740021773215104
58.189655,,1.0758585510180368e-05,58.593,0.5109999775886536,-2.4866105928338285
58.655172,,1.133666889943505e-05,59.058,0.503000020980835,-2.5035783491898864
59.120689999999996,,1.18993241073186e-05,59.519,0.503000020980835,-2.5031336395203483
59.586207,,1.2443879279054066e-05,59.989,0.5170000195503235,-2.472217868107203
60.051724,,1.296761161543982e-05,60.452,0.5149999856948853,-2.4762027033625076
60.517241,,1.3467754870201137e-05,60.914,0.5070000290870667,-2.493312737481399
60.982758999999994,,1.3941507325436682e-05,61.382,0.5120000243186951,-2.4821639198892664
61.448276,,1.4386040237346672e-05,61.844,0.5049999952316284,-2.4972303870759465
61.913793,,1.4798506742414008e-05,62.31,0.503000020980835,-2.5014808463700016
62.379310000000004,,1.5176051212142163e-05,62.774,0.5299999713897705,-2.4426310710888472
62.84482800000001,,1.5515819042339227e-05,63.24,0.5239999890327454,-2.4557570855830018
63.310345000000005,,1.581496686078159e-05,63.705,0.503000020980835,-2.5016419604179463
63.775862000000004,,1.607067313489927e-05,64.17,0.5080000162124634,-2.490958141503437
64.241379,,1.6280149158904286e-05,64.637,0.5049999952316284,-2.4977737546026892
64.706897,,1.6440650397539938e-05,65.103,0.503000020980835,-2.5024725591142007
65.172414,,1.654948816137017e-05,65.57,0.5019999742507935,-2.5050447393393616
65.637931,,1.6604041586260754e-05,66.033,0.4970000088214874,-2.516371537722823
66.103448,,1.6601769887436618e-05,66.496,0.4790000021457672,-2.556048501812577
66.56896599999999,,1.6540224856239298e-05,66.959,0.5180000066757202,-2.4715561002997575
67.03448300000001,,1.641706356546456e-05,67.43,0.5109999775886536,-2.487279824649172
67.5,,1.6230061246940603e-05,67.892,0.5339999794960022,-2.437626827891619
67.965517,,1.5977124302821413e-05,68.358,0.5120000243186951,-2.485981507854376
68.431034,,1.565630340992682e-05,68.82,0.5120000243186951,-2.4863619593279287
68.896552,,1.526580667437024e-05,69.286,0.5270000100135803,-2.4540071381891178
69.362069,,1.4804012791686456e-05,69.755,0.5120000243186951,-2.486945918843851
69.827586,,1.4269484165715293e-05,70.22,0.5040000081062317,-2.50456087623263
70.293103,,1.3660979937622604e-05,70.685,0.5130000114440918,-2.4850600834953713
70.75862099999999,,1.2977468874657895e-05,71.144,0.515999972820282,-2.478549006306362
71.22413800000001,,1.2218142066568508e-05,71.611,0.49799999594688416,-2.5177063518846565
71.689655,,1.1382425376024017e-05,72.077,0.5049999952316284,-2.5023165883565004
72.15517200000001,,1.0469991587961781e-05,72.544,0.5249999761581421,-2.4585273046513563
72.62069,,9.480772201456098e-06,73.007,0.5180000066757202,-2.473490028689616
73.086207,,8.414968806549349e-06,73.474,0.5210000276565552,-2.4666033494465496
73.551724,,7.273063987474558e-06,73.937,0.5270000100135803,-2.4531283797777483
74.017241,,6.055831692855105e-06,74.4,0.5070000290870667,-2.4962581088745757
74.482759,,4.764347012799083e-06,74.87,0.5080000162124634,-2.49361027735599
74.94827599999999,,3.3999953023230107e-06,75.336,0.5009999871253967,-2.508380444772704
75.41379300000001,,1.9644805902520996e-06,75.799,0.4779999852180481,-2.55801302746952
75.87931,,4.59833212661387e-07,76.265,0.5130000114440918,-2.4813028200427034
76.344828,,1.1115833899469202e-06,76.729,0.5090000033378601,-2.4895920348007023
76.810345,,2.7470667721808353e-06,77.195,0.5009999871253967,-2.506640463216513
77.275862,,4.443570539876887e-06,77.66,0.5040000081062317,-2.499780164866493
77.741379,,6.1977004218416955e-06,78.126,0.5130000114440918,-2.479914237474427
78.206897,,8.005711415188975e-06,78.585,0.5049999952316284,-2.497159228960207
78.67241399999999,,9.86350606092054e-06,79.051,0.5170000195503235,-2.4709105143366026
79.137931,,1.1766633904816697e-05,79.519,0.503000020980835,-2.5013892820111865
79.603448,,1.3710292196852986e-05,79.981,0.5070000290870667,-2.492735852490903
80.068966,,1.5689327880241737e-05,80.449,0.5180000066757202,-2.468913550583819
80.53448300000001,,1.7698240918803867e-05,80.912,0.515999972820282,-2.473490593963612
81.0,,1.973118900870572e-05,81.382,0.5170000195503235,-2.471601649003686
81.465517,,2.178199371764472e-05,81.844,0.5049999952316284,-2.498096950190727
81.931034,,2.384414809133472e-05,82.309,0.5130000114440918,-2.4810705381235514
82.396552,,2.5910825763626163e-05,82.774,0.5270000100135803,-2.451011158773473
82.86206899999999,,2.797489160279798e-05,83.24,0.49399998784065247,-2.523373860155543
83.327586,,3.002891392247881e-05,83.7,0.5199999809265137,-2.467208143141819
83.79310299999999,,3.2065178281296395e-05,84.166,0.5009999871253967,-2.509079067368829
84.258621,,3.4075702890720035e-05,84.631,0.5130000114440918,-2.4833948707144864
84.72413800000001,,3.6052255645655625e-05,85.096,0.5249999761581421,-2.457679614400602
85.189655,,3.7986372787182103e-05,85.559,0.5170000195503235,-2.475492474281047
85.65517200000001,,3.986937920138868e-05,86.029,0.5400000214576721,-2.425710618201103
86.12069,,4.1692410352591696e-05,86.489,0.5070000290870667,-2.497866435794081
86.586207,,4.344643584328862e-05,86.959,0.5049999952316284,-2.502410522672085
87.051724,,4.5122284587053805e-05,87.422,0.5009999871253967,-2.511233280100255
87.517241,,4.6710671574209124e-05,87.885,0.5099999904632568,-2.4916517222415426
87.98275899999999,,4.820222620352436e-05,88.351,0.527999997138977,-2.4523790136673833
88.448276,,4.958752214643268e-05,88.821,0.5170000195503235,-2.4762048188796726
88.913793,,5.08571087033002e-05,89.279,0.5139999985694885,-2.482523528660012
89.37931,,5.200154360418368e-05,89.744,0.5149999856948853,-2.4800564466395656
89.844828,,5.301142719926362e-05,90.21,0.5249999761581421,-2.4579188435424983
90.310345,,5.387743797677197e-05,90.675,0.5099999904632568,-2.4901952147818056
90.775862,,5.459036933876442e-05,91.141,0.5389999747276306,-2.42657088270622
91.241379,,5.5141167557539356e-05,91.607,0.5130000114440918,-2.482745031193263
91.706897,,5.552097082790116e-05,92.074,0.5189999938011169,-2.469189982906463
92.17241399999999,,5.572114932283012e-05,92.537,0.5120000243186951,-2.4839597783280984
92.63793100000001,,5.57333461524793e-05,93.0,0.515999972820282,-2.4747817825243716
93.103448,,5.554951911879813e-05,93.471,0.5180000066757202,-2.469992088744361
93.568966,,5.516198315050888e-05,93.933,0.5249999761581421,-2.454353334414544
94.03448300000001,,5.456345329566652e-05,94.394,0.5009999871253967,-2.506308626450703
94.5,,5.374708814164229e-05,94.863,0.515999972820282,-2.4733632762635454
94.965517,,5.270653352511854e-05,95.329,0.5249999761581421,-2.4535642282606567
95.431034,,5.1435966387597405e-05,95.792,0.5019999742507935,-2.5035620722059906
95.896552,,4.993013862504111e-05,96.258,0.49300000071525574,-2.5231431507875492
96.36206899999999,,4.818442077360929e-05,96.723,0.5249999761581421,-2.453485117831106
96.827586,,4.619484536707223e-05,97.189,0.5329999923706055,-2.436197024182672
97.293103,,4.395814979539216e-05,97.656,0.515999972820282,-2.473452840811704
97.758621,,4.147181848821108e-05,98.114,0.5130000114440918,-2.48027898869037
98.224138,,3.87341242415974e-05,98.579,0.5099999904632568,-2.4871685414280273
98.689655,,3.57441685014201e-05,99.044,0.4790000021457672,-2.555113537064473
99.155172,,3.2501920412171e-05,99.515,0.5090000033378601,-2.490202603106335
99.62069,,2.9008254435979183e-05,99.977,0.4880000054836273,-2.5364306251640456
100.086207,,2.52649863429887e-05,100.445,0.5049999952316284,-2.499883208326883
100.551724,,2.1274907371237e-05,100.907,0.5090000033378601,-2.4916560869187947
101.017241,,1.7041816351708826e-05,101.373,0.515999972820282,-2.476875441734442
101.482759,,1.2570549592381746e-05,101.838,0.5400000214576721,-2.425024713892765
101.948276,,7.867008313856598e-06,102.304,0.5230000019073486,-2.462451761575925
102.413793,,2.938183428609904e-06,102.77,0.5709999799728394,-2.3582069780496733
102.87931,,2.2078225439547624e-06,103.236,0.5339999794960022,-2.4390768610413938
103.344828,,7.561776633614696e-06,103.695,0.5239999890327454,-2.461045575457826
103.810345,,1.3113299851936962e-05,104.161,0.515999972820282,-2.4785752553326104
104.275862,,1.8850855104336088e-05,104.627,0.5170000195503235,-2.476412756654992
104.741379,,2.4761738781333244e-05,105.092,0.5009999871253967,-2.511203374446014
105.206897,,3.083207622475135e-05,105.56,0.5120000243186951,-2.4870888316208157
105.672414,,3.7046821259719156e-05,106.022,0.5130000114440918,-2.484683969922648
106.13793100000001,,4.338975997763509e-05,106.485,0.5440000295639038,-2.4168488227004437
106.603448,,4.9843518948643495e-05,106.955,0.5210000276565552,-2.466598435132172
107.068966,,5.638957803468803e-05,107.416,0.5199999809265137,-2.468366869828716
107.534483,,6.30082879658202e-05,107.885,0.5239999890327454,-2.459203941284795
108.0,,6.967889283314683e-05,108.35,0.5120000243186951,-2.4848751800589555
108.46551699999999,,7.637955764159529e-05,108.813,0.5149999856948853,-2.4778574534996185
108.931034,,8.308740105455709e-05,109.279,0.5249999761581421,-2.455594365266526
109.396552,,8.977853345044122e-05,109.745,0.5080000162124634,-2.492174349907293
109.862069,,9.642810039823305e-05,110.204,0.5130000114440918,-2.4808580451704834
110.32758600000001,,0.00010301033164532307,110.67,0.5139999985694885,-2.4783031836279763
110.793103,,0.00010949859569615086,111.136,0.5189999938011169,-2.467091668071648
111.258621,,0.00011586546004462445,111.6,0.515999972820282,-2.4733767555805772
111.724138,,0.0001220827571068372,112.066,0.5249999761581421,-2.453592715356687
112.189655,,0.0001281216558833429,112.534,0.5460000038146973,-2.4077440826227683
112.655172,,0.00013395273936218767,112.996,0.5210000276565552,-2.4621948988099525
113.12069,,0.00013954608765507137,113.464,0.5080000162124634,-2.4905847201929476
113.586207,,0.0001448713668394502,113.926,0.5040000081062317,-2.499448291923321
114.051724,,0.0001498979234591421,114.389,0.5009999871253967,-2.506210647782694
114.51724100000001,,0.00015459488461509686,114.859,0.503000020980835,-2.5021501675093125
114.982759,,0.00015893126355649403,115.325,0.515999972820282,-2.4741857944261487
115.448276,,0.00016287607066028982,115.789,0.5099999904632568,-2.487665202262974
115.913793,,0.00016639842966479618,116.254,0.515999972820282,-2.475037777576782
116.37931,,0.0001694676989999036,116.718,0.5130000114440918,-2.4820412122364757
116.84482799999999,,0.00017205359803322033,117.184,0.515999972820282,-2.4759816304656197
117.310345,,0.000174126338027772,117.648,0.5109999775886536,-2.4873452831495357
117.77586199999999,,0.00017565675758306158,118.114,0.5090000033378601,-2.4921528372185744
118.241379,,0.00017661646230728235,118.581,0.5040000081062317,-2.5034627677695855
118.70689700000001,,0.00017697796844437153,119.039,0.5210000276565552,-2.4667959400737107
119.172414,,0.00017671485015550265,119.508,0.5049999952316284,-2.501966667028285
119.63793100000001,,0.00017580189013068417,119.97,0.5199999809265137,-2.4695317401176475
120.103448,,0.00017421523318243348,120.434,0.503000020980835,-2.5067386162707854
120.568966,,0.00017193254244998905,120.904,0.515999972820282,-2.478506347148454
121.034483,,0.00016893315781923407,121.369,0.5339999794960022,-2.4392976815875413
121.5,,0.00016519825614074463,121.833,0.5059999823570251,-2.500223360545086
121.96551699999999,,0.00016071101280656162,122.299,0.5130000114440918,-2.484815786366025
122.431034,,0.00015545676422533012,122.763,0.5070000290870667,-2.497655524609539
122.896552,,0.0001494231707146473,123.229,0.5109999775886536,-2.488641024979006
123.362069,,0.00014260037930867228,123.693,0.5230000019073486,-2.4621383110011976
123.827586,,0.0001349811859598298,124.158,0.5070000290870667,-2.4965897843114946
124.293103,,0.00012656119659756404,124.623,0.5249999761581421,-2.456931967247075
124.758621,,0.00011733898649302046,125.089,0.5049999952316284,-2.5000409042911094
125.22413800000001,,0.00010731625736159574,125.552,0.5109999775886536,-2.4864978642614615
125.68965500000002,,9.649799161521408e-05,126.014,0.5009999871253967,-2.50782079286584
126.15517200000001,,8.489260316252793e-05,126.482,0.5149999856948853,-2.4768780164194752
126.62069000000001,,7.251208415646764e-05,126.944,0.49799999594688416,-2.5135086837232947
127.086207,,5.937214709196996e-05,127.412,0.5139999985694885,-2.4782917534286524
127.55172400000001,,4.5492361634996204e-05,127.874,0.515999972820282,-2.473634363551249
128.017241,,3.0896285521655984e-05,128.34,0.5299999713897705,-2.4428999720093736
128.48275900000002,,1.5611588863375982e-05,128.806,0.5419999957084656,-2.416595924096717
128.948276,,3.2982873071368903e-07,129.272,0.4959999918937683,-2.5167316768406582
129.413793,,1.689172874196544e-05,129.737,0.5270000100135803,-2.4491928571590598
129.87931,,3.4033432674934785e-05,130.203,0.5210000276565552,-2.462345316311192
130.344828,,5.170973017407276e-05,130.667,0.5210000276565552,-2.4625043157864095
130.81034499999998,,6.98707970996489e-05,131.133,0.5130000114440918,-2.4801663174649504
131.275862,,8.846212384952354e-05,131.597,0.5170000195503235,-2.471751339786879
131.741379,,0.00010742445393534535,132.063,0.531000018119812,-2.4416073194489636
132.206897,,0.00012669373357911655,132.526,0.5009999871253967,-2.507370401351722
132.67241399999997,,0.0001462010742408677,132.996,0.5130000114440918,-2.481664869872262
133.13793099999998,,0.0001658727293074609,133.459,0.5170000195503235,-2.473409977458871
133.60344800000001,,0.00018563008323341148,133.922,0.5210000276565552,-2.4651619795783137
134.06896600000002,,0.0002053896504321751,134.389,0.550000011920929,-2.4024396571258753
134.53448300000002,,0.00022506308641507918,134.852,0.5059999823570251,-2.4987362775198143
135.0,,0.0002445572198041015,135.317,0.47999998927116394,-2.5557829575712554
135.465517,,0.0002637741079797928,135.782,0.5370000004768372,-2.431956045991916
135.931034,,0.00028261110177511204,136.248,0.5149999856948853,-2.480184664640771
136.396552,,0.00030096090277087245,136.714,0.49000000953674316,-2.5348824301567072
136.862069,,0.0003187116308663746,137.18,0.5099999904632568,-2.4914682329177906
137.327586,,0.00033574695074463964,137.645,0.5210000276565552,-2.4675835262403862
137.793103,,0.00035194626029323706,138.111,0.4749999940395355,-2.5678012898358396
138.258621,,0.00036718484397498625,138.578,0.515999972820282,-2.4783965075224437
138.724138,,0.0003813339079036027,139.036,0.5090000033378601,-2.493488514331911
139.189655,,0.00039426063001853957,139.504,0.5099999904632568,-2.491077323982691
139.655172,,0.0004058285031652955,139.966,0.515999972820282,-2.4777057324522724
140.12069,,0.0004158979185128854,140.43,0.5270000100135803,-2.4533821726500453
140.586207,,0.00042432637614848236,140.9,0.5099999904632568,-2.4900129337911663
141.05172399999998,,0.00043096794173533233,141.365,0.5059999823570251,-2.498286080390329
141.51724099999998,,0.0004356729058286676,141.828,0.5120000243186951,-2.4847512563225616
141.982759,,0.00043828919226488535,142.294,0.515999972820282,-2.475566435614264
142.44827600000002,,0.0004386647817564772,142.759,0.5170000195503235,-2.472923917557084
142.913793,,0.00043664738493876687,143.224,0.4970000088214874,-2.5160541690458973
143.37931,,0.0004320798693406062,143.689,0.527999997138977,-2.4481080354815736
143.844828,,0.00042479798990704466,144.154,0.515999972820282,-2.473890535620556
144.310345,,0.00041463872198140706,144.619,0.5049999952316284,-2.497552182584462
144.77586200000002,,0.00040145234806997286,145.084,0.5109999775886536,-2.4842446967758245
145.241379,,0.0003850957695927456,145.544,0.5019999742507935,-2.503692221749697
145.706897,,0.00036540315412979404,146.014,0.5120000243186951,-2.481825675526187
146.172414,,0.00034217713926300075,146.474,0.5260000228881836,-2.451327141441898
146.637931,,0.0003152430665580381,146.944,0.5199999809265137,-2.4644836508072956
147.103448,,0.00028451125159460863,147.404,0.5199999809265137,-2.464647694176721
147.568966,,0.0002499160841516671,147.875,0.4909999966621399,-2.528067880536525
148.034483,,0.00021124037732707206,148.34,0.5109999775886536,-2.4848032536251727
148.5,,0.00016810147220625046,148.799,0.5139999985694885,-2.4786349631301685
148.965517,,0.00012030235200262056,149.264,0.5170000195503235,-2.472514395767207
149.43103399999998,,6.814133044087949e-05,149.73,0.5080000162124634,-2.4925727946681064
149.89655199999999,,1.1938162519932884e-05,150.196,0.515999972820282,-2.475615799938411
150.362069,,4.8979697025577596e-05,150.663,0.515999972820282,-2.47609494521716
150.82758600000003,,0.00011611022004826418,151.129,0.5130000114440918,-2.483102274070834
151.293103,,0.00018955807891917075,151.594,0.515999972820282,-2.4770158336413703
151.758621,,0.00026660680768900044,152.059,0.503000020980835,-2.5057519644435216
152.224138,,0.0003451409586784957,152.522,0.5299999713897705,-2.4472939213147784
152.68965500000002,,0.00042931077331828763,152.985,0.5040000081062317,-2.5042441386716128
153.155172,,0.0005270128559999662,153.453,0.5239999890327454,-2.4609072960818557
153.62069,,0.0006362313708554799,153.915,0.515999972820282,-2.4784958503664383
154.086207,,0.0007393217435387093,154.385,0.5199999809265137,-2.469858625826501
154.551724,,0.0008265355762967683,154.848,0.5070000290870667,-2.4981741513578672
155.017241,,0.000926539161913511,155.314,0.5099999904632568,-2.49154769490299
155.482759,,0.0010823834260419436,155.779,0.5049999952316284,-2.5022693906577196
155.948276,,0.0012695806518458435,156.244,0.527999997138977,-2.4519127424747054
156.413793,,0.0013801665570512343,156.704,0.492000013589859,-2.5300275069153364
156.87931,,0.0013784406294972738,157.169,0.5180000066757202,-2.473007156595277
157.34482799999998,,0.001457959267861115,157.634,0.5289999842643738,-2.4486184842116727
157.81034499999998,,0.0018464736283907708,158.099,0.5120000243186951,-2.4851959968927595
158.275862,,0.0023274172028084836,158.57,0.5170000195503235,-2.4738217580796817
158.741379,,0.0022595656648814124,159.032,0.4959999918937683,-2.5190860585970714
159.20689700000003,,0.0015792203027390516,159.5,0.503000020980835,-2.503357097932346
159.672414,,0.0015674195282744862,159.963,0.4959999918937683,-2.5181532596144103
160.137931,,0.0034039709377082297,160.426,0.5049999952316284,-2.4981287063314164
160.60344800000001,,0.00533570464438691,160.889,0.5180000066757202,-2.4694395584494875
161.06896600000002,,0.0028830808341338623,161.355,0.527999997138977,-2.4473467979172963
161.534483,,0.006142954261355917,161.825,0.5049999952316284,-2.49721906379052
162.0,,0.017885555320770272,162.29,0.4569999873638153,-2.6016360888719214
162.465517,,0.026240445575734135,162.756,0.5180000066757202,-2.468664813067352
162.931034,,0.029591032586844118,163.214,0.5049999952316284,-2.496999342340981
163.396552,,0.030931841529767783,163.685,0.5019999742507935,-2.503632179819581
163.862069,,0.03209041726021014,164.151,0.4830000102519989,-2.545205871173358
164.327586,,0.031126571920898936,164.616,0.5210000276565552,-2.4626738079337374
164.793103,,0.02550192348304963,165.074,0.5180000066757202,-2.469534841322839
165.258621,,0.015039125014304313,165.544,0.5210000276565552,-2.4633817425987568
165.72413799999998,,0.001212394993395037,166.007,0.5009999871253967,-2.5073842588023147
166.189655,,0.014240289270330362,166.474,0.628000020980835,-2.2311570193633163
166.655172,,0.02897194681882519,166.937,0.5139999985694885,-2.4800000441675936
167.12069,,0.03993554119003622,167.404,0.47200000286102295,-2.571984327013803
167.58620699999997,,0.045209951026093174,167.867,0.5130000114440918,-2.4831333370541846
168.051724,,0.04556028941872577,168.332,0.5149999856948853,-2.479227381106769
168.517241,,0.04332713075507015,168.796,0.5090000033378601,-2.4927138716918495
168.98275900000002,,0.04000131975845245,169.262,0.5090000033378601,-2.4930795624265407
169.44827600000002,,0.03548139930958863,169.727,0.5080000162124634,-2.495564037219624
169.913793,,0.029361199809558588,170.193,0.5139999985694885,-2.4827288729365486
170.37931,,0.022082769774888475,170.66,0.5270000100135803,-2.4545663025644107
170.844828,,0.014744582907343772,171.125,0.515999972820282,-2.478609345617293
171.310345,,0.008422486573358963,171.59,0.5189999938011169,-2.4720668036545677
171.775862,,0.003881758034786978,172.049,0.503000020980835,-2.5068347452732
172.241379,,0.001402249124857159,172.518,0.515999972820282,-2.4783411412485643
172.706897,,0.000422999008059061,172.981,0.5080000162124634,-2.495523133795031
173.172414,,0.00040284627996429025,173.449,0.503000020980835,-2.506100930044781
173.637931,,0.0022556234952737014,173.911,0.5389999747276306,-2.4272949537232327
174.103448,,0.005112945616414937,174.382,0.5239999890327454,-2.4595509135848306
174.568966,,0.007920561825953461,174.844,0.5210000276565552,-2.4656266360727903
175.034483,,0.0098228423681645,175.31,0.5130000114440918,-2.482573713817053
175.5,,0.010917383378651831,175.774,0.5120000243186951,-2.484263076685444
175.96551699999998,,0.011817746643050272,176.24,0.5019999742507935,-2.505568444570856
176.43103399999998,,0.013042327819352993,176.7,0.515999972820282,-2.4746087993807797
176.896552,,0.01509255627542149,177.165,0.5320000052452087,-2.43932765721908
177.36206900000002,,0.01853206613847154,177.63,0.515999972820282,-2.4738115197481334
177.827586,,0.023467709299936187,178.095,0.5199999809265137,-2.4647819788067022
178.293103,,0.02938520259320547,178.563,0.5419999957084656,-2.4166057323228287
178.758621,,0.03591030563219673,179.026,0.5049999952316284,-2.497046154140631
179.224138,,0.04304905416174817,179.489,0.5130000114440918,-2.4795297488672143
179.68965500000002,,0.04998412164865104,179.959,0.503000020980835,-2.501314842562839
180.155172,,0.05428653956527067,180.422,0.5109999775886536,-2.4839704290777185
180.62069,,0.05330812948631118,180.885,0.5019999742507935,-2.503746656880601
181.086207,,0.046144719482471695,181.35,0.5210000276565552,-2.462599124454127
181.551724,,0.033572756442565924,181.82,0.5289999842643738,-2.445487418937397
182.01724099999998,,0.01653204758603596,182.279,0.5139999985694885,-2.4785451100495903
182.482759,,0.004177784033320821,182.745,0.5090000033378601,-2.489866084679327
182.948276,,0.02652766695738171,183.211,0.5249999761581421,-2.455472561966544
183.413793,,0.046565339135050454,183.677,0.5270000100135803,-2.451602523873047
183.87931,,0.060039296481802874,184.143,0.5210000276565552,-2.4651692959313585
184.34482799999998,,0.06502125233204034,184.608,0.503000020980835,-2.504873098124287
184.81034499999998,,0.06286026668640672,185.073,0.5270000100135803,-2.4530524335634163
185.27586200000002,,0.05653563027097005,185.534,0.5009999871253967,-2.510128854049624
185.74137900000002,,0.048186902263156285,186.004,0.515999972820282,-2.477832397443599
186.206897,,0.03822146854375365,186.467,0.515999972820282,-2.4781556767636124
186.672414,,0.026450920220314714,186.929,0.5090000033378601,-2.49365943708289
187.137931,,0.013601018470976039,187.4,0.5170000195503235,-2.476405819337477
187.60344800000001,,0.0014691513089860738,187.863,0.5419999957084656,-2.4220314853944767
188.06896600000002,,0.008252093599261233,188.328,0.5210000276565552,-2.467787508719162
188.534483,,0.015007677114190937,188.792,0.5180000066757202,-2.4742406854611816
189.0,,0.01925904372218493,189.258,0.5019999742507935,-2.508932247451228
189.465517,,0.021641136533340686,189.724,0.5090000033378601,-2.4934361179283635
189.931034,,0.022253746200051844,190.19,0.5180000066757202,-2.4735112843204954
190.39655199999999,,0.020524076452810167,190.649,0.5170000195503235,-2.4753104599125084
190.862069,,0.01591156815876549,191.115,0.5289999842643738,-2.448735829892173
191.327586,,0.009169014546828494,191.581,0.550000011920929,-2.4025138576117318
191.793103,,0.002709286347257522,192.047,0.5239999890327454,-2.4586628000327964
192.25862099999998,,0.001030373607868037,192.515,0.5070000290870667,-2.4951939729555046
192.72413799999998,,0.0018277092787880214,192.977,0.5009999871253967,-2.507766991244922
193.189655,,0.0017289201815048633,193.441,0.5139999985694885,-2.4789678311511505
193.655172,,0.002507230387417559,193.911,0.5049999952316284,-2.4981355428002296
194.12069000000002,,0.0035838671906365783,194.369,0.5170000195503235,-2.4716013677085553
194.586207,,0.0030855055443169206,194.84,0.47200000286102295,-2.569312532377503
195.051724,,0.0005515555836010024,195.299,0.5099999904632568,-2.4862687678138915
195.517241,,0.0024174945422240682,195.771,0.5070000290870667,-2.4926296842750704
195.98275900000002,,0.004298074044970725,196.229,0.5149999856948853,-2.4751103437184923
196.448276,,0.005415751105683415,196.697,0.5210000276565552,-2.4620351818628334
196.913793,,0.007037696110241624,197.162,0.43799999356269836,-2.642948299473805
197.37931,,0.009465301326900674,197.63,0.5139999985694885,-2.477543393543266
197.844828,,0.011823952791421743,198.095,0.5080000162124634,-2.4908684918080826
198.310345,,0.0132866511747778,198.557,0.5360000133514404,-2.4301908397379104
198.775862,,0.013656218437040133,199.02,0.4869999885559082,-2.5373305539083404
199.241379,,0.012938549806195292,199.489,0.41200000047683716,-2.7011673369536986
199.706897,,0.011220203985621556,199.951,0.5070000290870667,-2.494674523009733
200.172414,,0.009184381586044637,200.419,0.5260000228881836,-2.4537826950292962
200.63793099999998,,0.008086281188991596,200.881,0.5199999809265137,-2.4673628936081573
201.103448,,0.008578125410619792,201.347,0.515999972820282,-2.4765757815839513
201.568966,,0.009677798309517874,201.81,0.5299999713897705,-2.4465477947149536
202.034483,,0.009595410270688564,202.276,0.5120000243186951,-2.4861967733059793
202.5,,0.007893816911296637,202.742,0.5149999856948853,-2.480041848847891
202.965517,,0.006264618357883614,203.207,0.5099999904632568,-2.491252391514829
203.431034,,0.006571287432190493,203.674,0.5099999904632568,-2.491496692410239
203.896552,,0.008374455769956067,204.14,0.5109999775886536,-2.489482189034357
204.36206900000002,,0.00894887736362321,204.604,0.5429999828338623,-2.4198439139570698
204.827586,,0.005785520782329162,205.07,0.5239999890327454,-2.461228136396706
205.293103,,0.0011536240490977506,205.533,0.515999972820282,-2.4785595186846647
205.758621,,0.009628001150976659,205.996,0.503000020980835,-2.506700465281046
206.224138,,0.017316497034118444,206.463,0.515999972820282,-2.478119444167383
206.689655,,0.023600924417599187,206.926,0.5149999856948853,-2.479970040670465
207.155172,,0.029104560244340986,207.389,0.5239999890327454,-2.4599747213566467
207.62069,,0.03383049470314985,207.859,0.5019999742507935,-2.5074702711947423
208.086207,,0.036416115494294105,208.324,0.5270000100135803,-2.452535547512194
208.551724,,0.035445023048841375,208.789,0.5170000195503235,-2.4738340594803763
209.01724099999998,,0.031021277400237753,209.254,0.5149999856948853,-2.477698866274361
209.482759,,0.02465092348819551,209.719,0.5299999713897705,-2.44453706197223
209.948276,,0.017865016040354606,210.185,0.5260000228881836,-2.4527942011993127
210.413793,,0.011418843433185163,210.644,0.5109999775886536,-2.4850555388609363
210.87930999999998,,0.005612439385258245,211.11,0.531000018119812,-2.4411157998437445
211.344828,,0.0006737179823919632,211.582,0.5460000038146973,-2.4081316198661344
211.810345,,0.003337044619453965,212.04,0.5090000033378601,-2.4885083151711407
212.27586200000002,,0.006390558886035798,212.504,0.503000020980835,-2.5014262216764007
212.741379,,0.007961062988648251,212.973,0.5529999732971191,-2.3924238328170655
213.206897,,0.007247135813160861,213.434,0.5130000114440918,-2.479584569798271
213.672414,,0.004483826720483173,213.904,0.5120000243186951,-2.4818628837588754
214.137931,,0.0016139498349749142,214.369,0.5109999775886536,-2.4842237568960965
214.60344800000001,,0.0008279848568204887,214.833,0.5249999761581421,-2.4539812593842636
215.068966,,0.0023254613136096123,215.299,0.492000013589859,-2.526203663237955
215.534483,,0.0040802300973322644,215.759,0.5299999713897705,-2.443800668955703
216.0,,0.0040839150518447356,216.225,0.515999972820282,-2.474733315129599
216.465517,,0.002465856300420301,216.69,0.5049999952316284,-2.4991625600888443
216.93103399999998,,0.0011152568127850411,217.155,0.5130000114440918,-2.482216217007374
217.39655199999999,,0.0015490790118614527,217.623,0.5210000276565552,-2.4652734196800306
217.862069,,0.0036725713885829496,218.088,0.5199999809265137,-2.467926685026759
218.327586,,0.0065334613960552415,218.556,0.5389999747276306,-2.4269798608721764
218.793103,,0.009572415895146973,219.018,0.5339999794960022,-2.4382792298566307
219.25862099999998,,0.012714368923022747,219.481,0.5260000228881836,-2.456060667301634
219.724138,,0.015654666138834625,219.944,0.5339999794960022,-2.438919661379915
220.18965500000002,,0.017689944546877782,220.412,0.5239999890327454,-2.460921356258954
220.65517200000002,,0.01834584017510135,220.874,0.42399999499320984,-2.67892433205447
221.12069,,0.01792551696315195,221.34,0.515999972820282,-2.4785477280977934
221.586207,,0.017347716194311233,221.805,0.5099999904632568,-2.491596521294107
222.051724,,0.017414771913743552,222.271,0.5099999904632568,-2.491490591893735
222.517241,,0.01807998672650212,222.738,0.48100000619888306,-2.5544865432668677
222.98275900000002,,0.018381683180053756,223.203,0.503000020980835,-2.5062988346564303
223.448276,,0.017237914083257398,223.67,0.5099999904632568,-2.4907258672500427
223.913793,,0.014314263130515424,224.136,0.515999972820282,-2.4772754664208665
224.37931,,0.010050430081066234,224.601,0.5249999761581421,-2.457244028498111
224.844828,,0.005130224551366231,225.06,0.5170000195503235,-2.4742171209381887
225.31034499999998,,0.00024690204966366333,225.53,0.5180000066757202,-2.4715641219620714
225.775862,,0.003960622267914629,225.992,0.5070000290870667,-2.4950513015442444
226.241379,,0.007317409731217122,226.46,0.5120000243186951,-2.4836915524688976
226.706897,,0.010284806462189365,226.922,0.5170000195503235,-2.4723574182586225
227.172414,,0.013145051928988937,227.389,0.5120000243186951,-2.4828486934028904
227.63793099999998,,0.015172506490127996,227.852,0.5260000228881836,-2.4519967436141212
228.103448,,0.015355631007074523,228.318,0.5199999809265137,-2.4647794246030945
228.56896600000002,,0.013961826459469183,228.782,0.5070000290870667,-2.4928831334917696
229.03448300000002,,0.012571028430497297,229.248,0.503000020980835,-2.5014572414312415
229.5,,0.012298653926389649,229.714,0.5120000243186951,-2.4817915981506915
229.965517,,0.012656622952888188,230.18,0.5009999871253967,-2.5057835083579545
230.431034,,0.012475600126173655,230.645,0.503000020980835,-2.501536729861506
230.896552,,0.011400112658861278,231.111,0.5080000162124634,-2.490834660131835
231.362069,,0.010108361928561984,231.578,0.5260000228881836,-2.4518842758817345
231.827586,,0.00935692738600745,232.037,0.5130000114440918,-2.4805375459017167
232.293103,,0.00916316442218571,232.5,0.515999972820282,-2.4743879328810103
232.758621,,0.008977622710867448,232.97,0.5139999985694885,-2.4791752115341743
233.224138,,0.008473380174511349,233.43,0.531000018119812,-2.442598488038151
233.689655,,0.007864968623768408,233.9,0.5040000081062317,-2.5018985354750223
234.155172,,0.007406968484195887,234.365,0.5210000276565552,-2.4653398957001946
234.62069,,0.006943819345449178,234.828,0.5080000162124634,-2.494128226187287
235.086207,,0.006173176258327396,235.293,0.515999972820282,-2.4771381860188657
235.55172399999998,,0.005087059626736182,235.759,0.5170000195503235,-2.4753581764383803
236.01724099999998,,0.003913227131135191,236.225,0.48500001430511475,-2.5454215893966503
236.482759,,0.002793042734586464,236.69,0.5379999876022339,-2.430237304006271
236.94827600000002,,0.001692507206062026,237.156,0.5239999890327454,-2.460950038381496
237.413793,,0.00043096084145956666,237.616,0.5130000114440918,-2.485047589679519
237.87931,,0.0013721800321438008,238.081,0.515999972820282,-2.4785615440451183
238.344828,,0.004027987012867558,238.549,0.5239999890327454,-2.4610979017626784
238.810345,,0.00707225296997318,239.011,0.5149999856948853,-2.480587969480697
239.27586200000002,,0.00916285351189203,239.474,0.5040000081062317,-2.5043559110466447
239.741379,,0.009241200595007578,239.944,0.5170000195503235,-2.475763298761914
240.206897,,0.007645209150435276,240.404,0.5120000243186951,-2.4863214638185243
240.672414,,0.0056452502984528806,240.874,0.5059999823570251,-2.499003752646145
241.137931,,0.004146889107613512,241.34,0.5339999794960022,-2.4375689554134317
241.603448,,0.0033559021035770337,241.806,0.503000020980835,-2.5046443056609147
242.068966,,0.0033988475797646182,242.264,0.5180000066757202,-2.471486358658969
242.534483,,0.0044782332467841095,242.731,0.5099999904632568,-2.488436593632572
243.0,,0.006306477404607146,243.196,0.5009999871253967,-2.507579534188106
243.465517,,0.007928498465481432,243.663,0.5040000081062317,-2.500607358672563
243.93103399999998,,0.00838008712725182,244.128,0.5260000228881836,-2.4522825508670163
244.39655199999999,,0.007424708276752148,244.593,0.5339999794960022,-2.434511656935934
244.862069,,0.005683020480877064,245.058,0.5090000033378601,-2.488698943784388
245.327586,,0.004152651457188696,245.519,0.5630000233650208,-2.3708441843654886
245.793103,,0.0034783342761139785,245.988,0.5130000114440918,-2.479646052735694
246.258621,,0.0035607144356312355,246.452,0.5210000276565552,-2.46216806809276
246.724138,,0.003920732097156344,246.914,0.5080000162124634,-2.490526163664334
247.18965500000002,,0.00430302330086785,247.382,0.5329999923706055,-2.4361789351897634
247.655172,,0.0046259130003421575,247.844,0.5139999985694885,-2.477771707175228
248.12069,,0.004576608891730625,248.31,0.5339999794960022,-2.4344706708722694
248.586207,,0.0038918847523906103,248.774,0.5230000019073486,-2.458772785663431
249.051724,,0.0029794255881290775,249.24,0.5130000114440918,-2.4809514750001758
249.517241,,0.002554701321300052,249.705,0.5419999957084656,-2.4182062924298684
249.982759,,0.0026396887247450576,250.17,0.5170000195503235,-2.473137865224964
250.44827600000002,,0.002638856933363856,250.637,0.4180000126361847,-2.6893074692261947
250.913793,,0.0024138919274847297,251.103,0.5040000081062317,-2.5024327063102834
251.37931000000003,,0.0024304801967615954,251.57,0.5379999876022339,-2.4288364269732345
251.844828,,0.0026834624096308776,252.033,0.5040000081062317,-2.503359842941619
252.31034499999998,,0.002376459272106979,252.496,0.5239999890327454,-2.4601942143083906
252.77586200000002,,0.001098291976213789,252.959,0.5339999794960022,-2.4387599806501936
253.241379,,0.0003708841036547277,253.427,0.515999972820282,-2.478261403626301
253.706897,,0.0010008518224311268,253.889,0.515999972820282,-2.4784721129767764
254.172414,,0.0009101102650560181,254.354,0.5270000100135803,-2.454636035118439
254.63793099999998,,0.0012780745674860216,254.824,0.515999972820282,-2.4786444536002774
255.10344800000001,,0.0028579951169262845,255.291,0.5220000147819519,-2.4655282778158765
255.56896600000002,,0.0049466283802413625,255.756,0.5099999904632568,-2.4915419216342625
256.03448299999997,,0.006062546392777118,256.214,0.5070000290870667,-2.497865789268746
256.5,,0.005515501595050881,256.68,0.5270000100135803,-2.4540053596938862
256.965517,,0.004068243660364967,257.146,0.5090000033378601,-2.4928664041845314
257.431034,,0.003062041068607939,257.611,0.5239999890327454,-2.4597756561710833
257.896552,,0.0030649613238158536,258.077,0.5170000195503235,-2.4745711479631423
258.362069,,0.003436788612028761,258.545,0.5149999856948853,-2.4784435272440746
258.827586,,0.003161690160315889,259.007,0.503000020980835,-2.5040875532593874
259.29310300000003,,0.001980705613491001,259.471,0.5139999985694885,-2.4796237196627535
259.758621,,0.0005502929703266123,259.941,0.5249999761581421,-2.4551757950301525
260.224138,,0.0003674858972944638,260.404,0.515999972820282,-2.4743311711387364
260.689655,,0.0004393700283862959,260.866,0.5230000019073486,-2.4586724534526336
261.155172,,0.0004107405816931694,261.332,0.5139999985694885,-2.477929318530358
261.62068999999997,,0.0019583711940458996,261.796,0.5130000114440918,-2.4798252671417176
262.086207,,0.003319851714162183,262.262,0.5180000066757202,-2.4687266719197307
262.551724,,0.0035116731760822997,262.727,0.5099999904632568,-2.486034362676524
263.017241,,0.0028498563359848424,263.193,0.5239999890327454,-2.455499461564426
263.482759,,0.003113581565276733,263.659,0.5139999985694885,-2.4773409210592368
263.94827599999996,,0.005656739097786142,264.125,0.5130000114440918,-2.4796620018664695
264.413793,,0.00967373316514798,264.589,0.5080000162124634,-2.490781326954595
264.87931,,0.012854313816588322,265.055,0.5109999775886536,-2.4845485766151314
265.34482799999995,,0.013529117462254785,265.515,0.5130000114440918,-2.480562127104983
265.810345,,0.011776788905030403,265.985,0.48100000619888306,-2.550706830005478
266.27586199999996,,0.008885154980776199,266.448,0.5109999775886536,-2.4858198286409174
266.741379,,0.006492215354228139,266.911,0.5080000162124634,-2.4928575987453163
267.206897,,0.005924408941975426,267.377,0.5080000162124634,-2.4933730418650857
267.672414,,0.007270660174350688,267.84,0.5239999890327454,-2.4590274769514875
268.137931,,0.008900337380313353,268.306,0.5509999990463257,-2.40069698117706
268.603448,,0.00873418791151447,268.77,0.5070000290870667,-2.4970150223698684
269.06896600000005,,0.006385655886357826,269.236,0.5339999794960022,-2.4386000492861024
269.53448299999997,,0.0035610218110925435,269.7,0.5669999718666077,-2.3670504991949657
270.0,,0.0021178417910943386,270.165,0.5260000228881836,-2.456646565917243
270.465517,,0.0022250237023643147,270.63,0.5049999952316284,-2.502588435611802
270.931034,,0.0026700794233052074,271.095,0.5189999938011169,-2.472191566398988
271.396552,,0.0024175787710233048,271.563,0.5299999713897705,-2.448241165576358
271.86206899999996,,0.0014266749259308528,272.025,0.503000020980835,-2.506989105757053
272.327586,,0.00031782660190550813,272.493,0.5049999952316284,-2.5024692696145006
272.793103,,0.00024722300265862476,272.955,0.5170000195503235,-2.4760808806701275
273.258621,,5.338227208710585e-08,273.419,0.5099999904632568,-2.4910120906377764
273.724138,,0.0006351747978212908,273.889,0.5049999952316284,-2.5015209498117845
274.18965499999996,,0.0006390911921910818,274.354,0.5270000100135803,-2.4531529162795342
274.655172,,0.0007772049255937623,274.817,0.6269999742507935,-2.2348077845097603
275.12069,,0.0032389071476816166,275.283,0.5230000019073486,-2.460876942386712
275.586207,,0.005407563238088462,275.749,0.5260000228881836,-2.4538184067016324
276.051724,,0.00641539902238974,276.214,0.5419999957084656,-2.4184431029237166
276.517241,,0.006984709123315953,276.674,0.515999972820282,-2.4745925934820723
276.98275900000004,,0.008848551918668799,277.14,0.5339999794960022,-2.434918826436159
277.448276,,0.012990934822872266,277.606,0.5419999957084656,-2.4170829312854427
277.913793,,0.018583512406259637,278.072,0.5130000114440918,-2.4799211601863496
278.37931,,0.02378898164280845,278.534,0.5139999985694885,-2.4774758185066097
278.844828,,0.027600927608569144,279.004,0.515999972820282,-2.472936633028446
279.31034500000004,,0.03074515816658795,279.467,0.5339999794960022,-2.4336291456191534
279.77586199999996,,0.03467130338304978,279.929,0.5070000290870667,-2.4924537218660565
280.241379,,0.03972394191095373,280.397,0.5130000114440918,-2.4794766082317703
280.706897,,0.04437051383012344,280.859,0.515999972820282,-2.4731264448756254
281.172414,,0.04611323027731707,281.324,0.5239999890327454,-2.45596777366956
281.637931,,0.04309108864404596,281.789,0.5329999923706055,-2.436706419273686
282.10344799999996,,0.035059840535236926,282.254,0.5210000276565552,-2.4632615292142863
282.568966,,0.02317325545815516,282.719,0.4880000054836273,-2.5356213876078257
283.034483,,0.009021808314682668,283.185,0.5180000066757202,-2.470765686481724
283.5,,0.005776555348231692,283.652,0.5389999747276306,-2.4255406198511436
283.965517,,0.0188441807065864,284.118,0.5249999761581421,-2.4565733221946515
284.431034,,0.02677247172249226,284.582,0.5,-2.5115601564507304
284.89655200000004,,0.02696618026141086,285.047,0.5210000276565552,-2.4663026118350357
285.362069,,0.019836850698981393,285.515,0.5149999856948853,-2.479826483876369
285.827586,,0.008128639819776524,285.977,0.5419999957084656,-2.421397622558983
286.293103,,0.005817090130753436,286.445,0.515999972820282,-2.478367161722918
286.758621,,0.02073127917765158,286.907,0.5120000243186951,-2.487326443190356
287.22413800000004,,0.03429798849531558,287.373,0.5320000052452087,-2.4439109674418433
287.689655,,0.042305387111521445,287.838,0.5389999747276306,-2.4287247729659955
288.155172,,0.04123641589384515,288.304,0.5090000033378601,-2.4940530961136615
288.62069,,0.030984282640945465,288.764,0.515999972820282,-2.4786779012045
289.086207,,0.014107386362816419,289.229,0.5070000290870667,-2.4980715703415357
289.55172400000004,,0.006959786377420167,289.697,0.515999972820282,-2.478167111210034
290.01724099999996,,0.03087898531259622,290.162,0.5130000114440918,-2.4843326270841266
290.482759,,0.05589932647561783,290.63,0.5090000033378601,-2.4926147957009426
290.948276,,0.07878822214646708,291.096,0.515999972820282,-2.4768832848937703
291.413793,,0.09612415475449389,291.556,0.515999972820282,-2.4763684396456656
291.87931,,0.10623307363122415,292.025,0.49000000953674316,-2.5324809666770354
292.344828,,0.10915995673205678,292.486,0.5249999761581421,-2.4556955122907387
292.81034500000004,,0.10511355381643296,292.956,0.4869999885559082,-2.537967304912094
293.275862,,0.09413645351153765,293.419,0.515999972820282,-2.4743019361190335
293.74137900000005,,0.07763638527432504,293.881,0.5210000276565552,-2.4629708961172927
294.206897,,0.05905093359231776,294.347,0.515999972820282,-2.473486494982055
294.672414,,0.041784422382580455,294.81,0.5299999713897705,-2.44267918648993
295.13793100000004,,0.026698082012599354,295.276,0.515999972820282,-2.47295503800113
295.603448,,0.012539973933322212,295.741,0.5070000290870667,-2.4924260663052786
296.068966,,0.0012596408495934993,296.207,0.5090000033378601,-2.488025623373625
296.534483,,0.013348472816658598,296.675,0.5379999876022339,-2.424896152470573
297.0,,0.022380672366934667,297.141,0.5120000243186951,-2.4816847101544552
297.46551700000003,,0.02911009268950837,297.6,0.5170000195503235,-2.4710236937780317
297.931034,,0.03550013927166856,298.066,0.5210000276565552,-2.462622930279395
298.396552,,0.04208454838161398,298.529,0.527999997138977,-2.4477579629065507
298.862069,,0.047283630907397,298.999,0.5139999985694885,-2.4787043167962945
299.327586,,0.049548306050563276,299.46,0.5120000243186951,-2.483553322258703
299.79310300000003,,0.04924567771132584,299.93,0.515999972820282,-2.4753621988816885
300.258621,,0.047748348851652536,300.393,0.531000018119812,-2.443220754542666
300.724138,,0.04538686551045872,300.855,0.5339999794960022,-2.4372209566313656
301.189655,,0.04149829162461524,301.321,0.5529999732971191,-2.3963430223602824
301.65517200000005,,0.036357048794279596,301.785,0.5080000162124634,-2.494862947559482
302.12069,,0.031733502789985685,302.251,0.5220000147819519,-2.4647932739012033
302.586207,,0.02896411892513715,302.715,0.5099999904632568,-2.49130631919151
303.05172400000004,,0.027234721436433466,303.181,0.5210000276565552,-2.467636594234986
303.517241,,0.02443633870447797,303.648,0.5339999794960022,-2.4395263946879058
303.982759,,0.019393872345119863,304.113,0.5120000243186951,-2.487578403350709
304.448276,,0.012794819954710764,304.579,0.5379999876022339,-2.4309613214382986
304.913793,,0.00619765659810846,305.045,0.515999972820282,-2.478824118901448
305.37931000000003,,0.0007339637205651697,305.507,0.515999972820282,-2.4786636645145275
305.844828,,0.0031283499740493636,305.97,0.5260000228881836,-2.4566287292523694
306.310345,,0.00514568842983448,306.434,0.5130000114440918,-2.484622393783776
306.775862,,0.0052913639028410436,306.904,0.5049999952316284,-2.501652835569458
307.241379,,0.004224181798757162,307.37,0.5019999742507935,-2.50773283935408
307.70689699999997,,0.003204245618542944,307.833,0.5249999761581421,-2.4571244784866484
308.172414,,0.003085787673776963,308.299,0.5170000195503235,-2.4740253339608973
308.637931,,0.0034631267397783536,308.763,0.5080000162124634,-2.4930923314984454
309.103448,,0.003056235113334021,309.228,0.5249999761581421,-2.4555186700454272
309.568966,,0.0009921086694684364,309.693,0.531000018119812,-2.4419300080940953
310.034483,,0.0022832748770543056,310.159,0.5270000100135803,-2.450163412713392
310.5,,0.005300643080828981,310.619,0.515999972820282,-2.4736979889122828
310.96551700000003,,0.006822728291513123,311.084,0.5170000195503235,-2.4711529655948863
311.431034,,0.0068779033477374,311.552,0.515999972820282,-2.473041396385143
311.896552,,0.006477707628132949,312.014,0.5090000033378601,-2.4880867284293897
312.362069,,0.006379026569148824,312.482,0.5070000290870667,-2.492330777915409
312.827586,,0.006428929347171869,312.944,0.527999997138977,-2.4465614162238936
313.29310300000003,,0.006088855251182442,313.415,0.5019999742507935,-2.5032843743072832
313.758621,,0.005098644021190529,313.877,0.5289999842643738,-2.444632494194193
314.224138,,0.00351144993657189,314.343,0.503000020980835,-2.501537427194896
314.689655,,0.0015644003009815625,314.807,0.5070000290870667,-2.493163923420353
315.155172,,0.00034992861080735023,315.272,0.515999972820282,-2.4739680673073914
315.62068999999997,,0.00203657251635223,315.737,0.5260000228881836,-2.452650884068209
316.086207,,0.0038870581113482515,316.203,0.5289999842643738,-2.4466270034359803
316.551724,,0.006355246477911854,316.671,0.5299999713897705,-2.444986908652652
317.017241,,0.008894432227770647,317.129,0.515999972820282,-2.4760367170043476
317.482759,,0.01008198091751848,317.601,0.515999972820282,-2.4765793071593407
317.94827599999996,,0.00924056561308316,318.059,0.5090000033378601,-2.492349973157372
318.413793,,0.007443540265416672,318.527,0.5260000228881836,-2.4557946175496617
318.87931000000003,,0.006367616882914737,318.989,0.515999972820282,-2.478009308414315
319.344828,,0.006466319719821874,319.46,0.515999972820282,-2.478370593841083
319.810345,,0.006830464355841834,319.922,0.492000013589859,-2.5309420099736006
320.275862,,0.006656578568462028,320.386,0.5059999823570251,-2.5006393322612444
320.741379,,0.006250192739987728,320.855,0.5199999809265137,-2.470244400376857
321.20689699999997,,0.006470568475672764,321.314,0.5249999761581421,-2.4593607755154063
321.672414,,0.007489684194570913,321.779,0.5139999985694885,-2.483238178743869
322.137931,,0.00823935250099182,322.244,0.5339999794960022,-2.4394826754493195
322.603448,,0.007132618337595677,322.711,0.5199999809265137,-2.4697114714553896
323.068966,,0.003570111524984215,323.177,0.5049999952316284,-2.50203779819212
323.53448299999997,,0.0011113553992145957,323.641,0.5170000195503235,-2.47547080792089
324.0,,0.004379799001349861,324.106,0.515999972820282,-2.4771693811015387
324.465517,,0.004450890083391864,324.578,0.5149999856948853,-2.4788252814233473
324.931034,,0.001586088480758249,325.036,0.5379999876022339,-2.4281667004919365
325.396552,,0.002396009518604218,325.504,0.5210000276565552,-2.464643423280048
325.86206899999996,,0.005686423924810037,325.967,0.5379999876022339,-2.4270528003962633
326.327586,,0.007644175592328082,326.43,0.5149999856948853,-2.4766318400815495
326.793103,,0.008748221725142313,326.9,0.515999972820282,-2.4739640575787947
327.258621,,0.009644780643730352,327.365,0.5130000114440918,-2.480067165988976
327.724138,,0.010312260534212038,327.828,0.5180000066757202,-2.46881108936861
328.189655,,0.010166974952078056,328.294,0.5049999952316284,-2.4968521118683995
328.655172,,0.008862368764555584,328.755,0.5130000114440918,-2.47923195406661
329.12068999999997,,0.006798894443900453,329.22,0.5210000276565552,-2.4617081854611023
329.586207,,0.004837329769436085,329.685,0.5270000100135803,-2.4486407257780822
330.051724,,0.003646011038367284,330.151,0.46700000762939453,-2.5794638308395754
330.517241,,0.0033656450840937008,330.618,0.5170000195503235,-2.4707334011745763
330.982759,,0.003729950781051374,331.084,0.5120000243186951,-2.481919846086897
331.44827599999996,,0.004228704788551904,331.545,0.5180000066757202,-2.4692225266355208
331.913793,,0.00411717273353882,332.015,0.5070000290870667,-2.4936320655869455
332.37931,,0.0026953500265411105,332.478,0.515999972820282,-2.474525154385894
332.844828,,2.2733048222215013e-05,332.941,0.5249999761581421,-2.4554587330703863
333.310345,,0.0027887915941823558,333.404,0.5270000100135803,-2.4516661487714644
333.77586199999996,,0.0044619357550885926,333.874,0.5680000185966492,-2.3629112050221104
334.241379,,0.004810954667994443,334.339,0.5379999876022339,-2.428826770016043
334.706897,,0.004844273150812488,334.806,0.5120000243186951,-2.4859976608723873
335.17241399999995,,0.005569337070736629,335.264,0.5120000243186951,-2.4864792060360257
335.637931,,0.006887866047042221,335.733,0.5059999823570251,-2.4999739963613936
336.103448,,0.00768925794805483,336.198,0.5400000214576721,-2.4262504651113814
336.56896600000005,,0.006926448528971928,336.663,0.5249999761581421,-2.4591970500222686
337.034483,,0.004697420824963426,337.129,0.5059999823570251,-2.5007662730429914
337.5,,0.0023738868926868515,337.593,0.5299999713897705,-2.4485568845540455
337.965517,,0.0014560137785696865,338.059,0.531000018119812,-2.4463565413759225
338.431034,,0.0021111135675994023,338.519,0.5120000243186951,-2.487629976250011
338.89655200000004,,0.003052198632652435,338.99,0.5149999856948853,-2.4808782204887714
339.36206899999996,,0.003056540296844976,339.452,0.5230000019073486,-2.463144753166178
339.827586,,0.0023135259748293187,339.914,0.5049999952316284,-2.5019771219441416
340.293103,,0.0019206072398716275,340.382,0.5419999957084656,-2.4209161996185973
340.758621,,0.0022859198929249475,340.844,0.5299999713897705,-2.446554528123557
341.224138,,0.0025971669953361812,341.31,0.5049999952316284,-2.5004762793631374
341.68965499999996,,0.002002877403856162,341.774,0.5170000195503235,-2.4737667277423148
342.155172,,0.0008989154111972969,342.239,0.5299999713897705,-2.444874533020887
342.62069,,0.0006310059323457305,342.705,0.531000018119812,-2.4421385293342457
343.086207,,0.0019401905029799188,343.17,0.4880000054836273,-2.5352934784878736
343.551724,,0.004051027117169216,343.637,0.5270000100135803,-2.449846480024238
344.01724099999996,,0.005519609266284093,344.103,0.5049999952316284,-2.4973589583495532
344.48275900000004,,0.005731742202956276,344.571,0.5099999904632568,-2.4861225586659743
344.948276,,0.0051358802186222425,345.033,0.5189999938011169,-2.4662568169232806
345.413793,,0.004125455650678567,345.496,0.5180000066757202,-2.468270327024212
345.87931,,0.002437721507894148,345.959,0.5189999938011169,-2.4660243004398104
346.344828,,2.0463039170406275e-05,346.43,0.5090000033378601,-2.487843324820514
346.81034500000004,,0.002168875710623504,346.892,0.515999972820282,-2.4727246014498805
347.275862,,0.002982269799390883,347.358,0.5,-2.5078100818406956
347.741379,,0.0024095491599795847,347.82,0.5180000066757202,-2.4689100920492737
348.206897,,0.0013768469485648325,348.286,0.5090000033378601,-2.488912305336058
348.672414,,0.0004446688950153728,348.753,0.5270000100135803,-2.450157157776178
349.13793100000004,,0.00045894100883707683,349.219,0.515999972820282,-2.4746346693113557
349.60344799999996,,0.001102283631367835,349.685,0.5090000033378601,-2.4904336430045846
350.068966,,0.0008234844563407767,350.144,0.5059999823570251,-2.4975380190042062
350.534483,,0.0002307380450633372,350.611,0.503000020980835,-2.504644985960878
351.0,,0.0006106696197508394,351.077,0.5099999904632568,-2.489950799502546
351.465517,,0.0008504436453818689,351.54,0.5049999952316284,-2.501368266098763
351.93103399999995,,0.003342708294070636,352.01,0.5210000276565552,-2.4669855644025036
352.396552,,0.0048117271179508505,352.471,0.515999972820282,-2.4782911115918953
352.862069,,0.0042288714865068855,352.94,0.5149999856948853,-2.480805512921053
353.32758600000005,,0.002368969268609493,353.404,0.5099999904632568,-2.491947974891996
353.793103,,0.0005239038500316823,353.866,0.5139999985694885,-2.483388449940224
354.258621,,0.0006406676627262338,354.332,0.5130000114440918,-2.4856231676094045
354.72413800000004,,0.0010159531155703198,354.796,0.5320000052452087,-2.444183783573577
355.189655,,0.0008101200498648672,355.262,0.5049999952316284,-2.5028622795417905
355.655172,,0.0006056630429396674,355.726,0.5210000276565552,-2.467763575021929
356.12069,,0.0010614808266647421,356.192,0.527999997138977,-2.4521848229877587
356.586207,,0.002368065910620065,356.656,0.5149999856948853,-2.4801007815863567
357.05172400000004,,0.004189134429388206,357.122,0.5320000052452087,-2.442591546087118
357.517241,,0.005926563894184109,357.589,0.5170000195503235,-2.4747479267983032
357.982759,,0.0068090601935046876,358.054,0.515999972820282,-2.4763686329671835
358.448276,,0.006178794663662347,358.515,0.5210000276565552,-2.4649000043215596
358.913793,,0.004275326929895581,358.985,0.453000009059906,-2.6124746248821333
359.37931000000003,,0.002543084926371655,359.448,0.5210000276565552,-2.46377346883203
359.844828,,0.002466274115611163,359.911,0.5090000033378601,-2.489400932076681
360.310345,,0.0038495982233652235,360.382,0.5170000195503235,-2.4715068085388845
360.775862,,0.004713170051448021,360.844,0.5199999809265137,-2.464571686503338
361.241379,,0.003391738754340467,361.31,0.5149999856948853,-2.4751433930607707
361.706897,,0.0006223587129879537,361.774,0.5210000276565552,-2.461837501276472
362.172414,,0.0009981982934143708,362.239,0.5090000033378601,-2.487842345196566
362.63793100000004,,0.00015990327259295892,362.704,0.5040000081062317,-2.498696187137707
363.103448,,0.0029373148589929405,363.171,0.5339999794960022,-2.433398034925929
363.568966,,0.004830380549789297,363.63,0.515999972820282,-2.4727730644678867
364.034483,,0.0048104228765768345,364.095,0.5009999871253967,-2.5057056588293025
364.5,,0.003859862470601431,364.563,0.5070000290870667,-2.4929731283904872
364.96551700000003,,0.002957342942608974,365.025,0.5099999904632568,-2.486852837041716
365.431034,,0.0018234546968098524,365.493,0.4970000088214874,-2.51565412985679
365.896552,,3.192224059544735e-05,365.955,0.5299999713897705,-2.444286032654446
366.362069,,0.0017569109229551624,366.419,0.5120000243186951,-2.484060270214676
366.827586,,0.0023624777040906373,366.889,0.5289999842643738,-2.4475959087472132
367.29310300000003,,0.0012922411718807045,367.354,0.5099999904632568,-2.489559148736252
367.758621,,0.0009007390125460856,367.817,0.5379999876022339,-2.429104575300051
368.224138,,0.0028377154992647257,368.283,0.515999972820282,-2.4775440494982477
368.689655,,0.002888456254047131,368.748,0.5379999876022339,-2.4300687103675798
369.155172,,0.0005431352333251573,369.214,0.5419999957084656,-2.4217404718323627
369.62068999999997,,0.0024744609887826334,369.679,0.5139999985694885,-2.4830486030607224
370.086207,,0.003440671486059784,370.144,0.5249999761581421,-2.4593005506964065
370.55172400000004,,0.001588417951472873,370.604,0.515999972820282,-2.4790302849195767
371.017241,,0.0008510196650766054,371.069,0.5370000004768372,-2.4333014648886047
371.482759,,0.0011990979773579206,371.537,0.5049999952316284,-2.5029415532688186
371.948276,,0.0006418342551322919,372.0,0.5130000114440918,-2.4853392207955625
372.413793,,0.00245127120108946,372.468,0.5249999761581421,-2.458931527551174
372.87931000000003,,0.0025321020479537287,372.93,0.5170000195503235,-2.4760135403452885
373.344828,,0.0013630719644765863,373.4,0.5260000228881836,-2.4559861531544667
373.810345,,0.0005133120256723039,373.863,0.5419999957084656,-2.420648310508089
374.275862,,0.000755303738981813,374.328,0.5419999957084656,-2.4201228498084335
374.741379,,0.0015205788363481067,374.792,0.5130000114440918,-2.4827487016673015
375.20689699999997,,0.0017932573600920815,375.258,0.5339999794960022,-2.4364305405823306
375.672414,,0.0012131257548918118,375.722,0.5789999961853027,-2.337829434180291
376.137931,,0.00031402169908924347,376.188,0.5170000195503235,-2.4723649590594934
376.603448,,0.000167186214177461,376.653,0.5540000200271606,-2.3912529591903287
377.068966,,5.395593900466341e-05,377.119,0.5210000276565552,-2.4627010465365893
377.53448299999997,,0.0001650029004144205,377.585,0.5149999856948853,-2.4753949051331072
378.0,,0.00018939747090327888,378.044,0.5170000195503235,-2.4707411315448176
378.465517,,0.0013451450319848124,378.512,0.5139999985694885,-2.4770717122493426
378.931034,,0.002656231138712483,378.974,0.5070000290870667,-2.4922142867800274
379.396552,,0.002907284620118864,379.444,0.5329999923706055,-2.4355621799309857
379.862069,,0.0014122597215046504,379.907,0.5099999904632568,-2.48576410493922
380.327586,,0.0011602775553048402,380.373,0.515999972820282,-2.4728827785382586
380.79310300000003,,0.003369356659561705,380.838,0.5120000243186951,-2.4818795610929305
381.258621,,0.004451699627923386,381.304,0.5090000033378601,-2.4887807921896727
381.724138,,0.004924457488392298,381.764,0.5,-2.5088256634851276
382.189655,,0.00575477894406965,382.229,0.578000009059906,-2.3393849839967817
382.655172,,0.0073658213201020315,382.696,0.5329999923706055,-2.4379577624332476
383.12068999999997,,0.009746711140898768,383.162,0.5799999833106995,-2.3361170258521717
383.586207,,0.013216719688273648,383.626,0.5149999856948853,-2.4782902577618735
384.051724,,0.018456642047501356,384.092,0.5379999876022339,-2.4287314315757094
384.517241,,0.02561944267963923,384.56,0.5339999794960022,-2.4379687285234524
384.982759,,0.03391145236559876,385.022,0.5130000114440918,-2.4841996154938553
385.44827599999996,,0.042425814071358085,385.485,0.5120000243186951,-2.4868004043135694
385.913793,,0.050896933937988054,385.955,0.5170000195503235,-2.4762596122758107
386.37931,,0.05884951338677071,386.415,0.5419999957084656,-2.4220647551878334
386.84482799999995,,0.06404544382015344,386.885,0.5180000066757202,-2.4745336785821297
387.310345,,0.06257858891780896,387.344,0.5509999990463257,-2.4027240306910067
387.775862,,0.05112933970515412,387.815,0.5339999794960022,-2.439748306568879
388.241379,,0.029380665737178794,388.28,0.5210000276565552,-2.467960112635353
388.70689699999997,,0.0005823007876945551,388.744,0.5249999761581421,-2.4590417093132566
389.172414,,0.029984996962011564,389.21,0.503000020980835,-2.5066815681601544
389.637931,,0.05746824783436082,389.674,0.5070000290870667,-2.497600000649883
390.103448,,0.07903324948820692,390.14,0.5130000114440918,-2.484096130796683
390.56896600000005,,0.09346882679966932,390.604,0.5090000033378601,-2.492326808209131
391.03448299999997,,0.09993015810999481,391.07,0.5090000033378601,-2.491805886647193
391.5,,0.09800787624682072,391.533,0.5379999876022339,-2.4280827064056862
391.965517,,0.08895712532434694,391.996,0.5299999713897705,-2.444963758436722
392.431034,,0.07570338702955544,392.459,0.5099999904632568,-2.487999641619184
392.896552,,0.061062473463701965,392.929,0.5120000243186951,-2.4831336110245306
393.36206899999996,,0.0464263539333222,393.39,0.5419999957084656,-2.4173092006746537
393.827586,,0.03227442599393371,393.859,0.5210000276565552,-2.4626528282141993
394.293103,,0.01913666170542042,394.325,0.5049999952316284,-2.4971733450373566
394.75862099999995,,0.007646020492904183,394.79,0.5199999809265137,-2.4642366590955493
395.224138,,0.0017007422211144565,395.255,0.531000018119812,-2.440102704748076
395.68965499999996,,0.008376634981084805,395.715,0.5130000114440918,-2.4792426019183442
396.155172,,0.01199246182459717,396.18,0.515999972820282,-2.472726465667569
396.62069,,0.013147244353338403,396.645,0.515999972820282,-2.4728412095179824
397.086207,,0.013583204307450655,397.111,0.5249999761581421,-2.4534392397233913
397.551724,,0.014782547681739174,397.578,0.5109999775886536,-2.48423082468353
398.017241,,0.016640223470698018,398.043,0.4880000054836273,-2.5347065701549725
398.48275900000004,,0.0180696731538937,398.504,0.5170000195503235,-2.4719581622960107
398.94827599999996,,0.01859207828604726,398.974,0.5239999890327454,-2.457191519573299
399.413793,,0.01867567530746291,399.437,0.5180000066757202,-2.4707829281323903
399.87931,,0.018894414638664165,399.9,0.5130000114440918,-2.482215574918954
400.344828,,0.01973629701032631,400.365,0.5210000276565552,-2.4653291412969494
400.810345,,0.022141348485966855,400.836,0.5170000195503235,-2.474573103471571
401.27586199999996,,0.02705947507733315,401.294,0.5339999794960022,-2.4380354773306228
401.741379,,0.03401802667662369,401.76,0.5379999876022339,-2.4297742310865624
402.206897,,0.040934078764197794,402.226,0.5149999856948853,-2.4802767145403184
402.672414,,0.045941918886575346,402.692,0.5299999713897705,-2.447919298949507
403.137931,,0.04890987033445224,403.158,0.5329999923706055,-2.4416244418979813
403.60344799999996,,0.05058915075860165,403.622,0.5419999957084656,-2.4221688258177476
404.068966,,0.050630020795473483,404.088,0.5049999952316284,-2.5028380665971692
404.534483,,0.047176248715987155,404.556,0.515999972820282,-2.478838653172393
405.0,,0.0385617907028105,405.018,0.5339999794960022,-2.4394963682314112
405.465517,,0.024996001141456933,405.486,0.5099999904632568,-2.491568794696957
405.931034,,0.008376244199561164,405.948,0.5139999985694885,-2.4825578364857543
406.39655200000004,,0.00910432156314501,406.411,0.5109999775886536,-2.488725936369388
406.862069,,0.02550812565085622,406.874,0.5149999856948853,-2.4795832933226984
407.327586,,0.038481334010233015,407.339,0.5299999713897705,-2.4464282925098955
407.793103,,0.04530581495563051,407.806,0.5249999761581421,-2.4568130761305893
408.258621,,0.044860363826967856,408.272,0.515999972820282,-2.47589502341101
408.72413800000004,,0.0394228920888347,408.74,0.5009999871253967,-2.508048220052174
409.18965499999996,,0.03341094292951743,409.206,0.5149999856948853,-2.477036580160025
409.655172,,0.029716636825042404,409.67,0.5059999823570251,-2.496165301462165
410.12069,,0.027579716119377172,410.129,0.5149999856948853,-2.476124170826499
410.586207,,0.024225668736240602,410.601,0.5109999775886536,-2.4844643202605146
411.05172400000004,,0.018080167589069437,411.059,0.5180000066757202,-2.468909126906467
411.51724099999996,,0.010080119840548763,411.527,0.5199999809265137,-2.4643259978118865
411.982759,,0.00243604819253656,411.989,0.5170000195503235,-2.4707211410082968
412.448276,,0.003165014680116926,412.46,0.5270000100135803,-2.4488830108728137
412.913793,,0.006325295451616987,412.922,0.5350000262260437,-2.4314920102818407
413.37931,,0.007669151976157099,413.39,0.5120000243186951,-2.4817275802775427
413.844828,,0.00803456458921504,413.852,0.5,-2.5080833049055333
414.31034500000004,,0.007670072357781956,414.317,0.5239999890327454,-2.4560866261075107
414.775862,,0.006283099097687086,414.781,0.43799999356269836,-2.6438121772257097
415.241379,,0.0040226789381018644,415.247,0.5009999871253967,-2.50698018642851
415.706897,,0.001974421166930244,415.712,0.49799999594688416,-2.5139863054274434
416.172414,,0.0011657945245096121,416.178,0.5130000114440918,-2.4818080144221573
416.63793100000004,,0.001308050870716437,416.645,0.5130000114440918,-2.482324688932118
417.103448,,0.0010624444804607988,417.111,0.5139999985694885,-2.480661624172113
417.568966,,0.00042905207423390583,417.571,0.515999972820282,-2.476802827883455
418.034483,,0.002583952597104009,418.034,0.5149999856948853,-2.4794473833550335
418.5,,0.003942311040087325,418.504,0.5239999890327454,-2.460258526896814
418.96551700000003,,0.0034907463974321426,418.966,0.5189999938011169,-2.4715108442955502
419.43103399999995,,0.0015059329738567205,419.434,0.5320000052452087,-2.4434764900890884
419.896552,,0.0006806464898882676,419.897,0.515999972820282,-2.4785434143807903
420.362069,,0.0017939076921186796,420.363,0.5429999828338623,-2.419842468453525
420.827586,,0.0017028551757238635,420.825,0.5339999794960022,-2.4394831560095698
421.293103,,0.0013835833860002917,421.291,0.5249999761581421,-2.459033532117748
421.758621,,0.0017300650282070034,421.756,0.5149999856948853,-2.4806751904852167
422.22413800000004,,0.0026656130458239486,422.221,0.5049999952316284,-2.50223521749574
422.689655,,0.003575523850531732,422.685,0.5289999842643738,-2.449647160086659
423.15517200000005,,0.004061920912969978,423.151,0.5040000081062317,-2.5037482390141266
423.62069,,0.0037571536774328547,423.616,0.5210000276565552,-2.466293258947634
424.086207,,0.0019257295618456476,424.082,0.5170000195503235,-2.47455026723496
424.55172400000004,,0.0018291231723818208,424.545,0.5120000243186951,-2.4849604496198903
425.017241,,0.006433017530592179,425.014,0.5199999809265137,-2.4670379969107166
425.482759,,0.009568711561885624,425.474,0.5059999823570251,-2.497050748757108
425.948276,,0.009423542461544181,425.944,0.5120000243186951,-2.483510723100651
426.413793,,0.006220959644163193,426.408,0.5149999856948853,-2.4765413885811487
426.87931000000003,,0.001973519098556703,426.87,0.5170000195503235,-2.4717979838751134
427.344828,,0.0013281167404032052,427.335,0.5070000290870667,-2.493257508420298
427.810345,,0.0032631731412525243,427.799,0.5130000114440918,-2.479927713031392
428.275862,,0.004676007973633929,428.265,0.5090000033378601,-2.488460942425422
428.741379,,0.0061029343608257755,428.732,0.5170000195503235,-2.4709318644387293
429.20689699999997,,0.0070747060453654614,429.197,0.5180000066757202,-2.4687372367519074
429.672414,,0.007119509889813251,429.664,0.5210000276565552,-2.4622687906016703
430.137931,,0.006776227113197593,430.129,0.5270000100135803,-2.4493451846760173
430.603448,,0.006917825118471006,430.589,0.5370000004768372,-2.4277821440303624
431.068966,,0.007399809794657471,431.055,0.5070000290870667,-2.4934329354580673
431.534483,,0.00729158829656091,431.523,0.5109999775886536,-2.4850693042210352
432.0,,0.006447940634064894,431.985,0.4970000088214874,-2.5159702281871406
432.46551700000003,,0.005906008991463995,432.456,0.5059999823570251,-2.496799112102636
432.931034,,0.006436315900775972,432.918,0.5180000066757202,-2.471114757567316
433.396552,,0.007466479159154288,433.386,0.5270000100135803,-2.451974142736876
433.862069,,0.007878264738551152,433.849,0.5360000133514404,-2.4328261063615817
434.327586,,0.007378191055493878,434.314,0.515999972820282,-2.4768373409400115
434.79310300000003,,0.006620623554247854,434.774,0.5320000052452087,-2.4423823509316622
435.258621,,0.006227403761572994,435.239,0.5210000276565552,-2.466704047735459
435.724138,,0.006099119814414571,435.704,0.4819999933242798,-2.5519714027490563
436.189655,,0.005586531961429677,436.17,0.5339999794960022,-2.438916857782776
436.655172,,0.004019536629000969,436.637,0.5090000033378601,-2.493545895617395
437.12068999999997,,0.0012180359662123587,437.103,0.5070000290870667,-2.497989120472207
437.586207,,0.0021262911137831875,437.571,0.5120000243186951,-2.4871032700415476
438.051724,,0.004673036614950298,438.033,0.5139999985694885,-2.4826748676738704
438.517241,,0.005494505595832662,438.5,0.5049999952316284,-2.502135647065094
438.982759,,0.00502038701178504,438.963,0.5260000228881836,-2.456165813453745
439.448276,,0.004646540745993021,439.426,0.5180000066757202,-2.473312447764979
439.913793,,0.005308607134057648,439.889,0.503000020980835,-2.5056543127529167
440.37931000000003,,0.006643278829120542,440.354,0.5299999713897705,-2.446448672184504
440.844828,,0.007620246374258099,440.824,0.5249999761581421,-2.4569266391518916
441.310345,,0.007772701364788265,441.29,0.527999997138977,-2.4499548758809864
441.775862,,0.007579364736317243,441.749,0.515999972820282,-2.475656157168418
442.241379,,0.007642289956742152,442.215,0.5249999761581421,-2.455612829766235
442.70689699999997,,0.007802871443011094,442.682,0.5249999761581421,-2.455197697747753
443.172414,,0.0074804048590141605,443.147,0.5289999842643738,-2.4461007385106432
443.637931,,0.006773451270756703,443.611,0.5090000033378601,-2.4893359741469148
444.103448,,0.006535317234343559,444.077,0.515999972820282,-2.4738031664658378
444.568966,,0.007123108591490805,444.545,0.503000020980835,-2.501907338280515
445.03448299999997,,0.00776059640704797,445.007,0.5239999890327454,-2.456008133670851
445.5,,0.007614633348431673,445.474,0.5260000228881836,-2.4515772365507598
445.965517,,0.006936911725439669,445.936,0.46799999475479126,-2.577942023976662
446.431034,,0.006547339650623363,446.404,0.5040000081062317,-2.4995912184485283
446.896552,,0.006643695877817102,446.867,0.5260000228881836,-2.4518153819095234
447.36206899999996,,0.0068076962111767916,447.332,0.5149999856948853,-2.476002407409419
447.827586,,0.006796785488484786,447.796,0.5170000195503235,-2.4719268084856436
448.29310300000003,,0.00644063559114025,448.262,0.527999997138977,-2.4482942672122423
448.758621,,0.004942460190709332,448.727,0.515999972820282,-2.474810596468525
449.224138,,0.0014278003690108283,449.192,0.5379999876022339,-2.427280761181883
449.689655,,0.00339923332947303,449.66,0.515999972820282,-2.475626824425106
450.155172,,0.00702719460607668,450.125,0.5210000276565552,-2.4651518849041514
450.62068999999997,,0.007390637824974922,450.589,0.503000020980835,-2.504776358253087
451.086207,,0.005095800996504226,451.055,0.515999972820282,-2.4768409638489377
451.551724,,0.0028250764896761466,451.515,0.5220000147819519,-2.4641220507913952
452.017241,,0.002677591491391887,451.985,0.5249999761581421,-2.457894211232586
452.482759,,0.004518850138955265,452.448,0.515999972820282,-2.477755785964151
452.94827599999996,,0.006677756984752552,452.911,0.5049999952316284,-2.501913338269785
453.413793,,0.007606125030210262,453.382,0.531000018119812,-2.445394178777008
453.87931,,0.006838187717443755,453.844,0.5299999713897705,-2.447627832221699
454.344828,,0.00499010732069046,454.31,0.5130000114440918,-2.4846474740533284
454.810345,,0.0032442274728693406,454.774,0.5199999809265137,-2.4693090402732536
455.27586199999996,,0.0025719838638413976,455.24,0.503000020980835,-2.5061909730977905
455.741379,,0.0030534350396358135,455.704,0.5239999890327454,-2.4602226913143115
456.206897,,0.003910283576232336,456.17,0.5199999809265137,-2.4686655982901455
456.672414,,0.004274775136671641,456.634,0.5120000243186951,-2.4857766533903756
457.137931,,0.0038220019822270248,457.1,0.531000018119812,-2.4440280860978643
457.603448,,0.0026642403103457088,457.563,0.5339999794960022,-2.437112325921134
458.06896600000005,,0.0009996935213655576,458.025,0.5049999952316284,-2.499899545426801
458.53448299999997,,0.0007885373651370491,458.493,0.5070000290870667,-2.495148166534739
459.0,,0.0018345210089201504,458.955,0.5339999794960022,-2.435942441325344
459.465517,,0.0011453822077284546,459.423,0.5339999794960022,-2.435582511423396
459.931034,,0.0012935420566298143,459.885,0.527999997138977,-2.448327383934999
460.39655200000004,,0.003884334497134652,460.351,0.5289999842643738,-2.445864830156173
460.86206899999996,,0.004476053241598086,460.814,0.5289999842643738,-2.4456325518373045
461.327586,,0.0023936100125006104,461.279,0.5130000114440918,-2.4803174299542476
461.793103,,0.0008631326241821877,461.744,0.515999972820282,-2.4736725231748715
462.258621,,0.0031293244707223345,462.21,0.5299999713897705,-2.443129731148884
462.724138,,0.003423781892443851,462.674,0.5049999952316284,-2.4976223234784825
463.18965499999996,,0.002180741218489014,463.139,0.5080000162124634,-2.491180251581404
463.655172,,0.00031631774879656494,463.604,0.5090000033378601,-2.4891600623624237
464.12069,,0.0013911427084578958,464.07,0.515999972820282,-2.4741269578956717
464.58620699999994,,0.0024422733326971246,464.54,0.527999997138977,-2.4482517619138977
465.051724,,0.0028833550379768554,465.003,0.5170000195503235,-2.472527686020072
465.517241,,0.003321256169252323,465.471,0.515999972820282,-2.475049690216541
465.98275900000004,,0.00399441797615446,465.933,0.5289999842643738,-2.447091990706858
466.448276,,0.0038792601815593707,466.394,0.515999972820282,-2.4757890036277908
466.913793,,0.0015926305966245129,466.863,0.45899999141693115,-2.600345877849468
467.37931,,0.002536268191357786,467.329,0.5210000276565552,-2.4656323651384686
467.844828,,0.006091492024048909,467.796,0.515999972820282,-2.476864998054592
468.31034500000004,,0.006853744284750067,468.254,0.515999972820282,-2.4771692149958926
468.77586199999996,,0.005071210699889369,468.719,0.5070000290870667,-2.4970369972661532
469.241379,,0.0029723659013564186,469.185,0.5210000276565552,-2.4667439615897404
469.706897,,0.00226145980167166,469.652,0.5170000195503235,-2.4756080777264193
470.172414,,0.002596492693557471,470.117,0.515999972820282,-2.4778733073509307
470.63793100000004,,0.0025270009846937603,470.582,0.5199999809265137,-2.4691798160182756
471.10344799999996,,0.001459903020513458,471.048,0.5099999904632568,-2.490921814582792
471.568966,,0.0003176620382984353,471.511,0.5080000162124634,-2.495171093793477
472.034483,,0.00024665783403484277,471.981,0.5070000290870667,-2.497182292132185
472.5,,0.0010258744806633626,472.441,0.503000020980835,-2.505675758750663
472.965517,,0.0011912555197431964,472.904,0.5090000033378601,-2.4923363104060945
473.43103399999995,,0.00020533027346941485,473.369,0.5109999775886536,-2.4876734747379343
473.89655200000004,,0.0023086462821741457,473.84,0.5040000081062317,-2.502590065779188
474.362069,,0.0031937478272225767,474.306,0.5170000195503235,-2.4739159935820196
474.827586,,0.0018829006226329485,474.764,0.5170000195503235,-2.4735573988329693
475.293103,,0.00048704580812025823,475.23,0.5049999952316284,-2.499346895369865
475.758621,,0.0016905772025556254,475.696,0.5189999938011169,-2.4685069649219233
476.22413800000004,,0.0006780618293598515,476.163,0.515999972820282,-2.474729902755695
476.689655,,0.0014164809297484697,476.63,0.5090000033378601,-2.489702770221044
477.155172,,0.002675342786025904,477.095,0.5410000085830688,-2.4197520620228654
477.62069,,0.002403666053435922,477.556,0.5130000114440918,-2.4805705916155394
478.086207,,0.0013447357788480415,478.026,0.515999972820282,-2.473907305771691
478.55172400000004,,0.0003496125449031786,478.489,0.5170000195503235,-2.4716615249064384
479.01724099999996,,0.0003561957860441856,478.951,0.5339999794960022,-2.4346194018844742
479.482759,,0.0007198885916985659,479.419,0.5419999957084656,-2.417245995764707
479.948276,,0.0006751698044279508,479.881,0.5170000195503235,-2.471826911305918
480.413793,,0.000661655597376029,480.346,0.5299999713897705,-2.4436750330568566
480.87931000000003,,0.0013861546201765686,480.81,0.5130000114440918,-2.480933012562168
481.344828,,0.00259536886438053,481.275,0.515999972820282,-2.474662084387449
481.810345,,0.0029970773491367615,481.741,0.6100000143051147,-2.2701679006754762
482.275862,,0.0020181868015182324,482.207,0.4950000047683716,-2.5210347449864314
482.74137900000005,,0.000720252987387548,482.675,0.5170000195503235,-2.4734419672117625
483.206897,,0.00023497486732655621,483.14,0.5379999876022339,-2.42803383367228
483.672414,,0.0002939917181768042,483.601,0.5249999761581421,-2.456694080085437
484.13793100000004,,0.0002684226592424657,484.066,0.5099999904632568,-2.4896959084449235
484.603448,,0.000625437065710306,484.53,0.5339999794960022,-2.4377052856134624
485.068966,,0.0019891099203872315,484.999,0.5230000019073486,-2.461932622512202
485.534483,,0.0034701352809705034,485.46,0.5180000066757202,-2.4730454611643014
486.0,,0.003491358659751762,485.929,0.5249999761581421,-2.4579655283923887
486.46551700000003,,0.0021122025585857064,486.39,0.5130000114440918,-2.4842256249673027
486.931034,,0.0012262414360785022,486.86,0.5189999938011169,-2.471212700006598
487.396552,,0.0022165571979252396,487.326,0.4970000088214874,-2.519143109746342
487.862069,,0.004194012286003839,487.785,0.5299999713897705,-2.447189299867471
488.327586,,0.004893789256818846,488.251,0.5329999923706055,-2.440537168506973
488.79310300000003,,0.0031149283995322683,488.715,0.5080000162124634,-2.494832881348393
489.258621,,0.00016381005548227138,489.181,0.515999972820282,-2.4771849965434347
489.724138,,0.0012838736528959784,489.646,0.5230000019073486,-2.46167407263124
490.189655,,4.8221629758470664e-05,490.111,0.5699999928474426,-2.358982456445192
490.655172,,0.002010290559421891,490.578,0.5149999856948853,-2.478486497763451
491.12069,,0.00190869072775012,491.044,0.5299999713897705,-2.445469409332855
491.586207,,0.001030470756021577,491.504,0.546999990940094,-2.408089866947459
492.05172400000004,,0.004464377190111831,491.973,0.5109999775886536,-2.486184116865825
492.517241,,0.005952520865192019,492.434,0.5170000195503235,-2.4727916901345943
492.982759,,0.005711708653231664,492.903,0.5210000276565552,-2.463783678002159
493.448276,,0.005935031342759979,493.369,0.5040000081062317,-2.500563554490109
493.913793,,0.008149089156145907,493.833,0.5199999809265137,-2.4654924275019456
494.37931000000003,,0.011994924403473517,494.298,0.5120000243186951,-2.4827595439275476
494.844828,,0.01606746316917316,494.764,0.5149999856948853,-2.4761173971925734
495.310345,,0.019090379036655288,495.229,0.515999972820282,-2.473891403421575
495.775862,,0.020438158720051166,495.689,0.5070000290870667,-2.4935120838106775
496.241379,,0.020159154386876314,496.154,0.5109999775886536,-2.4848705934080213
496.70689699999997,,0.018500129590032395,496.619,0.515999972820282,-2.4741078902065476
497.172414,,0.015134654854788541,497.084,0.5220000147819519,-2.461219382623053
497.637931,,0.00921438024922353,497.552,0.4880000054836273,-2.535524362756189
498.103448,,0.0007661537990155256,498.015,0.5109999775886536,-2.4856871821665742
498.568966,,0.008207073443819362,498.485,0.515999972820282,-2.4750975138137123
499.03448299999997,,0.014835156834920905,498.948,0.5180000066757202,-2.4710653289911004
499.5,,0.01780693264580266,499.411,0.5249999761581421,-2.4561511074521754
499.96551700000003,,0.018258718736841636,499.874,0.5149999856948853,-2.478274233035904
500.431034,,0.01814671296573914,500.339,0.5249999761581421,-2.4568143391117907
500.89655200000004,,0.018186303728122005,500.806,0.5210000276565552,-2.465835039664114
501.362069,,0.017662046565761952,501.271,0.5180000066757202,-2.4726474112198127
501.827586,,0.01592416959452782,501.74,0.5299999713897705,-2.4467416781660245
502.293103,,0.013480912446694944,502.199,0.527999997138977,-2.451290864747963
502.758621,,0.01136575115549248,502.67,0.5070000290870667,-2.4971827751322455
503.224138,,0.00978868588625189,503.136,0.5370000004768372,-2.43190820713351
503.68965499999996,,0.00806945465049577,503.601,0.5109999775886536,-2.488579829374079
504.15517200000005,,0.00603701852220045,504.059,0.5249999761581421,-2.4580468487897704
504.62068999999997,,0.004717918451789608,504.53,0.5070000290870667,-2.49717348920325
505.08620699999994,,0.004896052719322094,504.992,0.5270000100135803,-2.4534576368604575
505.55172400000004,,0.0054475515824723795,505.46,0.5210000276565552,-2.4663369924398877
506.017241,,0.004186085770819574,505.922,0.5199999809265137,-2.4682797337719267
506.48275899999993,,0.00046959318866408346,506.39,0.5180000066757202,-2.472365196901591
506.948276,,0.003907947703310516,506.852,0.5040000081062317,-2.5025677263033344
507.413793,,0.006730506578674841,507.318,0.5249999761581421,-2.456500422853844
507.87931,,0.007614081759926615,507.782,0.5320000052452087,-2.440926150844909
508.344828,,0.007940359464063282,508.248,0.4339999854564667,-2.654113526374984
508.810345,,0.00908371120103809,508.715,0.531000018119812,-2.4424792176736045
509.27586199999996,,0.011029815063242037,509.18,0.5049999952316284,-2.49884196767161
509.74137900000005,,0.012389111814203982,509.645,0.5189999938011169,-2.4680892416558033
510.20689699999997,,0.011610022235199568,510.111,0.515999972820282,-2.4744117246700323
510.67241399999995,,0.008542906286972556,510.575,0.5139999985694885,-2.478599828063971
511.13793100000004,,0.0048958657464749445,511.041,0.5130000114440918,-2.4806587862537306
511.603448,,0.0027515495315016477,511.503,0.5230000019073486,-2.458805418937133
512.0689659999999,,0.00254494039235765,511.966,0.5210000276565552,-2.4631499776574253
512.534483,,0.0028750268970899094,512.434,0.5320000052452087,-2.4392261910255084
513.0,,0.002282525347766951,512.896,0.5090000033378601,-2.4894289327738566
513.465517,,0.00060540720728487,513.362,0.5299999713897705,-2.443820797877807
513.931034,,0.0015094309249045273,513.826,0.5130000114440918,-2.481046127751738
514.396552,,0.00356922556494874,514.291,0.49399998784065247,-2.5226684562633683
514.862069,,0.005224336305422432,514.756,0.5289999842643738,-2.4466764348875003
515.327586,,0.006066118608173586,515.222,0.5189999938011169,-2.4687474140750036
515.793103,,0.006174913387052103,515.689,0.503000020980835,-2.5039052173491467
516.258621,,0.006373305199312923,516.155,0.515999972820282,-2.475888584149727
516.724138,,0.0072101025958057775,516.619,0.5170000195503235,-2.4740121154543204
517.189655,,0.00798257656739553,517.084,0.5120000243186951,-2.485194728235541
517.655172,,0.007286666416454664,517.548,0.5239999890327454,-2.459318570317066
518.1206900000001,,0.0042088098541337845,518.011,0.5210000276565552,-2.466091725193923
518.5862070000001,,0.0013709282905892074,518.474,0.5239999890327454,-2.4597555549618364
519.051724,,0.00901497347361649,518.944,0.5210000276565552,-2.466447554876499
519.517241,,0.01767695111554688,519.404,0.5270000100135803,-2.453483646249619
519.982759,,0.02604060479669527,519.874,0.5120000243186951,-2.4862201717267425
520.448276,,0.03362554097373993,520.34,0.5210000276565552,-2.466616834345938
520.9137929999999,,0.04095590600229336,520.805,0.5230000019073486,-2.4622118705937903
521.37931,,0.0477090036522141,521.264,0.5270000100135803,-2.4533987568075855
521.844828,,0.05111530599962115,521.73,0.5130000114440918,-2.48375397936511
522.310345,,0.04737286139600664,522.196,0.5320000052452087,-2.4421713097996403
522.7758620000001,,0.03493249779737655,522.663,0.5299999713897705,-2.446303514364194
523.241379,,0.015918927550053714,523.128,0.5239999890327454,-2.4591204062214365
523.7068969999999,,0.005610249875789623,523.593,0.5389999747276306,-2.426164005790606
524.172414,,0.026250243067490287,524.058,0.5440000295639038,-2.4149804096487415
524.637931,,0.044157963583513204,524.519,0.5339999794960022,-2.4364720956503705
525.103448,,0.05813795303454894,524.988,0.5320000052452087,-2.440539317968993
525.568966,,0.0666383861212189,525.449,0.5540000200271606,-2.3923328135659774
526.034483,,0.06827940450234729,525.918,0.5460000038146973,-2.4095076822602697
526.5,,0.06349248891743528,526.382,0.5920000076293945,-2.3090642546813633
526.9655170000001,,0.0549904985179124,526.844,0.5419999957084656,-2.417806435147843
527.4310340000001,,0.04594259363237569,527.309,0.5490000247955322,-2.4024076623179216
527.8965519999999,,0.03776661397170221,527.774,0.5260000228881836,-2.4524163970489794
528.362069,,0.03000471126361796,528.24,0.5410000085830688,-2.4196881019747116
528.827586,,0.021988653283893083,528.705,0.5419999957084656,-2.417513915853559
529.293103,,0.013912587323320751,529.17,0.5429999828338623,-2.415392287730627
529.7586210000001,,0.006204205009349627,529.637,0.5429999828338623,-2.4154999911603428
530.224138,,0.0013271429942317778,530.103,0.5669999718666077,-2.3633669865578577
530.689655,,0.008847803088191783,530.571,0.5509999990463257,-2.3984212596216263
531.155172,,0.015219341967549253,531.034,0.5490000247955322,-2.4030098841272327
531.62069,,0.018515668378648632,531.496,0.5460000038146973,-2.4098058886377687
532.086207,,0.01833615259984297,531.959,0.5509999990463257,-2.399193213690059
532.5517239999999,,0.01673583477662618,532.426,0.5960000157356262,-2.3014453208308043
533.017241,,0.016072721104578414,532.889,0.5830000042915344,-2.3300593197934445
533.482759,,0.016492435847657305,533.354,0.6119999885559082,-2.267160309626307
533.9482760000001,,0.016343792585456617,533.824,0.5929999947547913,-2.3088175482750244
534.413793,,0.014695716301360823,534.29,0.5920000076293945,-2.31123246684918
534.87931,,0.012494974777897237,534.756,0.5789999961853027,-2.3397582255935285
535.344828,,0.0111479055247155,535.214,0.593999981880188,-2.3072431034303826
535.810345,,0.010788422777654783,535.685,0.597000002861023,-2.3008279335319552
536.275862,,0.01053404096628006,536.144,0.6019999980926514,-2.29000799760075
536.7413789999999,,0.010016426415486073,536.616,0.6209999918937683,-2.248637098113272
537.206897,,0.009807753901297173,537.074,0.6039999723434448,-2.2856470765356613
537.672414,,0.01027712865210673,537.544,0.6309999823570251,-2.2267471280256985
538.137931,,0.010824442276337469,538.007,0.6060000061988831,-2.2810904045512643
538.6034480000001,,0.010732490694860295,538.475,0.6060000061988831,-2.280925904195229
539.0689659999999,,0.010345587068655309,538.937,0.640999972820282,-2.2044727260752994
539.5344829999999,,0.010773885142846303,539.404,0.6079999804496765,-2.2761377387328396
540.0,,0.012429686234684139,539.867,0.6230000257492065,-2.243205687829301
540.465517,,0.014323328377582795,540.333,0.6079999804496765,-2.2756202064516438
540.931034,,0.014980813636096098,540.797,0.6019999980926514,-2.288422737726584
541.396552,,0.013720753980087553,541.263,0.5960000157356262,-2.301230604098151
541.862069,,0.010859671819532563,541.729,0.6169999837875366,-2.2552287563421247
542.327586,,0.007172255970612655,542.196,0.6010000109672546,-2.2898580001342874
542.7931030000001,,0.003712118585540646,542.66,0.5929999947547913,-2.307086773790394
543.258621,,0.001843666200445925,543.119,0.6209999918937683,-2.2459188982453226
543.7241379999999,,0.0024799893022362392,543.586,0.6399999856948853,-2.2043972105544922
544.189655,,0.004844811481054018,544.052,0.6700000166893005,-2.1389504036719735
544.655172,,0.006579888725834672,544.515,0.6129999756813049,-2.263088219637793
545.12069,,0.005862391808558247,544.985,0.6759999990463257,-2.1258313500042547
545.5862070000001,,0.0033897932029913584,545.445,0.628000020980835,-2.2304471681659646
546.051724,,0.0016834949002371316,545.915,0.6600000262260437,-2.1608120750946282
546.517241,,0.0022991424734960736,546.385,0.6499999761581421,-2.1827183708544147
546.982759,,0.004142361940858192,546.841,0.656000018119812,-2.1697997378353913
547.448276,,0.004625035230993692,547.307,0.6209999918937683,-2.2462351690530333
547.9137929999999,,0.002062923127244407,547.774,0.6740000247955322,-2.1309730134927025
548.3793099999999,,0.0031305057912059575,548.239,0.6240000128746033,-2.2401286069892974
548.844828,,0.009015813475445163,548.704,0.6230000257492065,-2.2425410572837836
549.310345,,0.01346380748542046,549.17,0.6269999742507935,-2.2340647821826374
549.775862,,0.015296258408316391,549.63,0.6499999761581421,-2.184190521200479
550.241379,,0.014741053818166552,550.096,0.6309999823570251,-2.2258081952213264
550.706897,,0.012991725156582278,550.564,0.6290000081062317,-2.2303709716506672
551.172414,,0.011181471887823872,551.026,0.6010000109672546,-2.2915555881078378
551.637931,,0.009601965676814364,551.489,0.6549999713897705,-2.1740625395654787
552.103448,,0.007777882014768606,551.959,0.6499999761581421,-2.1850751562605066
552.568966,,0.005154404657339092,552.422,0.6150000095367432,-2.261408955862032
553.034483,,0.001578871957799125,552.885,0.6209999918937683,-2.248378999268874
553.5,,0.002871595354082113,553.351,0.6869999766349792,-2.1045889338076296
553.965517,,0.008241007826116555,553.821,0.6549999713897705,-2.1742635281146456
554.4310340000001,,0.014467931712906487,554.279,0.6240000128746033,-2.2417185405040034
554.896552,,0.02067707150945097,554.744,0.6159999966621399,-2.2590286894455307
555.3620689999999,,0.02497801723997616,555.21,0.6499999761581421,-2.1848037238471214
555.827586,,0.02539283471364173,555.674,0.6340000033378601,-2.219483338634525
556.293103,,0.0212108570032795,556.14,0.6470000147819519,-2.190959833266027
556.758621,,0.01340097660464038,556.604,0.6610000133514404,-2.1602413294904084
557.224138,,0.0036150612194847647,557.069,0.6370000243186951,-2.2123016627944327
557.689655,,0.007140154582605812,557.537,0.6349999904632568,-2.2164298540736036
558.155172,,0.01863669831017051,558.0,0.6069999933242798,-2.2772091369445304
558.6206900000001,,0.030183289208131618,558.467,0.6190000176429749,-2.2508564907752135
559.0862070000001,,0.039706787237492644,558.929,0.6150000095367432,-2.259382943649015
559.5517239999999,,0.04478355557605037,559.397,0.6179999709129333,-2.2526850933302294
560.017241,,0.044638073358998324,559.86,0.6600000262260437,-2.1610498360579626
560.482759,,0.04049157983949026,560.326,0.6209999918937683,-2.2459183578000377
560.948276,,0.03394760632712987,560.793,0.6169999837875366,-2.25457056940065
561.413793,,0.026019248974773607,561.258,0.5460000038146973,-2.4092324545969444
561.87931,,0.01805334258951114,561.719,0.6019999980926514,-2.2872480868397793
562.344828,,0.012295365941669318,562.184,0.6470000147819519,-2.1892681513368695
562.8103450000001,,0.010136945215765759,562.655,0.6200000047683716,-2.2481856603158223
563.275862,,0.01009235428392873,563.114,0.6370000243186951,-2.2112735047081378
563.7413789999999,,0.00887588086047119,563.586,0.5899999737739563,-2.3138223302475796
564.206897,,0.004895973915414774,564.044,0.5960000157356262,-2.3009259104899082
564.672414,,0.00018570919618648963,564.515,0.6050000190734863,-2.2815115389883056
565.137931,,0.003736539963845645,564.978,0.5989999771118164,-2.294788107822501
565.603448,,0.0050957479507232895,565.445,0.5820000171661377,-2.332034343328413
566.068966,,0.005641690994180393,565.908,0.5640000104904175,-2.3714582435748857
566.534483,,0.0067466089409877585,566.374,0.5540000200271606,-2.393446190393725
567.0,,0.008677593404849368,566.839,0.5799999833106995,-2.3369897612539288
567.465517,,0.011149654413614226,567.305,0.5630000233650208,-2.3741953184626614
567.931034,,0.013784765462041246,567.77,0.5130000114440918,-2.483272179421895
568.396552,,0.015845544194419157,568.236,0.5720000267028809,-2.354848266103082
568.862069,,0.01649501324954872,568.7,0.5210000276565552,-2.466043588571366
569.327586,,0.015842283314566913,569.165,0.5759999752044678,-2.3462668271922413
569.793103,,0.015138222404400712,569.631,0.5799999833106995,-2.3375626594555943
570.2586210000001,,0.015415884274835426,570.089,0.5929999947547913,-2.3092102630963356
570.724138,,0.01632088539634588,570.559,0.5540000200271606,-2.394108177291519
571.189655,,0.01669351261812803,571.022,0.5419999957084656,-2.4201468127011037
571.655172,,0.01586612367942196,571.49,0.5419999957084656,-2.420010230897548
572.12069,,0.013927914992292833,571.952,0.5339999794960022,-2.4372761940700887
572.586207,,0.011247919417100407,572.419,0.5350000262260437,-2.434912936301421
573.051724,,0.008448954347594342,572.882,0.5360000133514404,-2.4325344923179975
573.517241,,0.006491028951177543,573.348,0.5419999957084656,-2.4192536378460177
573.982759,,0.005925511685310064,573.811,0.5230000019073486,-2.4604364979076525
574.4482760000001,,0.00603577574089967,574.276,0.5460000038146973,-2.410120475443932
574.913793,,0.005357968361719503,574.741,0.5289999842643738,-2.4469611856050455
575.37931,,0.003262167491124302,575.207,0.5419999957084656,-2.418459216915815
575.844828,,0.0006185864254380424,575.675,0.5329999923706055,-2.437910083876335
576.310345,,0.0012636939467869923,576.14,0.5329999923706055,-2.437780658176901
576.775862,,0.0019590071698830126,576.601,0.5419999957084656,-2.418075012849212
577.241379,,0.0019913349934544025,577.066,0.5429999828338623,-2.415832947106923
577.706897,,0.002034346484177966,577.53,0.5230000019073486,-2.459378963699661
578.172414,,0.0024613544478986477,577.999,0.5429999828338623,-2.4158168186646027
578.6379310000001,,0.0034818408782895226,578.46,0.5339999794960022,-2.4354726436662073
579.1034480000001,,0.005268607190904973,578.929,0.5649999976158142,-2.3680174979969664
579.5689659999999,,0.007748479483748834,579.393,0.531000018119812,-2.442206636442185
580.034483,,0.01031749050299744,579.855,0.5220000147819519,-2.4619589561558666
580.5,,0.011935196560833066,580.321,0.527999997138977,-2.4490572754265427
580.965517,,0.011763269176664183,580.786,0.5289999842643738,-2.447069115348918
581.431034,,0.009935869226782666,581.251,0.5170000195503235,-2.473417637962483
581.896552,,0.007679456698786379,581.716,0.5299999713897705,-2.445308153985054
582.362069,,0.0064167464744438974,582.181,0.503000020980835,-2.504345934399723
582.827586,,0.006513336907364423,582.648,0.5299999713897705,-2.4457317786600137
583.2931030000001,,0.0068193884540092625,583.114,0.5419999957084656,-2.4197846355977943
583.758621,,0.005414510400143234,583.578,0.46799999475479126,-2.5811828806391834
584.2241379999999,,0.0008338211539478799,584.044,0.5419999957084656,-2.4201178815613567
584.689655,,0.007168548299116761,584.504,0.527999997138977,-2.4507446113060865
585.155172,,0.017610421984475207,584.974,0.515999972820282,-2.4769798431002368
585.6206900000001,,0.028818057509421475,585.437,0.5210000276565552,-2.466141098693443
586.0862070000001,,0.039265347644669296,585.9,0.5299999713897705,-2.4465491362326586
586.551724,,0.04834077841368993,586.365,0.5130000114440918,-2.483562140685421
587.017241,,0.056368595752190165,586.835,0.531000018119812,-2.4442834675040026
587.482759,,0.06353117054243669,587.294,0.5249999761581421,-2.457255013822262
587.948276,,0.06850463655174689,587.759,0.5339999794960022,-2.437511995371971
588.4137929999999,,0.0683641739638047,588.225,0.5339999794960022,-2.437346041938588
588.87931,,0.06032305180338501,588.69,0.5149999856948853,-2.4785490083991473
589.344828,,0.043896728612182606,589.155,0.5130000114440918,-2.482696292731955
589.810345,,0.021479433071053437,589.622,0.5090000033378601,-2.491189524202091
590.2758620000001,,0.0030084576703328252,590.088,0.5099999904632568,-2.4887853141549696
590.741379,,0.02588506009599545,590.549,0.5199999809265137,-2.466776093583728
591.2068969999999,,0.04460608214498237,591.018,0.5130000114440918,-2.481813519805032
591.672414,,0.05799149198866856,591.481,0.5419999957084656,-2.418435735866809
592.137931,,0.06633214820696222,591.944,0.5149999856948853,-2.477084264385593
592.603448,,0.07113424827849729,592.412,0.5210000276565552,-2.4638652760554045
593.068966,,0.07407112603092429,592.874,0.5329999923706055,-2.4376074765921216
593.534483,,0.07568511560219401,593.34,0.5180000066757202,-2.470209551316855
594.0,,0.07518107515838748,593.806,0.5180000066757202,-2.4701713915392065
594.4655170000001,,0.0717838456783363,594.272,0.5419999957084656,-2.4178864194878074
594.9310340000001,,0.0661292815646125,594.737,0.5299999713897705,-2.444073077669762
595.3965519999999,,0.05969399218491662,595.202,0.5170000195503235,-2.472477595340864
595.862069,,0.052702055169889676,595.667,0.5929999947547913,-2.307018802301969
596.327586,,0.0434428642119341,596.133,0.5180000066757202,-2.4705676018157314
596.793103,,0.030565849172137817,596.6,0.5339999794960022,-2.4358876838958645
597.2586210000001,,0.015752816228466172,597.066,0.515999972820282,-2.475305875021904
597.724138,,0.002992875457738712,597.526,0.5289999842643738,-2.4472039698033123
598.189655,,0.005148453060214738,597.996,0.5149999856948853,-2.477937029326596
598.655172,,0.009793122900533437,598.459,0.5419999957084656,-2.4193494467801613
599.12069,,0.013861993472354766,598.922,0.5329999923706055,-2.439189298883573
599.586207,,0.018552947807238183,599.385,0.5260000228881836,-2.454660466260679
600.0517239999999,,0.02232380702825761,599.855,0.5299999713897705,-2.446148712544349
600.517241,,0.023048284723068527,600.314,0.5230000019073486,-2.461577583748277
600.982759,,0.020555114365561893,600.779,0.5419999957084656,-2.420331365906343
601.448276,,0.017041554531409802,601.244,0.5239999890327454,-2.4596597622851117
601.913793,,0.015301043654220258,601.711,0.5450000166893005,-2.413981483335215
602.37931,,0.016471562620213032,602.177,0.515999972820282,-2.477194049624593
602.844828,,0.019241406619294216,602.641,0.5360000133514404,-2.4336098738917817
603.310345,,0.02127568095594264,603.106,0.5299999713897705,-2.4466279547260767
603.775862,,0.021608315294988377,603.579,0.5109999775886536,-2.4879271472075586
604.2413789999999,,0.021570183462787086,604.037,0.5210000276565552,-2.466007494517348
604.706897,,0.02312852095030985,604.5,0.5149999856948853,-2.4789124498676522
605.172414,,0.02639073923950379,604.97,0.5220000147819519,-2.4634656489062485
605.637931,,0.029200256697283763,605.43,0.5379999876022339,-2.428387356110372
606.1034480000001,,0.029472684899919714,605.9,0.5210000276565552,-2.465186777509687
606.5689659999999,,0.02766789002193401,606.365,0.531000018119812,-2.443152585867597
607.0344829999999,,0.026484536765537484,606.829,0.49399998784065247,-2.5235129966455907
607.5,,0.02801800848782447,607.295,0.546999990940094,-2.407800858056052
607.965517,,0.03154523986581011,607.759,0.5239999890327454,-2.4576787317027122
608.431034,,0.03418680255015431,608.225,0.515999972820282,-2.4748968117316785
608.896552,,0.03322984279496939,608.69,0.5540000200271606,-2.391923503317148
609.362069,,0.02754602705066366,609.156,0.5120000243186951,-2.483274273752718
609.827586,,0.01753381078707266,609.615,0.5230000019073486,-2.4591943827549376
610.293103,,0.004708891324031295,610.081,0.527999997138977,-2.4482281816291374
610.758621,,0.008651689796051527,610.544,0.5339999794960022,-2.435127278209831
611.2241379999999,,0.020298362831293576,611.014,0.5360000133514404,-2.4307856803978862
611.689655,,0.028942824890098116,611.474,0.5270000100135803,-2.4504540024357375
612.155172,,0.03422963537598202,611.945,0.515999972820282,-2.4745234237801577
612.62069,,0.035752897409658785,612.408,0.5120000243186951,-2.4833836473491515
613.0862070000001,,0.032832185099855075,612.87,0.5210000276565552,-2.4639590928625856
613.551724,,0.025935932602345523,613.335,0.5049999952316284,-2.499033049225868
614.017241,,0.017743487018200253,613.799,0.5170000195503235,-2.4731306508685393
614.4827590000001,,0.011531591306259206,614.265,0.503000020980835,-2.5038918960240863
614.948276,,0.008297945042345406,614.73,0.503000020980835,-2.50416305071452
615.4137929999999,,0.006310907456260387,615.195,0.5299999713897705,-2.4456130797695916
615.8793099999999,,0.003605084128154904,615.66,0.5080000162124634,-2.4938097939732677
616.344828,,6.366109811817091e-06,616.126,0.5049999952316284,-2.500597290701991
616.810345,,0.0034795175346224094,616.593,0.5139999985694885,-2.4812181868065006
617.275862,,0.006189028206615152,617.058,0.4959999918937683,-2.5206324757309626
617.741379,,0.008134534746751259,617.519,0.5090000033378601,-2.492472110604222
618.206897,,0.009579662880291892,617.99,0.5109999775886536,-2.488234770734639
618.672414,,0.010848757418586713,618.452,0.515999972820282,-2.4774145728223824
619.137931,,0.012033606641105912,618.915,0.5210000276565552,-2.46654424549397
619.603448,,0.012466560693782693,619.385,0.49799999594688416,-2.5166251795852523
620.068966,,0.010983662220331768,619.848,0.5130000114440918,-2.4838670722132683
620.534483,,0.007249983842808914,620.314,0.4909999966621399,-2.5316710020179984
621.0,,0.0026212192538719254,620.779,0.49900001287460327,-2.514071187130947
621.465517,,0.000817161459036188,621.244,0.5049999952316284,-2.5007894079953052
621.9310340000001,,0.002196072934636794,621.704,0.49399998784065247,-2.5245112696972227
622.396552,,0.0025927882770014794,622.169,0.45399999618530273,-2.611388824271215
622.862069,,0.0036826649926881474,622.634,0.48899999260902405,-2.5348517047861225
623.327586,,0.005945130114086376,623.099,0.49300000071525574,-2.525844610020829
623.793103,,0.008443827139337376,623.57,0.5080000162124634,-2.492872061640374
624.258621,,0.00996522877651896,624.032,0.5049999952316284,-2.4991233616523014
624.724138,,0.009816350772030994,624.5,0.492000013589859,-2.5271780387237053
625.189655,,0.007898743793704614,624.963,0.5080000162124634,-2.492077527751197
625.655172,,0.004981311390236289,625.426,0.4740000069141388,-2.56594308468678
626.1206900000001,,0.0028721773207999735,625.889,0.48899999260902405,-2.533095845430297
626.5862070000001,,0.0031837977827075562,626.354,0.5009999871253967,-2.5068309084781264
627.0517239999999,,0.005440750872526701,626.824,0.4880000054836273,-2.5350821671875314
627.5172409999999,,0.007205494900720847,627.29,0.46399998664855957,-2.587352001910445
627.982759,,0.0066464563101721755,627.749,0.49000000953674316,-2.5307442810203855
628.448276,,0.004414086108121947,628.215,0.503000020980835,-2.5025125281871174
628.913793,,0.002473606701594743,628.682,0.49000000953674316,-2.530976087078368
629.37931,,0.0017228343927995163,629.148,0.4860000014305115,-2.5398785413818117
629.844828,,0.001587348240796883,629.615,0.492000013589859,-2.5270360634932354
630.3103450000001,,0.0015399405602280966,630.074,0.492000013589859,-2.527300211713645
630.7758620000001,,0.0018004565573703352,630.544,0.47999998927116394,-2.553735146085039
631.2413789999999,,0.002306503612147776,631.007,0.492000013589859,-2.5279007897139842
631.706897,,0.002143552624805914,631.47,0.47999998927116394,-2.554363103480802
632.172414,,0.0008151858580679936,631.94,0.47999998927116394,-2.554681005832326
632.637931,,0.0006553469153601399,632.404,0.47200000286102295,-2.5724180305375026
633.103448,,0.0009432743587160042,632.867,0.4790000021457672,-2.557455834834257
633.568966,,0.0003784890819749075,633.333,0.4779999852180481,-2.559894122671601
634.034483,,0.000554642731474175,633.796,0.4860000014305115,-2.542687161902968
634.5,,0.002014971656358141,634.262,0.492000013589859,-2.529792515007966
634.9655170000001,,0.003410657040065378,634.727,0.4830000102519989,-2.5495265104454297
635.431034,,0.003225306178921303,635.193,0.49900001287460327,-2.5147386726152012
635.8965519999999,,0.001460265441574418,635.66,0.4880000054836273,-2.5387158896890845
636.362069,,0.0007584363070298117,636.119,0.5170000195503235,-2.475487295589004
636.827586,,0.0024708871404036394,636.585,0.5019999742507935,-2.5080600177761894
637.293103,,0.0032275392853457997,637.051,0.4880000054836273,-2.5383977374259303
637.7586210000001,,0.0027713388531024653,637.519,0.49000000953674316,-2.533826425920733
638.224138,,0.0012450217349929084,637.981,0.48899999260902405,-2.5357469537397606
638.689655,,0.0003946379514647267,638.444,0.5019999742507935,-2.5071297659005896
639.155172,,0.0009416914601632531,638.914,0.492000013589859,-2.528593447882417
639.62069,,0.00019736334857203854,639.385,0.4830000102519989,-2.5478608566423513
640.086207,,0.000709566100821101,639.84,0.5109999775886536,-2.4865111388188628
640.551724,,0.0004551590811141274,640.306,0.4860000014305115,-2.5406329770667813
641.017241,,0.0011910512019172633,640.77,0.503000020980835,-2.5032657550741564
641.482759,,0.0031471907583228687,641.236,0.48899999260902405,-2.533461532081847
641.9482760000001,,0.003904344985795164,641.7,0.4880000054836273,-2.53536955127803
642.413793,,0.0029229949183302013,642.165,0.4740000069141388,-2.565644124528151
642.87931,,0.0014539040262716333,642.631,0.5139999985694885,-2.478322962567599
643.344828,,0.0015297656561905333,643.096,0.35899999737739563,-2.815897197613234
643.810345,,0.0036675518222356067,643.559,0.4970000088214874,-2.5151924361409845
644.275862,,0.006002634829006224,644.029,0.4819999933242798,-2.547886183616833
644.7413789999999,,0.006257977959030172,644.489,0.49000000953674316,-2.5305336260272075
645.206897,,0.004246528820691553,644.958,0.492000013589859,-2.5263134150111357
645.672414,,0.0019144782484709355,645.419,0.4880000054836273,-2.5352212947919472
646.1379310000001,,0.0011713027348407192,645.889,0.4860000014305115,-2.539822319844061
646.6034480000001,,0.0021915048379601036,646.355,0.5049999952316284,-2.4987145074954036
647.0689659999999,,0.003745891666110574,646.817,0.49000000953674316,-2.531714319621157
647.534483,,0.004667152242929596,647.283,0.49000000953674316,-2.5320583637176344
648.0,,0.004749039730549462,647.748,0.48100000619888306,-2.5520240196589277
648.465517,,0.004458849563173285,648.214,0.5139999985694885,-2.4804888091892114
648.931034,,0.004156944001793194,648.678,0.49399998784065247,-2.524412524140322
649.396552,,0.0037940634972140172,649.144,0.492000013589859,-2.529100242796837
649.862069,,0.0032775679157941184,649.604,0.48899999260902405,-2.535936692366834
650.327586,,0.002759572507808576,650.07,0.515999972820282,-2.4773738987372407
650.7931030000001,,0.002249167593710865,650.538,0.5080000162124634,-2.495014955058998
651.258621,,0.0012297510830317695,651.0,0.49799999594688416,-2.516958046998555
651.7241379999999,,0.0007104945820324232,651.471,0.49799999594688416,-2.517054808388108
652.189655,,0.002911437505716325,651.933,0.5149999856948853,-2.480051570839427
652.655172,,0.004006104568796918,652.396,0.48899999260902405,-2.5366659793192667
653.12069,,0.003446012472224883,652.859,0.4959999918937683,-2.5213221715162515
653.5862070000001,,0.00215943587956179,653.325,0.503000020980835,-2.505918433027413
654.051724,,0.0015199668304607403,653.792,0.4830000102519989,-2.549283128092412
654.517241,,0.0020181283476951683,654.258,0.5809999704360962,-2.3355172936241435
654.982759,,0.0030508532993176237,654.723,0.492000013589859,-2.529115079460314
655.448276,,0.0037376524505560622,655.189,0.49399998784065247,-2.5244232200248713
655.9137929999999,,0.0037741560621930292,655.655,0.4959999918937683,-2.519710620895946
656.37931,,0.0035135516249316674,656.121,0.4779999852180481,-2.5585617032601062
656.844828,,0.0033436031485349635,656.582,0.5180000066757202,-2.4710530246379134
657.310345,,0.003228023376313861,657.047,0.5210000276565552,-2.464166429169718
657.7758620000001,,0.0029440601988022738,657.515,0.49300000071525574,-2.5248407483999613
658.241379,,0.0024961916974534405,657.978,0.49799999594688416,-2.5136534540844164
658.7068969999999,,0.002072548630682714,658.441,0.4909999966621399,-2.5286534900902047
659.172414,,0.0017952622565762764,658.911,0.5230000019073486,-2.4587371716831203
659.637931,,0.0017626900012757331,659.369,0.5009999871253967,-2.506524539841496
660.103448,,0.002097548600925455,659.84,0.5249999761581421,-2.454154907735318
660.568966,,0.002523259837464608,660.306,0.5099999904632568,-2.4868158445530777
661.034483,,0.0021038731910684953,660.77,0.5090000033378601,-2.489039816629212
661.5,,0.0001653513947252051,661.229,0.5130000114440918,-2.4804336229078823
661.965517,,0.0023593005859475617,661.7,0.4959999918937683,-2.5176391267452254
662.4310340000001,,0.0032506013538549485,662.166,0.4909999966621399,-2.5287563161253925
662.8965519999999,,0.0011919377584938607,662.631,0.4909999966621399,-2.5290294184782094
663.362069,,0.002710430200190953,663.089,0.49900001287460327,-2.51191392345613
663.827586,,0.005975160400205191,663.559,0.4959999918937683,-2.518794267770081
664.293103,,0.006958947272970679,664.021,0.4880000054836273,-2.5365877457907895
664.7586210000001,,0.005631184270593048,664.489,0.49399998784065247,-2.5238889783518115
665.224138,,0.0027596561412121744,664.951,0.49300000071525574,-2.5264376591113753
665.689655,,0.0006193699992499721,665.419,0.5009999871253967,-2.5093636031888455
666.155172,,0.0030761872316764152,665.882,0.5090000033378601,-2.492262840006578
666.62069,,0.0034554624867701787,666.347,0.503000020980835,-2.505625740724032
667.086207,,0.002190948959990731,666.81,0.503000020980835,-2.505870162211416
667.5517239999999,,0.0010786670708893466,667.276,0.5070000290870667,-2.4973455698242057
668.017241,,0.0012051740276261115,667.741,0.4950000047683716,-2.523619003967884
668.482759,,0.001774995623826981,668.207,0.4959999918937683,-2.521505686364188
668.948276,,0.0014596336239103905,668.674,0.5249999761581421,-2.4583233590336397
669.413793,,0.000250604366269,669.14,0.5049999952316284,-2.501827115388102
669.87931,,0.0006683868994296621,669.605,0.5049999952316284,-2.5016925508756853
670.3448279999999,,0.0005306334705875688,670.07,0.5320000052452087,-2.4426730820852938
670.810345,,0.00020148173230107933,670.533,0.4830000102519989,-2.5491756396911014
671.275862,,0.0006580962531209095,670.996,0.5049999952316284,-2.500947631062633
671.7413789999999,,0.000699161297709379,671.464,0.4959999918937683,-2.5202208447979264
672.206897,,0.0009271758671073632,671.926,0.49000000953674316,-2.5329317630088855
672.672414,,0.0018004284144314876,672.389,0.49799999594688416,-2.5151269703671755
673.137931,,0.0031099875960820273,672.859,0.49900001287460327,-2.512569590023842
673.6034480000001,,0.0042682289955253624,673.325,0.4880000054836273,-2.536164934321026
674.068966,,0.004747450235427441,673.79,0.5,-2.5096720416979887
674.5344829999999,,0.004216478484715063,674.254,0.5009999871253967,-2.507175742930552
675.0,,0.0026208818650304685,674.718,0.5080000162124634,-2.491648515907393
675.465517,,0.00033816828584250555,675.184,0.414000004529953,-2.696216221313072
675.931034,,0.0019064985888205708,675.648,0.5059999823570251,-2.495615219850033
676.396552,,0.0034974418100382648,676.114,0.49799999594688416,-2.512942697007931
676.862069,,0.00431157294042886,676.579,0.5009999871253967,-2.5063703433753246
677.327586,,0.004543893071114093,677.045,0.5040000081062317,-2.499864234939787
677.793103,,0.004268165987169978,677.508,0.5009999871253967,-2.506495313285436
678.2586210000001,,0.003459375061660445,677.97,0.5,-2.508831270420569
678.7241379999999,,0.0023595475239271044,678.437,0.5019999742507935,-2.50468871366724
679.1896549999999,,0.0013667939712148597,678.9,0.4819999933242798,-2.5485272704967388
