Trial: ,18
Threshold: ,0.0
Maximum EMG: ,0.05403265382254409
Success: ,True

EMG Time,Raw EMG,Filtered EMG,Force Time,Raw Force (V),Filtered Force (N)
0.0,samples,1.2169407429438673e-07,0.467,0.48100000619888306,-2.552289983716233
0.46551699999999996,time,1.3047854847171473e-07,0.933,0.49000000953674316,-2.5325782530364127
0.9310339999999999,value,1.3917735296716735e-07,1.399,0.47600001096725464,-2.5629707808124995
1.396552,,1.4775578375042463e-07,1.863,0.47200000286102295,-2.5715760280833106
1.862069,,1.561780670422729e-07,2.329,0.47600001096725464,-2.562755055546893
2.327586,,1.6440744061915616e-07,2.793,0.48899999260902405,-2.5343323838235396
2.793103,,1.7240624215207414e-07,3.259,0.4959999918937683,-2.51899018187834
3.258621,,1.8013600456876667e-07,3.722,0.49000000953674316,-2.5319815795205525
3.724138,,1.8755755840261496e-07,4.185,0.48500001430511475,-2.5428084096712364
4.189654999999999,,1.946311410652083e-07,4.652,0.49000000953674316,-2.531865285030231
4.655172,,2.013165129521246e-07,5.114,0.4699999988079071,-2.5754069604758763
5.12069,,2.0757308026321223e-07,5.585,0.4779999852180481,-2.557966706257833
5.586207,,2.1336002438960155e-07,6.048,0.4860000014305115,-2.5405470880858196
6.051723999999999,,2.1863643768988806e-07,6.514,0.48100000619888306,-2.5514701463583327
6.517241,,2.2336146544748764e-07,6.977,0.4860000014305115,-2.5406261060206963
6.982759,,2.2749445377015175e-07,7.442,0.48100000619888306,-2.551586503942482
7.448276,,2.3099510316112842e-07,7.907,0.48100000619888306,-2.551669735726064
7.913793000000001,,2.338236274595576e-07,8.373,0.4690000116825104,-2.5779106119911477
8.379309999999998,,2.359409178154915e-07,8.838,0.46399998664855957,-2.588912421291624
8.844828000000001,,2.373087113325352e-07,9.304,0.4830000102519989,-2.547634600177556
9.310345,,2.3788976397861677e-07,9.771,0.4959999918937683,-2.519432244394122
9.775862,,2.3764802733293173e-07,10.229,0.48500001430511475,-2.5435163647189087
10.241379,,2.365488287047766e-07,10.697,0.5019999742507935,-2.5065934377085344
10.706897,,2.3455905412791898e-07,11.159,0.48899999260902405,-2.53502098561888
11.172414,,2.3164733370246433e-07,11.63,0.5070000290870667,-2.4958979263958803
11.637931,,2.2778422872500968e-07,12.092,0.4740000069141388,-2.567870857550327
12.103447999999998,,2.2294242001734898e-07,12.556,0.49000000953674316,-2.533072766267117
12.568966000000001,,2.17096896834254e-07,13.026,0.4830000102519989,-2.548364635002203
13.034483,,2.1022514570203664e-07,13.484,0.48500001430511475,-2.5440282209595186
13.5,,2.023073385118472e-07,13.951,0.47999998927116394,-2.554921389656227
13.965517,,1.9332651916512296e-07,14.417,0.4909999966621399,-2.5309349324700583
14.431034,,1.8326878804341822e-07,14.882,0.4909999966621399,-2.5308927271165222
14.896552,,1.7212348355117126e-07,15.348,0.49000000953674316,-2.533009297851976
15.362069,,1.5988335995794268e-07,15.815,0.4830000102519989,-2.5481800038043847
15.827586000000002,,1.4654476074644537e-07,16.274,0.4819999933242798,-2.5502638305484617
16.293103,,1.321077866544275e-07,16.746,0.5049999952316284,-2.5000476987353735
16.758621,,1.1657645758231515e-07,17.204,0.4779999852180481,-2.558754736508174
17.224138,,9.99588675246231e-08,17.674,0.4819999933242798,-2.5499184682211236
17.689655,,8.22673316716418e-08,18.136,0.45399999618530273,-2.610798572603638
18.155172,,6.351852481895646e-08,18.604,0.503000020980835,-2.503926128782406
18.62069,,4.373361021608617e-08,19.067,0.515999972820282,-2.4754908843566694
19.086207,,2.2938357982091442e-08,19.532,0.49399998784065247,-2.523316482997317
19.551724,,1.1632522155169855e-09,19.996,0.48500001430511475,-2.5428319979701985
20.017241000000002,,2.1556414071354592e-08,20.461,0.47999998927116394,-2.5536492729883538
20.482758999999998,,4.518045705814036e-08,20.926,0.4699999988079071,-2.575379024975389
20.948276,,6.966373411693438e-08,21.392,0.4790000021457672,-2.5557359598920644
21.413793000000002,,9.495609055027632e-08,21.859,0.492000013589859,-2.527400592610208
21.87931,,1.2100232189281994e-07,22.325,0.47999998927116394,-2.553553898815836
22.344828,,1.4774215258322374e-07,22.785,0.4819999933242798,-2.5492283582822357
22.810344999999998,,1.751102317892723e-07,23.251,0.5009999871253967,-2.5078869601435048
23.275862,,2.030361471419148e-07,23.719,0.47600001096725464,-2.5624253244776773
23.741379,,2.3144445710271276e-07,24.181,0.4790000021457672,-2.555979141468444
24.206897,,2.6025474265406557e-07,24.644,0.47200000286102295,-2.571334680638445
24.672414,,2.893816789624852e-07,25.114,0.44699999690055847,-2.6259185342356597
25.137931,,3.187351276220861e-07,25.578,0.4880000054836273,-2.5367206592829463
25.603448,,3.4822025003832717e-07,26.04,0.44699999690055847,-2.626176805205818
26.068966,,3.7773764246088075e-07,26.506,0.492000013589859,-2.528269426054788
26.534483,,4.071834931193215e-07,26.97,0.5820000171661377,-2.3323162724356896
27.0,,4.3644976185614104e-07,27.436,0.4779999852180481,-2.559008193637847
27.465517,,4.654243825884473e-07,27.9,0.5009999871253967,-2.508996814277757
27.931034,,4.939914888626538e-07,28.365,0.49000000953674316,-2.5330429143592395
28.396552,,5.220316626955703e-07,28.83,0.4880000054836273,-2.5374621794144114
28.862069,,5.494222068206618e-07,29.296,0.46700000762939453,-2.5832554912136634
29.327586,,5.760374403799525e-07,29.76,0.4790000021457672,-2.5571324574510412
29.793103000000002,,6.017490180202335e-07,30.226,0.49000000953674316,-2.533166227441675
30.258620999999998,,6.264262722670316e-07,30.689,0.49300000071525574,-2.5266067743523712
30.724138,,6.499365789613635e-07,31.159,0.4869999885559082,-2.5396332831714274
31.189655000000002,,6.721457454528177e-07,31.622,0.4779999852180481,-2.5591756379552364
31.655172000000004,,6.929184211481617e-07,32.085,0.49000000953674316,-2.5329485436105705
32.12069,,7.121185299176823e-07,32.549,0.48500001430511475,-2.5437432439275787
32.586207,,7.29609723762066e-07,33.018,0.4650000035762787,-2.587205902780184
33.051724,,7.452558570410557e-07,33.484,0.48100000619888306,-2.552229381572173
33.517241000000006,,7.58921480461657e-07,33.949,0.4860000014305115,-2.5412136329697432
33.982759,,7.704723539185956e-07,34.415,0.49300000071525574,-2.525839405577379
34.448276,,7.797759771733498e-07,34.874,0.47699999809265137,-2.5605767530546286
34.913793,,7.867021372507197e-07,35.34,0.49000000953674316,-2.5321398892576616
35.37931,,7.911234713239009e-07,35.804,0.47200000286102295,-2.5712515606963953
35.844828,,7.929160437507452e-07,36.27,0.4830000102519989,-2.547196206799977
36.310345,,7.919599358156965e-07,36.744,0.47600001096725464,-2.56237323551496
36.775862,,7.881398466241793e-07,37.203,0.4569999873638153,-2.6037134554088404
37.241378999999995,,7.813457034893851e-07,37.667,0.49300000071525574,-2.525249025750356
37.706897000000005,,7.714732800458754e-07,38.129,0.4779999852180481,-2.5579171341465257
38.172414,,7.584248202206311e-07,38.6,0.48899999260902405,-2.5339616200552255
38.637931,,7.42109666090564e-07,39.063,0.492000013589859,-2.527455993154614
39.103448,,7.224448875565363e-07,39.528,0.5099999904632568,-2.488289764187904
39.568965999999996,,6.99355911668059e-07,39.992,0.4869999885559082,-2.5384652626878266
40.034483,,6.727771493405484e-07,40.457,0.4779999852180481,-2.558155444522786
40.5,,6.426526171187911e-07,40.922,0.48899999260902405,-2.5342864061370745
40.965517,,6.089365515565936e-07,41.388,0.48100000619888306,-2.551822421813784
41.431034,,5.715940137039567e-07,41.853,0.492000013589859,-2.527971448239741
41.896552,,5.306014811200366e-07,42.318,0.47600001096725464,-2.5629478915743955
42.362069000000005,,4.859474247631082e-07,42.786,0.4860000014305115,-2.5412799244116284
42.827586000000004,,4.3763286804826114e-07,43.244,0.49000000953674316,-2.5326804898749056
43.293103,,3.85671925310102e-07,43.715,0.4860000014305115,-2.5415031758765947
43.758621,,3.3009231686182934e-07,44.177,0.4819999933242798,-2.550315609178376
44.224138,,2.7093585780416077e-07,44.641,0.4869999885559082,-2.539507097971017
44.689655,,2.0825891770822087e-07,45.111,0.4650000035762787,-2.587506708760552
45.155172,,1.4213284827610198e-07,45.571,0.4790000021457672,-2.5570579789801906
45.620689999999996,,7.264437607186303e-08,46.041,0.4950000047683716,-2.522232920401993
46.086206999999995,,1.040425853327573e-10,46.5,0.47600001096725464,-2.5636400175870158
46.551724,,7.599390746498116e-08,46.97,0.47699999809265137,-2.561453603935072
47.017241,,1.5489040388495042e-07,47.429,0.49000000953674316,-2.533103078020378
47.482759,,2.3664217863507835e-07,47.894,0.4959999918937683,-2.5199831141605227
47.948276,,3.2108116516997734e-07,48.359,0.4000000059604645,-2.7290680444579816
48.413793,,4.080224608219229e-07,48.826,0.49900001287460327,-2.513302715374852
48.879310000000004,,4.972642587180971e-07,49.291,0.49000000953674316,-2.5328184240166287
49.344828,,5.885878370074074e-07,49.756,0.4790000021457672,-2.556679718956883
49.810345,,6.817576079103549e-07,50.222,0.49000000953674316,-2.53260241970626
50.275862,,7.765212290007589e-07,50.685,0.47999998927116394,-2.554271856589508
50.741379,,8.726097790103676e-07,51.155,0.4880000054836273,-2.536724099364143
51.206897,,9.69738000316364e-07,51.619,0.49000000953674316,-2.5322502632329744
51.672414,,1.0676046101273825e-06,52.081,0.49000000953674316,-2.532139053515042
52.137931,,1.165892682225856e-06,52.545,0.4740000069141388,-2.566895234097243
52.603448,,1.2642701009532766e-06,53.015,0.4830000102519989,-2.5471977651799764
53.068966,,1.3623900889402935e-06,53.48,0.4740000069141388,-2.566731518596157
53.534483,,1.459891809885612e-06,53.944,0.46700000762939453,-2.581926113643024
54.0,,1.556401047476472e-06,54.41,0.49000000953674316,-2.5317811481973775
54.465517,,1.6515309613193127e-06,54.87,0.47699999809265137,-2.560088174457995
54.931034,,1.7448829205122545e-06,55.336,0.4880000054836273,-2.536128552485484
55.396552,,1.8360474152415884e-06,55.801,0.4909999966621399,-2.529618813106345
55.862069,,1.92460504652287e-06,56.266,0.47699999809265137,-2.560165971949349
56.327586,,2.0101275939339128e-06,56.73,0.48899999260902405,-2.5340870836774
56.793102999999995,,2.0921791609023923e-06,57.2,0.49399998784065247,-2.523275397021396
57.258621000000005,,2.170317396815486e-06,57.663,0.4909999966621399,-2.529906798494472
57.724138,,2.2440947949135147e-06,58.126,0.492000013589859,-2.5278347190534176
58.189655,,2.3130600646146303e-06,58.589,0.4729999899864197,-2.5693441006288067
58.655172,,2.376759576593868e-06,59.059,0.47200000286102295,-2.5716434338064915
59.120689999999996,,2.4347388786081633e-06,59.525,0.47200000286102295,-2.571766670652648
59.586207,,2.486544279720054e-06,59.988,0.4819999933242798,-2.5501020861607984
60.051724,,2.5317245002276314e-06,60.453,0.5009999871253967,-2.5088238664418236
60.517241,,2.5698323842578293e-06,60.919,0.4729999899864197,-2.5699324315304892
60.982758999999994,,2.6004266716253814e-06,61.385,0.4819999933242798,-2.5504185217105397
61.448276,,2.6230738252018278e-06,61.844,0.4959999918937683,-2.5199959405319725
61.913793,,2.6373499096788967e-06,62.31,0.4560000002384186,-2.6072025584110956
62.379310000000004,,2.6428425172496667e-06,62.774,0.4790000021457672,-2.5571353161840222
62.84482800000001,,2.6391527353703637e-06,63.24,0.4749999940395355,-2.5658712163391173
63.310345000000005,,2.625897151406756e-06,63.708,0.4819999933242798,-2.550620325199374
63.775862000000004,,2.6027098886132624e-06,64.17,0.49300000071525574,-2.526632619672904
64.241379,,2.569244667541428e-06,64.641,0.49000000953674316,-2.5331238161719876
64.706897,,2.5251768866288493e-06,65.103,0.47200000286102295,-2.5722740387577123
65.172414,,2.470205715381393e-06,65.567,0.47699999809265137,-2.5612970571479687
65.637931,,2.404056193232186e-06,66.029,0.4779999852180481,-2.5590189567314523
66.103448,,2.326481326841927e-06,66.495,0.4819999933242798,-2.550191810331266
66.56896599999999,,2.237264178298141e-06,66.959,0.4790000021457672,-2.556605340045279
67.03448300000001,,2.136219936377704e-06,67.425,0.4880000054836273,-2.5368687128914935
67.5,,2.0231979627589373e-06,67.889,0.5299999713897705,-2.4452331447894067
67.965517,,1.898083804808435e-06,68.355,0.49000000953674316,-2.5322460881516893
68.431034,,1.7608011663252583e-06,68.82,0.4909999966621399,-2.529938775208018
68.896552,,1.6113138274028031e-06,69.285,0.4819999933242798,-2.5494271340317454
69.362069,,1.4496275043682502e-06,69.752,0.48399999737739563,-2.5449636478111026
69.827586,,1.275791640582663e-06,70.218,0.4880000054836273,-2.536159638837705
70.293103,,1.0899011187331792e-06,70.681,0.49000000953674316,-2.5317324586351475
70.75862099999999,,8.920978851239477e-07,71.144,0.4740000069141388,-2.566543034136073
71.22413800000001,,6.825724763761347e-07,71.612,0.4819999933242798,-2.549090235162193
71.689655,,4.6156543888100134e-07,72.074,0.492000013589859,-2.5273050276618676
72.15517200000001,,2.2936863131528939e-07,72.545,0.4819999933242798,-2.5491177110136722
72.62069,,1.3673599473575203e-08,73.007,0.4959999918937683,-2.5186669350612285
73.086207,,2.6716337887220755e-07,73.473,0.47999998927116394,-2.5535984312348807
73.551724,,5.306484107870806e-07,73.938,0.5109999775886536,-2.486153932076338
74.017241,,8.036212392968605e-07,74.403,0.48899999260902405,-2.53419513965087
74.482759,,1.0855186750125832e-06,74.87,0.4729999899864197,-2.569179149121887
74.94827599999999,,1.3757213953033702e-06,75.329,0.503000020980835,-2.5039566098438093
75.41379300000001,,1.6735537273211857e-06,75.796,0.47699999809265137,-2.5607454846444164
75.87931,,1.978283622492424e-06,76.262,0.47600001096725464,-2.563071050625598
76.344828,,2.2891228308360226e-06,76.73,0.47999998927116394,-2.554502377466228
76.810345,,2.605227283116619e-06,77.193,0.4749999940395355,-2.5655358320835258
77.275862,,2.925697688446375e-06,77.656,0.49799999594688416,-2.515556695228447
77.741379,,3.249580354509993e-06,78.126,0.4950000047683716,-2.5222071193583733
78.206897,,3.575868237103843e-06,78.589,0.4779999852180481,-2.559339659057746
78.67241399999999,,3.9035022251517586e-06,79.052,0.47600001096725464,-2.5637708878467786
79.137931,,4.2313726667869194e-06,79.517,0.47600001096725464,-2.5638212529125206
79.603448,,4.558321141471444e-06,79.98,0.4959999918937683,-2.52027286672869
80.068966,,4.883142482463085e-06,80.446,0.47600001096725464,-2.5638431096488516
80.53448300000001,,5.204587053232289e-06,80.911,0.49399998784065247,-2.5245973176646044
81.0,,5.521363280683336e-06,81.376,0.4790000021457672,-2.557220014011702
81.465517,,5.8321404472412785e-06,81.841,0.4880000054836273,-2.5375298199180274
81.931034,,6.135551743032737e-06,82.306,0.4729999899864197,-2.5701044132308977
82.396552,,6.430197578514703e-06,82.771,0.4880000054836273,-2.5372997435962743
82.86206899999999,,6.714649156992484e-06,83.237,0.4830000102519989,-2.5480518219798824
83.327586,,6.987452305517544e-06,83.7,0.4869999885559082,-2.5391838765569097
83.79310299999999,,7.2471315616698685e-06,84.17,0.48100000619888306,-2.552094776156156
84.258621,,7.492194512709744e-06,84.634,0.4749999940395355,-2.565003349561265
84.72413800000001,,7.721136382532559e-06,85.096,0.47600001096725464,-2.5626642734402014
85.189655,,7.932444860779863e-06,85.56,0.49000000953674316,-2.532010550873146
85.65517200000001,,8.124605167352952e-06,86.03,0.47600001096725464,-2.56237126204485
86.12069,,8.29610534444461e-06,86.495,0.4909999966621399,-2.5295678825926564
86.586207,,8.445441767053212e-06,86.959,0.46399998664855957,-2.58828866282814
87.051724,,8.57112486177452e-06,87.424,0.4779999852180481,-2.557709557403386
87.517241,,8.671685022483527e-06,87.89,0.49000000953674316,-2.531514840628398
87.98275899999999,,8.74567871032517e-06,88.356,0.492000013589859,-2.5271348765863197
88.448276,,8.791694724232494e-06,88.816,0.48899999260902405,-2.533677163812177
88.913793,,8.808360626988007e-06,89.281,0.49000000953674316,-2.5315338920036323
89.37931,,8.794349310642444e-06,89.748,0.492000013589859,-2.527240335893049
89.844828,,8.748385683909577e-06,90.214,0.46700000762939453,-2.581797411431975
90.310345,,8.669253462970362e-06,90.674,0.48899999260902405,-2.5339830810207005
90.775862,,8.555802045949387e-06,91.144,0.4860000014305115,-2.540656432433302
91.241379,,8.406953450176047e-06,91.607,0.48500001430511475,-2.5429897124097143
91.706897,,8.221709290217199e-06,92.07,0.46799999475479126,-2.580194541847549
92.17241399999999,,7.99915777357203e-06,92.536,0.47999998927116394,-2.5542270184934055
92.63793100000001,,7.738480689859129e-06,93.002,0.492000013589859,-2.52826223190246
93.103448,,7.438960368305205e-06,93.467,0.4749999940395355,-2.56547531452508
93.568966,,7.099986577370114e-06,93.934,0.4819999933242798,-2.550392536764743
94.03448300000001,,6.721063339419213e-06,94.4,0.4819999933242798,-2.550546848275395
94.5,,6.30181563248716e-06,94.859,0.4779999852180481,-2.5593973454271004
94.965517,,5.8419959503725455e-06,95.325,0.48100000619888306,-2.5529744923500854
95.431034,,5.341490691565758e-06,95.789,0.4880000054836273,-2.537810422586606
95.896552,,4.800326346848906e-06,96.255,0.492000013589859,-2.5291522494426526
96.36206899999999,,4.218675454821781e-06,96.726,0.4819999933242798,-2.5509630376218295
96.827586,,3.5968622941074864e-06,97.188,0.4860000014305115,-2.542239631730835
97.293103,,2.93536828058064e-06,97.656,0.4880000054836273,-2.5378404308040685
97.758621,,2.2348370376455833e-06,98.118,0.5120000243186951,-2.4854781855251318
98.224138,,1.4960791073768012e-06,98.582,0.4950000047683716,-2.5224093144372373
98.689655,,7.200762702240585e-07,99.044,0.46700000762939453,-2.5832779626583773
99.155172,,9.201455901457951e-08,99.51,0.4749999940395355,-2.5656928585275427
99.62069,,9.388578911328358e-07,99.98,0.4749999940395355,-2.5655193819593403
100.086207,,1.8189367103148415e-06,100.446,0.49399998784065247,-2.523938755200832
100.551724,,2.730550041378083e-06,100.904,0.5019999742507935,-2.5063152435700795
101.017241,,3.671811067558693e-06,101.37,0.46299999952316284,-2.591086149730914
101.482759,,4.640645829317399e-06,101.834,0.4339999854564667,-2.6540765656431082
101.948276,,5.634792533889291e-06,102.3,0.4860000014305115,-2.540608990502469
102.413793,,6.651801504406864e-06,102.767,0.48100000619888306,-2.551341301557192
102.87931,,7.689035796390637e-06,103.232,0.4729999899864197,-2.5686308255254957
103.344828,,8.743672508222791e-06,103.7,0.49000000953674316,-2.531479717173325
103.810345,,9.812704810894435e-06,104.163,0.492000013589859,-2.527037160745688
104.275862,,1.089294472084505e-05,104.626,0.4729999899864197,-2.5683778255406895
104.741379,,1.1981026638091939e-05,105.089,0.5009999871253967,-2.5073554631399824
105.206897,,1.3073411670077657e-05,105.556,0.4699999988079071,-2.5749076493513074
105.672414,,1.4166392759744452e-05,106.026,0.492000013589859,-2.527025745549814
106.13793100000001,,1.525610063427648e-05,106.484,0.4819999933242798,-2.5488937473735733
106.603448,,1.633851058873475e-05,106.949,0.45899999141693115,-2.5991153660923487
107.068966,,1.7409450116447176e-05,107.414,0.49000000953674316,-2.531718361157942
107.534483,,1.8464607395509395e-05,107.881,0.49000000953674316,-2.53188315587726
108.0,,1.94995406381034e-05,108.347,0.49000000953674316,-2.53206613893963
108.46551699999999,,2.0509688306554317e-05,108.811,0.47699999809265137,-2.5605845793758437
108.931034,,2.1490380197124268e-05,109.277,0.49000000953674316,-2.532465461764003
109.396552,,2.243684938949122e-05,109.742,0.4819999933242798,-2.55009919027378
109.862069,,2.334424505668522e-05,110.207,0.4959999918937683,-2.51979734912596
110.32758600000001,,2.4207646126960153e-05,110.67,0.47200000286102295,-2.57227289751492
110.793103,,2.502207578567309e-05,111.141,0.4950000047683716,-2.5223351339024993
111.258621,,2.5782516801732337e-05,111.604,0.492000013589859,-2.5290197663222624
111.724138,,2.6483927659567842e-05,112.066,0.46399998664855957,-2.5901438026171686
112.189655,,2.712125947388213e-05,112.532,0.47600001096725464,-2.564091876369049
112.655172,,2.7689473660665698e-05,112.996,0.47999998927116394,-2.555436366580403
113.12069,,2.818356033411811e-05,113.461,0.49000000953674316,-2.5336733901576207
113.586207,,2.8598557395215304e-05,113.926,0.47200000286102295,-2.5728760741395713
114.051724,,2.8929570273716674e-05,114.392,0.4909999966621399,-2.531432406236765
114.51724100000001,,2.917179228142388e-05,114.857,0.49000000953674316,-2.533526215420788
114.982759,,2.9320525530500313e-05,115.322,0.48500001430511475,-2.5443012598867605
115.448276,,2.9371202366648545e-05,115.789,0.48100000619888306,-2.552867939180116
115.913793,,2.9319407262937145e-05,116.254,0.49900001287460327,-2.5134787551179114
116.37931,,2.91608991160823e-05,116.715,0.4970000088214874,-2.517641576764839
116.84482799999999,,2.889163388303897e-05,117.184,0.48399999737739563,-2.545754339931552
117.310345,,2.8507787491856325e-05,117.645,0.47600001096725464,-2.5629655904695463
117.77586199999999,,2.8005778956918987e-05,118.115,0.49000000953674316,-2.5322452875451744
118.241379,,2.7382293624946056e-05,118.578,0.47600001096725464,-2.5625324490567456
118.70689700000001,,2.6634306474470276e-05,119.04,0.4729999899864197,-2.5688667129694034
119.172414,,2.575910538798814e-05,119.506,0.4729999899864197,-2.568683795150812
119.63793100000001,,2.475431431257517e-05,119.97,0.49000000953674316,-2.531488033570765
120.103448,,2.36179162215177e-05,120.435,0.4699999988079071,-2.574931300829243
120.568966,,2.2348275786440946e-05,120.901,0.47999998927116394,-2.5530483798540047
121.034483,,2.0944161666531485e-05,121.366,0.4729999899864197,-2.568239000778346
121.5,,1.9404768318778827e-05,121.833,0.4830000102519989,-2.5464309521218875
121.96551699999999,,1.7729737230714226e-05,122.299,0.48100000619888306,-2.550805777403556
122.431034,,1.5919177474923603e-05,122.759,0.48100000619888306,-2.5508618513931234
122.896552,,1.3973685482674344e-05,123.225,0.4950000047683716,-2.5204536344652064
123.362069,,1.1894363932340284e-05,123.693,0.49300000071525574,-2.524937465056948
123.827586,,9.682839646954373e-06,124.155,0.47699999809265137,-2.5599524767877306
124.293103,,7.341280394181253e-06,124.623,0.47600001096725464,-2.5623138774761576
124.758621,,4.872410481300612e-06,125.085,0.47600001096725464,-2.5625177462601014
125.22413800000001,,2.279525037442936e-06,125.553,0.47600001096725464,-2.5627366329331185
125.68965500000002,,4.3349712466081636e-07,126.015,0.47999998927116394,-2.554249321147498
126.15517200000001,,3.2621821747495778e-06,126.481,0.492000013589859,-2.5283338022444526
126.62069000000001,,6.201451565451897e-06,126.945,0.4749999940395355,-2.5655931297805776
127.086207,,9.245614072365326e-06,127.411,0.4959999918937683,-2.5200508878008465
127.55172400000001,,1.2388359677458778e-05,127.877,0.47600001096725464,-2.5638138259689662
128.017241,,1.562275539737357e-05,128.343,0.47999998927116394,-2.555264287052719
128.48275900000002,,1.8941243155659026e-05,128.808,0.48899999260902405,-2.5357913788274096
128.948276,,2.2335639794975797e-05,129.274,0.6140000224113464,-2.263558039854277
129.413793,,2.579713932182549e-05,129.741,0.492000013589859,-2.5294084683417624
129.87931,,2.9316317472410406e-05,130.199,0.4819999933242798,-2.5512083130108927
130.344828,,3.288313868378574e-05,130.667,0.47600001096725464,-2.5642540644009335
130.81034499999998,,3.648696554953298e-05,131.129,0.48100000619888306,-2.5532965247585966
131.275862,,4.011657083375402e-05,131.6,0.48100000619888306,-2.553195973818474
131.741379,,4.376015211125858e-05,132.063,0.5149999856948853,-2.4789875130756513
132.206897,,4.740534909539213e-05,132.528,0.5080000162124634,-2.4940726536642335
132.67241399999997,,5.1039263708029084e-05,132.992,0.47999998927116394,-2.5548838694196783
133.13793099999998,,5.464848293884059e-05,133.457,0.49000000953674316,-2.532887485590881
133.60344800000001,,5.821910453304115e-05,133.922,0.4909999966621399,-2.5304867484526232
134.06896600000002,,6.173676553843183e-05,134.388,0.4959999918937683,-2.519365589406856
134.53448300000002,,6.51866737336986e-05,134.855,0.49000000953674316,-2.5322105654371128
135.0,,6.855364195060368e-05,135.314,0.4909999966621399,-2.5298131192550715
135.465517,,7.182212529293817e-05,135.786,0.4699999988079071,-2.5753610898579176
135.931034,,7.497626124490186e-05,136.244,0.4860000014305115,-2.5403208265879504
136.396552,,7.799991265095803e-05,136.715,0.4860000014305115,-2.5401659952194406
136.862069,,8.087671353819702e-05,137.177,0.4950000047683716,-2.5204344874396374
137.327586,,8.359011774085448e-05,137.645,0.47200000286102295,-2.5704546748727113
137.793103,,8.612345027489338e-05,138.107,0.4880000054836273,-2.5355453995414923
138.258621,,8.845996139849833e-05,138.575,0.4729999899864197,-2.5682136657361574
138.724138,,9.058288328197654e-05,139.037,0.4819999933242798,-2.5486339587281304
139.189655,,9.247548919794346e-05,139.502,0.4880000054836273,-2.5356286208134855
139.655172,,9.41211551298236e-05,139.969,0.4880000054836273,-2.5357310386693874
140.12069,,9.550342368365742e-05,140.434,0.4880000054836273,-2.53586588638528
140.586207,,9.660607017500855e-05,140.901,0.4860000014305115,-2.5403862519047604
141.05172399999998,,9.741317074945376e-05,141.359,0.47999998927116394,-2.5536445396411724
141.51724099999998,,9.790917238175292e-05,141.826,0.47999998927116394,-2.5538486992644516
141.982759,,9.80789645853802e-05,142.292,0.48100000619888306,-2.5518857622175695
142.44827600000002,,9.790795265070039e-05,142.756,0.4959999918937683,-2.5194264444043575
142.913793,,9.738213221674082e-05,143.222,0.460999995470047,-2.5958975212034185
143.37931,,9.648816496829128e-05,143.689,0.49000000953674316,-2.532926827105143
143.844828,,9.521345523701311e-05,144.151,0.4620000123977661,-2.5941246699664724
144.310345,,9.354622727240778e-05,144.619,0.4880000054836273,-2.5376550608151187
144.77586200000002,,9.147560293593855e-05,145.081,0.5019999742507935,-2.5073028636005272
145.241379,,8.899167955937427e-05,145.549,0.421999990940094,-2.6817131682951327
145.706897,,8.608560769658794e-05,146.011,0.4869999885559082,-2.5401869270740876
146.172414,,8.274966848665355e-05,146.477,0.46299999952316284,-2.5925249216283235
146.637931,,7.897735033520114e-05,146.944,0.4830000102519989,-2.5489646174968676
147.103448,,7.476342461067498e-05,147.41,0.5049999952316284,-2.5010082513671805
147.568966,,7.01040200424499e-05,147.875,0.4909999966621399,-2.5314442937768065
148.034483,,6.4996695498761e-05,148.34,0.48399999737739563,-2.5465931641273705
148.5,,5.94405108141502e-05,148.8,0.4909999966621399,-2.5312079211932024
148.965517,,5.3436095328693e-05,149.266,0.4009999930858612,-2.72712441941273
149.43103399999998,,4.6985713794699195e-05,149.734,0.4860000014305115,-2.5417567132718446
149.89655199999999,,4.0093329300944224e-05,150.196,0.49399998784065247,-2.524128425499648
150.362069,,3.2764662859841005e-05,150.663,0.4909999966621399,-2.530452837532084
150.82758600000003,,2.500724929936588e-05,151.126,0.47600001096725464,-2.562915333771085
151.293103,,1.6830489099062117e-05,151.589,0.48399999737739563,-2.545270375242749
151.758621,,8.245695808117854e-06,152.059,0.48500001430511475,-2.542883878022467
152.224138,,7.33861316595257e-07,152.525,0.4909999966621399,-2.5296182566568244
152.68965500000002,,1.009291981347806e-05,152.987,0.5239999890327454,-2.45754821727033
153.155172,,1.9814192018633704e-05,153.453,0.4860000014305115,-2.540186126167122
153.62069,,2.987833892240905e-05,153.919,0.4959999918937683,-2.518278152352291
154.086207,,4.026395022943492e-05,154.385,0.4860000014305115,-2.5399767378051052
154.551724,,5.094753096485215e-05,154.849,0.4819999933242798,-2.5486401895753854
155.017241,,6.190349496122234e-05,155.315,0.4860000014305115,-2.5399131198363922
155.482759,,7.310416555091374e-05,155.774,0.47099998593330383,-2.5726198768280506
155.948276,,8.451978377749298e-05,156.24,0.4830000102519989,-2.5465420158638623
156.413793,,9.611852442681784e-05,156.711,0.492000013589859,-2.5270368804396317
156.87931,,0.0001078665201640948,157.173,0.4819999933242798,-2.5489594096316295
157.34482799999998,,0.0001197278940471194,157.641,0.4659999907016754,-2.58398345933413
157.81034499999998,,0.00013166480066825097,158.104,0.48899999260902405,-2.534065136847102
158.275862,,0.00014363747615837573,158.567,0.4740000069141388,-2.5669542672384345
158.741379,,0.00015560429726518905,159.03,0.5019999742507935,-2.506173518715305
159.20689700000003,,0.00016752184969558048,159.495,0.48500001430511475,-2.543436447035571
159.672414,,0.00017934500588774973,159.959,0.49000000953674316,-2.5327668118316615
160.137931,,0.0001910270123529341,160.425,0.49000000953674316,-2.532981218028143
160.60344800000001,,0.00020251958669931653,160.892,0.47600001096725464,-2.5636810136673067
161.06896600000002,,0.00021377302442183763,161.359,0.4909999966621399,-2.5311783648761477
161.534483,,0.0002247363155112945,161.823,0.492000013589859,-2.5291492250553373
162.0,,0.0002353572709043204,162.289,0.4880000054836273,-2.5379809314048827
162.465517,,0.00024558265876265445,162.756,0.4819999933242798,-2.5511340399633506
162.931034,,0.0002553583505355937,163.214,0.48399999737739563,-2.546819690713829
163.396552,,0.00026462947672373384,163.682,0.4790000021457672,-2.557716376462745
163.862069,,0.0002733405922251301,164.144,0.48899999260902405,-2.5358936119098034
164.327586,,0.0002814358511069245,164.615,0.5009999871253967,-2.509674319961925
164.793103,,0.0002888591906063872,165.077,0.4880000054836273,-2.537883847392076
165.258621,,0.0002955545241253023,165.545,0.48899999260902405,-2.5355586710483182
165.72413799999998,,0.00030146594294079543,166.008,0.47200000286102295,-2.572420468397696
166.189655,,0.0003065379263141744,166.474,0.4909999966621399,-2.530827919734505
166.655172,,0.0003107155596372433,166.941,0.49000000953674316,-2.5327910358471306
167.12069,,0.0003139447602129992,167.399,0.49000000953674316,-2.5325645861338657
167.58620699999997,,0.0003161725102247479,167.87,0.47200000286102295,-2.5715502589009684
168.051724,,0.00031734709640463704,168.329,0.49799999594688416,-2.5146791087093088
168.517241,,0.00031741835586953835,168.794,0.4779999852180481,-2.558036338922791
168.98275900000002,,0.00031633792754928454,169.26,0.4860000014305115,-2.5404086644738375
169.44827600000002,,0.00031405950858963834,169.73,0.48899999260902405,-2.533697828721436
169.913793,,0.00031053911507020285,170.193,0.47999998927116394,-2.553159682494538
170.37931,,0.00030573534633594924,170.656,0.4869999885559082,-2.537796782739346
170.844828,,0.00029960965220031816,171.126,0.4880000054836273,-2.53554281006754
171.310345,,0.0002921266022381473,171.586,0.49000000953674316,-2.5311494803431467
171.775862,,0.0002832541563481709,172.056,0.43799999356269836,-2.644444585926071
172.241379,,0.0002729639357276934,172.514,0.48399999737739563,-2.544274292882141
172.706897,,0.0002612314933664342,172.984,0.49000000953674316,-2.531289894234017
173.172414,,0.0002480365831327179,173.45,0.5090000033378601,-2.490018869838382
173.637931,,0.00023336342649341108,173.915,0.48100000619888306,-2.551175991857731
174.103448,,0.00021720097587945637,174.38,0.48399999737739563,-2.544822520713762
174.568966,,0.00019954317368154622,174.845,0.48399999737739563,-2.545027272133581
175.034483,,0.00018038920583555225,175.304,0.4819999933242798,-2.549605284724023
175.5,,0.0001597437489352792,175.77,0.4749999940395355,-2.5650858688024405
175.96551699999998,,0.00013761720979153663,176.236,0.49399998784065247,-2.5239237407397472
176.43103399999998,,0.00011402595634128654,176.704,0.47999998927116394,-2.5546516505680805
176.896552,,8.89925387978826e-05,177.166,0.5009999871253967,-2.509114207729766
177.36206900000002,,6.254589992318068e-05,177.63,0.49000000953674316,-2.533273885245308
177.827586,,3.472157329675805e-05,178.1,0.4880000054836273,-2.537800204745998
178.293103,,5.5618684587792955e-06,178.563,0.4950000047683716,-2.522688027704704
178.758621,,2.488395819120942e-05,179.026,0.47200000286102295,-2.572900622611074
179.224138,,5.655954785300345e-05,179.491,0.49000000953674316,-2.533751071944461
179.68965500000002,,8.940130025205643e-05,179.956,0.4880000054836273,-2.538134773360601
180.155172,,0.00012333825212801434,180.421,0.4790000021457672,-2.5577283503883272
180.62069,,0.00015829197434303913,180.886,0.47600001096725464,-2.564210204186274
181.086207,,0.0001941764886276449,181.352,0.49000000953674316,-2.5336169139713793
181.551724,,0.00023089820497339817,181.818,0.4880000054836273,-2.537846276862661
182.01724099999998,,0.00026835588069337854,182.284,0.5540000200271606,-2.393894216205475
182.482759,,0.0003064406021228188,182.748,0.47699999809265137,-2.561459846903417
182.948276,,0.0003450357897836773,183.214,0.5049999952316284,-2.5002451270158024
183.413793,,0.00038401722772020614,183.674,0.4790000021457672,-2.556662875173211
183.87931,,0.0004232531178157834,184.144,0.49000000953674316,-2.5324634245535336
184.34482799999998,,0.00046260416010243167,184.604,0.47699999809265137,-2.560552106869814
184.81034499999998,,0.0005019236598898429,185.074,0.49300000071525574,-2.5254677586410264
185.27586200000002,,0.0005410576618352862,185.545,0.47200000286102295,-2.571008373387158
185.74137900000002,,0.000579845110736426,186.0,0.49000000953674316,-2.5316033371202344
186.206897,,0.0006181180398412029,186.466,0.47999998927116394,-2.553228014222119
186.672414,,0.0006557017887949664,186.931,0.49000000953674316,-2.531311958270979
187.137931,,0.000692415252131369,187.397,0.4880000054836273,-2.5355759271934484
187.60344800000001,,0.0007280711553176099,187.863,0.47999998927116394,-2.552950889968313
188.06896600000002,,0.000762476354540885,188.329,0.48899999260902405,-2.5333296404379158
188.534483,,0.0007954321635550573,188.794,0.47999998927116394,-2.5529652829877825
189.0,,0.0008267347180582196,189.259,0.4790000021457672,-2.555212124292067
189.465517,,0.000856175378870595,189.722,0.4830000102519989,-2.54660406692237
189.931034,,0.0008835411528878323,190.185,0.5189999938011169,-2.468313394017211
190.39655199999999,,0.0009086151116639518,190.656,0.48899999260902405,-2.533842309218537
190.862069,,0.0009311768337583726,191.118,0.49300000071525574,-2.52532094368578
191.327586,,0.0009510029318205611,191.582,0.4860000014305115,-2.54078305017218
191.793103,,0.0009678676577371536,192.044,0.49300000071525574,-2.52575584710366
192.25862099999998,,0.000981543453285586,192.51,0.44600000977516174,-2.628381258425385
192.72413799999998,,0.0009918013521435893,192.981,0.48899999260902405,-2.5349275652013548
193.189655,,0.0009984114282962262,193.439,0.4690000116825104,-2.5787204723838477
193.655172,,0.0010011436373096988,193.904,0.49300000071525574,-2.5266372485814625
194.12069000000002,,0.0009997689227939414,194.37,0.4959999918937683,-2.5202830234769356
194.586207,,0.0009940597704949014,194.834,0.4729999899864197,-2.570545198012537
195.051724,,0.0009837898168300596,195.3,0.4880000054836273,-2.537985920930015
195.517241,,0.0009687338754897346,195.767,0.44699999690055847,-2.6273951688002644
195.98275900000002,,0.0009486702742252455,196.233,0.47600001096725464,-2.5642610707782914
196.448276,,0.0009233842028151185,196.701,0.4740000069141388,-2.568625478814885
196.913793,,0.0008926671406873355,197.163,0.4959999918937683,-2.5206614731540107
197.37931,,0.0008563110965815524,197.626,0.4860000014305115,-2.542373694245019
197.844828,,0.0008141067844271559,198.089,0.48399999737739563,-2.546618499530901
198.310345,,0.0007658556149050353,198.56,0.4880000054836273,-2.5377567806788086
198.775862,,0.0007113846163021351,199.022,0.5049999952316284,-2.500542194750759
199.241379,,0.0006505352803059545,199.488,0.46700000762939453,-2.5831283505694054
199.706897,,0.0005831255755635537,199.953,0.4880000054836273,-2.5371563872864895
200.172414,,0.0005089441592752605,200.418,0.47600001096725464,-2.5630690680487143
200.63793099999998,,0.0004278254254785611,200.885,0.48899999260902405,-2.5345118944451337
201.103448,,0.00033972280123120073,201.351,0.47200000286102295,-2.5713179169391944
201.568966,,0.00024461439086225005,201.815,0.5019999742507935,-2.50573841343227
202.034483,,0.00014227844884242001,202.274,0.47999998927116394,-2.5534660470560397
202.5,,3.2309704783039565e-05,202.741,0.4790000021457672,-2.555466236873613
202.965517,,8.540457352959744e-05,203.207,0.4959999918937683,-2.5182807940151757
203.431034,,0.00021033710016435796,203.671,0.48100000619888306,-2.5508464924522865
203.896552,,0.00034202106242745787,204.14,0.49000000953674316,-2.5311628116067735
204.36206900000002,,0.00048132223919869493,204.604,0.46399998664855957,-2.587773013220066
204.827586,,0.0006300122824413581,205.066,0.492000013589859,-2.5267786258202998
205.293103,,0.0007878115261627509,205.532,0.5049999952316284,-2.4985056933108196
205.758621,,0.0009509065872701054,205.995,0.4779999852180481,-2.5574183630021405
206.224138,,0.0011168477736792164,206.46,0.4909999966621399,-2.529222495669221
206.689655,,0.0012915031488833963,206.926,0.4880000054836273,-2.5359187010632906
207.155172,,0.0014845347745234502,207.392,0.4880000054836273,-2.536107585029292
207.62069,,0.0016914903104021703,207.86,0.49799999594688416,-2.514532625440902
208.086207,,0.0018888192263334012,208.326,0.49000000953674316,-2.53218913957652
208.551724,,0.00206672114740695,208.786,0.492000013589859,-2.528068027382304
209.01724099999998,,0.0022655963380580854,209.251,0.4830000102519989,-2.547913807586575
209.482759,,0.0025375773133981313,209.719,0.48399999737739563,-2.5459677055151744
209.948276,,0.0028408919074735246,210.182,0.4880000054836273,-2.5374729724472727
210.413793,,0.0030346994778313882,210.645,0.47699999809265137,-2.5616384951013282
210.87930999999998,,0.0030921880621640656,211.115,0.4970000088214874,-2.51823996313597
211.344828,,0.0032811654576982503,211.578,0.48899999260902405,-2.5358118369867273
211.810345,,0.0038698765219566072,212.04,0.46700000762939453,-2.583848668756061
212.27586200000002,,0.004520905465639224,212.506,0.4740000069141388,-2.568666024186355
212.741379,,0.004412981010135334,212.97,0.47200000286102295,-2.5730504448493243
213.206897,,0.0035874052124745238,213.436,0.47699999809265137,-2.562142333656348
213.672414,,0.003780383189066156,213.9,0.4950000047683716,-2.5228695123048293
214.137931,,0.006317960832658325,214.366,0.5009999871253967,-2.5096989543108923
214.60344800000001,,0.008602147185732312,214.831,0.503000020980835,-2.505203570512179
215.068966,,0.005068037280585345,215.297,0.47999998927116394,-2.555139638119599
215.534483,,0.005769081676701476,215.764,0.4909999966621399,-2.530972525284458
216.0,,0.016910594739790674,216.229,0.5180000066757202,-2.471923740089484
216.465517,,0.01918160793638164,216.693,0.47699999809265137,-2.5610064233101686
216.93103399999998,,0.011251838657718963,217.155,0.49900001287460327,-2.5128256433945735
217.39655199999999,,3.728618022578064e-05,217.623,0.49900001287460327,-2.5125745205045256
217.862069,,0.007994107590393451,218.085,0.48399999737739563,-2.5450103560432584
218.327586,,0.012318829727473599,218.553,0.49000000953674316,-2.531709928337879
218.793103,,0.01555296347144302,219.015,0.49799999594688416,-2.514074939946271
219.25862099999998,,0.01879964203923436,219.481,0.4830000102519989,-2.5465780351592926
219.724138,,0.0210641032783213,219.949,0.43799999356269836,-2.644476906706447
220.18965500000002,,0.02129245764202533,220.415,0.48399999737739563,-2.5441606009528215
220.65517200000002,,0.019203512804093572,220.874,0.5009999871253967,-2.50706915219842
221.12069,,0.014549470196497799,221.34,0.47699999809265137,-2.559347068138918
221.586207,,0.007054277724334591,221.804,0.4869999885559082,-2.537596572735192
222.051724,,0.002385915343797241,222.269,0.48399999737739563,-2.5442132154915935
222.517241,,0.011325180912613727,222.741,0.492000013589859,-2.526906779626768
222.98275900000002,,0.0175608874910114,223.2,0.4779999852180481,-2.5575690488922964
223.448276,,0.021211633987600387,223.67,0.47699999809265137,-2.5599425084634166
223.913793,,0.02429671725964013,224.133,0.492000013589859,-2.5274852250838844
224.37931,,0.02801051289141978,224.597,0.4970000088214874,-2.516834503147585
224.844828,,0.030865116901479986,225.059,0.49000000953674316,-2.5323396124574566
225.31034499999998,,0.030079476774204774,225.524,0.4869999885559082,-2.5391344266147025
225.775862,,0.024848649196128732,225.995,0.4869999885559082,-2.5393895768089854
226.241379,,0.017649809257568195,226.46,0.4880000054836273,-2.537454336712384
226.706897,,0.011769822140387617,226.919,0.4909999966621399,-2.5311423349609536
227.172414,,0.007924027638441791,227.384,0.4659999907016754,-2.5858061991753516
227.63793099999998,,0.004208274714806623,227.849,0.4790000021457672,-2.557649363714473
228.103448,,0.0006719687981967921,228.315,0.47999998927116394,-2.555598993140126
228.56896600000002,,0.005282397973700232,228.782,0.48899999260902405,-2.536077357805442
229.03448300000002,,0.007168907329205278,229.247,0.4779999852180481,-2.560083643378551
229.5,,0.00590064874189545,229.715,0.4790000021457672,-2.557899731743041
229.965517,,0.0034028304857386987,230.178,0.49900001287460327,-2.5142749014234544
230.431034,,0.0014157727963238966,230.641,0.47600001096725464,-2.5642865168703826
230.896552,,0.0003057959526644096,231.111,0.4880000054836273,-2.5380030650578527
231.362069,,0.0027526878543983314,231.571,0.49000000953674316,-2.5334679150125137
231.827586,,0.005398192780053801,232.04,0.4909999966621399,-2.5310784287799017
232.293103,,0.006229270828937063,232.506,0.4880000054836273,-2.5373769940645876
232.758621,,0.004073291787811669,232.97,0.503000020980835,-2.5044405934530274
233.224138,,7.910385647092704e-05,233.435,0.4429999887943268,-2.6348924157106697
233.689655,,0.0035610878123823668,233.9,0.4909999966621399,-2.530048962935404
234.155172,,0.005959671318855158,234.365,0.4790000021457672,-2.5559314268341065
234.62069,,0.008153402056115608,234.83,0.49300000071525574,-2.5251835430920213
235.086207,,0.011649182810112057,235.289,0.48399999737739563,-2.544566827805068
235.55172399999998,,0.01690381185074095,235.756,0.47999998927116394,-2.5530864379848746
236.01724099999998,,0.023056967909857277,236.221,0.49399998784065247,-2.522426242117806
236.482759,,0.0283768628927366,236.689,0.4909999966621399,-2.528843734227419
236.94827600000002,,0.03093490193056302,237.152,0.4959999918937683,-2.517876412080736
237.413793,,0.029785689895842918,237.615,0.4779999852180481,-2.5570651358676524
237.87931,,0.025899156019512887,238.085,0.49000000953674316,-2.530942868329467
238.344828,,0.02131731176695768,238.548,0.4880000054836273,-2.53536979288112
238.810345,,0.017100312929010382,239.011,0.48100000619888306,-2.550736021215468
239.27586200000002,,0.012615883770326703,239.477,0.4959999918937683,-2.518214670277723
239.741379,,0.0069920823095825325,239.942,0.48399999737739563,-2.544554494746638
240.206897,,0.0006325309116249209,240.408,0.4779999852180481,-2.5578544487231913
240.672414,,0.005050201176231151,240.875,0.47999998927116394,-2.553750547836733
241.137931,,0.008946698539980754,241.34,0.49000000953674316,-2.5322347715087044
241.603448,,0.010900340666338127,241.8,0.4000000059604645,-2.7285941250161225
242.068966,,0.011419246843421224,242.266,0.47999998927116394,-2.5545860920984707
242.534483,,0.01131449230660876,242.734,0.5109999775886536,-2.487323824640182
243.0,,0.01148853789194043,243.196,0.49000000953674316,-2.533331996486057
243.465517,,0.012375950863897988,243.659,0.5090000033378601,-2.492166574330016
243.93103399999998,,0.013260648773405773,244.129,0.48399999737739563,-2.546826707387733
244.39655199999999,,0.012561956468834422,244.593,0.49399998784065247,-2.5251931661406037
244.862069,,0.00938879898200386,245.055,0.47200000286102295,-2.5732308469497442
245.327586,,0.004896341121829079,245.521,0.4880000054836273,-2.5384311041702117
245.793103,,0.001633575999387092,245.991,0.5049999952316284,-2.5014013717169514
246.258621,,0.0011415484604048944,246.449,0.5139999985694885,-2.481747882756584
246.724138,,0.002390070409777108,246.916,0.5130000114440918,-2.4838285799112474
247.18965500000002,,0.0030382352065264576,247.382,0.4819999933242798,-2.551219978420599
247.655172,,0.0021706260125874573,247.848,0.4830000102519989,-2.548851438941338
248.12069,,0.0011869104832096882,248.314,0.4959999918937683,-2.5203023908580633
248.586207,,0.0017205904323290074,248.779,0.4790000021457672,-2.557082954148962
249.051724,,0.0032700461684146125,249.245,0.49000000953674316,-2.5328398747307914
249.517241,,0.0036106472997362448,249.707,0.47600001096725464,-2.563050582816214
249.982759,,0.001370966320625058,250.17,0.492000013589859,-2.5278986276624544
250.44827600000002,,0.0025393595686081655,250.637,0.49000000953674316,-2.5319682585827556
250.913793,,0.006126986289751589,251.099,0.48500001430511475,-2.5425887727424197
251.37931000000003,,0.008291872788384514,251.567,0.49300000071525574,-2.5249106636098597
251.844828,,0.009350233731419326,252.03,0.49900001287460327,-2.511621267376012
252.31034499999998,,0.010008558916611711,252.496,0.4819999933242798,-2.5484793235551666
252.77586200000002,,0.010264643830140655,252.959,0.48899999260902405,-2.5330944378463505
253.241379,,0.009384883410522193,253.425,0.5009999871253967,-2.506865256532535
253.706897,,0.006695900932190216,253.889,0.47999998927116394,-2.552583118181367
254.172414,,0.0020901514353953965,254.354,0.49399998784065247,-2.5221014472771643
254.63793099999998,,0.004224802084923813,254.826,0.4880000054836273,-2.5352454396205037
255.10344800000001,,0.01222527349095824,255.284,0.47999998927116394,-2.552797507704487
255.56896600000002,,0.02231958371451575,255.749,0.4880000054836273,-2.5355383250685057
256.03448299999997,,0.03521137596923839,256.215,0.4970000088214874,-2.516142125652612
256.5,,0.051082824909223196,256.685,0.4819999933242798,-2.549068315882696
256.965517,,0.06802943354704558,257.148,0.4880000054836273,-2.536270100064933
257.431034,,0.08103006340469454,257.611,0.48500001430511475,-2.543098477138215
257.896552,,0.08337880617529318,258.074,0.49000000953674316,-2.5325070488721995
258.362069,,0.07044787269823803,258.541,0.47699999809265137,-2.5611311693683256
258.827586,,0.04290078257003818,259.004,0.4790000021457672,-2.5570660634899562
259.29310300000003,,0.0069042094385898265,259.469,0.47699999809265137,-2.5616969202415656
259.758621,,0.028187001922575398,259.937,0.4959999918937683,-2.5205483180528807
260.224138,,0.05302233549449868,260.402,0.49399998784065247,-2.5251148686580067
260.689655,,0.06161107914208917,260.867,0.4880000054836273,-2.5383524583337103
261.155172,,0.05388519867377587,261.333,0.49000000953674316,-2.5341121117175107
261.62068999999997,,0.035452262264436894,261.8,0.47600001096725464,-2.564677747700724
262.086207,,0.01407200569264367,262.266,0.5019999742507935,-2.508042810181419
262.551724,,0.004295947428408018,262.726,0.48500001430511475,-2.545034007670027
263.017241,,0.016682915558609873,263.189,0.49000000953674316,-2.5340407117161337
263.482759,,0.021801534128386774,263.659,0.4860000014305115,-2.5426041649371283
263.94827599999996,,0.019025818724276576,264.122,0.49900001287460327,-2.5140839004035485
264.413793,,0.008918855833364754,264.585,0.4950000047683716,-2.522559907893871
264.87931,,0.006194836168506881,265.055,0.4959999918937683,-2.520109271378634
265.34482799999995,,0.02305765799331304,265.514,0.47999998927116394,-2.5546712041489865
265.810345,,0.03887482597324015,265.984,0.47600001096725464,-2.5630749496924996
266.27586199999996,,0.05156264952497165,266.449,0.48399999737739563,-2.545330867459732
266.741379,,0.05887966803822926,266.911,0.5210000276565552,-2.464410912758971
267.206897,,0.05829885779639855,267.376,0.4880000054836273,-2.5360106160819234
267.672414,,0.04865883947324437,267.84,0.4950000047683716,-2.5204883882538285
268.137931,,0.03207971050686378,268.306,0.4050000011920929,-2.7163301216600293
268.603448,,0.013837487220361938,268.771,0.4779999852180481,-2.557096632926541
269.06896600000005,,7.620829372857166e-05,269.237,0.4880000054836273,-2.535167552344732
269.53448299999997,,0.00581943363869342,269.7,0.5009999871253967,-2.506754835538942
270.0,,0.003033606234059004,270.17,0.47999998927116394,-2.5524710656313783
270.465517,,0.005900074680121266,270.63,0.48399999737739563,-2.5437776767260583
270.931034,,0.017784483715166142,271.1,0.46799999475479126,-2.578713903029265
271.396552,,0.030164870042648614,271.56,0.47699999809265137,-2.559238469461051
271.86206899999996,,0.041538464454425945,272.03,0.4860000014305115,-2.539813269654701
272.327586,,0.05057042221050317,272.495,0.4860000014305115,-2.5400398796299006
272.793103,,0.055467556132593354,272.959,0.4779999852180481,-2.5577324755791384
273.258621,,0.05426381011172934,273.425,0.4830000102519989,-2.5471311349302614
273.724138,,0.04592082960135072,273.89,0.4880000054836273,-2.5365490218632574
274.18965499999996,,0.03154958791908113,274.355,0.4950000047683716,-2.5216184256551366
274.655172,,0.014629727988526475,274.815,0.48899999260902405,-2.5350086609907865
275.12069,,0.0006418227953441663,275.281,0.4790000021457672,-2.55710193015936
275.586207,,0.012001985317123667,275.748,0.49000000953674316,-2.533422531534621
276.051724,,0.02030097750117905,276.214,0.48899999260902405,-2.535856585902855
276.517241,,0.027968910398428505,276.678,0.5090000033378601,-2.492499826862905
276.98275900000004,,0.03646691241062185,277.141,0.5049999952316284,-2.5013839857729714
277.448276,,0.04522239085893274,277.604,0.5,-2.512394513730726
277.913793,,0.05261490863044886,278.073,0.4830000102519989,-2.5494934264137097
278.37931,,0.05768318850230047,278.54,0.47999998927116394,-2.556034765842946
278.844828,,0.06086285289755002,279.003,0.4880000054836273,-2.5385544613895625
279.31034500000004,,0.06300617547624263,279.469,0.4729999899864197,-2.571128404417708
279.77586199999996,,0.06385199638759967,279.934,0.48100000619888306,-2.5535422073161747
280.241379,,0.06212571129692515,280.4,0.45899999141693115,-2.601269764718046
280.706897,,0.05733910827443116,280.859,0.49000000953674316,-2.533489523042756
281.172414,,0.050649940360620246,281.325,0.4909999966621399,-2.5310363390990696
281.637931,,0.0434414928845044,281.79,0.5009999871253967,-2.5089506365052032
282.10344799999996,,0.03576087414124594,282.255,0.45100000500679016,-2.617569125132141
282.568966,,0.026687432139413065,282.726,0.4950000047683716,-2.5213906780214685
283.034483,,0.015650690039265426,283.188,0.47999998927116394,-2.5537582026941785
283.5,,0.002954340817830001,283.649,0.4830000102519989,-2.5469251094097602
283.965517,,0.0103873348031216,284.119,0.48500001430511475,-2.54229534412481
284.431034,,0.022814854349668963,284.582,0.4880000054836273,-2.535520006530803
284.89655200000004,,0.03260977751620869,285.044,0.46399998664855957,-2.587609131420424
285.362069,,0.038516606605501026,285.51,0.48100000619888306,-2.5504212651063676
285.827586,,0.03991407952912669,285.981,0.4950000047683716,-2.5198214175071323
286.293103,,0.03662418924537809,286.439,0.47600001096725464,-2.5611716412461725
286.758621,,0.029249318099836455,286.905,0.48399999737739563,-2.5437547548012773
287.22413800000004,,0.01978535246429427,287.37,0.49399998784065247,-2.5220364500357615
287.689655,,0.01107974892787665,287.837,0.47699999809265137,-2.5591952058191545
288.155172,,0.0050323433805235535,288.303,0.492000013589859,-2.5266871316961694
288.62069,,0.001551309367810099,288.767,0.4830000102519989,-2.5465112099522593
289.086207,,0.00037176391485139326,289.233,0.4970000088214874,-2.5162639265114644
289.55172400000004,,0.0009520860860021661,289.696,0.4830000102519989,-2.5470483737818603
290.01724099999996,,0.0004408770270208394,290.159,0.5109999775886536,-2.4863500802537235
290.482759,,0.0038723516443254476,290.63,0.5540000200271606,-2.3929812792011256
290.948276,,0.008117709536048045,291.092,0.492000013589859,-2.5283694692201824
291.413793,,0.011523943358896562,291.56,0.4880000054836273,-2.5373867189649464
291.87931,,0.01324332902890281,292.023,0.48100000619888306,-2.552922777487122
292.344828,,0.013528621395601573,292.489,0.4779999852180481,-2.5597188067347667
292.81034500000004,,0.01305289223469428,292.955,0.4659999907016754,-2.5860896160930285
293.275862,,0.012028114035088173,293.414,0.4819999933242798,-2.55141843716102
293.74137900000005,,0.009960793081797653,293.885,0.4909999966621399,-2.531951609495926
294.206897,,0.006411390804142172,294.351,0.48399999737739563,-2.547292039885954
294.672414,,0.002022815815436427,294.816,0.4880000054836273,-2.5386133209947075
295.13793100000004,,0.0016146012718674012,295.274,0.4880000054836273,-2.53859398785608
295.603448,,0.0034386866517614246,295.741,0.5009999871253967,-2.510197188414844
296.068966,,0.0038945093749662863,296.207,0.4869999885559082,-2.5405707713809176
296.534483,,0.00404087267945527,296.674,0.47999998927116394,-2.5556449596685966
297.0,,0.004119070906792308,297.136,0.47699999809265137,-2.561961617250853
297.46551700000003,,0.003666313399727134,297.6,0.5049999952316284,-2.5007036531298055
297.931034,,0.0027467964336249564,298.07,0.492000013589859,-2.528740801542595
298.396552,,0.002190514206427107,298.537,0.5009999871253967,-2.508826845225809
298.862069,,0.002531435244111413,298.994,0.49000000953674316,-2.532474389868543
299.327586,,0.0034845529412609144,299.46,0.47999998927116394,-2.5539422468429276
299.79310300000003,,0.004749077866841577,299.927,0.4869999885559082,-2.5383822149679816
300.258621,,0.0066093465500603995,300.393,0.49000000953674316,-2.531555392398464
300.724138,,0.009235678604373134,300.86,0.47600001096725464,-2.5617933622293894
301.189655,,0.01194472616445249,301.325,0.4950000047683716,-2.520171936683961
301.65517200000005,,0.013795383466693229,301.789,0.47200000286102295,-2.5700968445232144
302.12069,,0.014615624747365568,302.255,0.5,-2.5089594530330035
302.586207,,0.01490566204228717,302.715,0.47999998927116394,-2.552450057561862
303.05172400000004,,0.015010867793750847,303.185,0.49000000953674316,-2.5306365944826603
303.517241,,0.01494959408315922,303.645,0.46799999475479126,-2.578596785288426
303.982759,,0.014863334176194358,304.115,0.515999972820282,-2.47410723531444
304.448276,,0.015051387472154225,304.578,0.4819999933242798,-2.5483191988760745
304.913793,,0.015455505318986137,305.04,0.49399998784065247,-2.522361693557438
305.37931000000003,,0.015329210898787424,305.506,0.5130000114440918,-2.4811960887091105
305.844828,,0.013517419266093268,305.969,0.4880000054836273,-2.5359261913800832
306.310345,,0.009246326419657164,306.435,0.48399999737739563,-2.544932365863161
306.775862,,0.002952019192950192,306.9,0.49900001287460327,-2.512563303782315
307.241379,,0.003721932143614145,307.366,0.48100000619888306,-2.552099221387165
307.70689699999997,,0.009205879920293085,307.833,0.4950000047683716,-2.5219181848769137
308.172414,,0.013449885361529504,308.299,0.4050000011920929,-2.718308176258663
308.637931,,0.017686181827229842,308.764,0.47999998927116394,-2.555204630708543
309.103448,,0.02252580494745836,309.229,0.4869999885559082,-2.540222284147219
309.568966,,0.02685499726200864,309.69,0.492000013589859,-2.5295600089722132
310.034483,,0.0291868235986074,310.159,0.5130000114440918,-2.48399415890602
310.5,,0.029575865945918732,310.622,0.47699999809265137,-2.5625599263446643
310.96551700000003,,0.029171023336644626,311.085,0.49000000953674316,-2.5343167682196786
311.431034,,0.027984939777311597,311.553,0.4909999966621399,-2.5321599142278157
311.896552,,0.02441903927756277,312.015,0.49300000071525574,-2.5277656517172735
312.362069,,0.017784492810221784,312.481,0.46799999475479126,-2.5821375599303806
312.827586,,0.010502169671606198,312.945,0.48399999737739563,-2.5471308031327493
313.29310300000003,,0.006464072214139173,313.411,0.48500001430511475,-2.544754003883316
313.758621,,0.0070037628389009576,313.878,0.4620000123977661,-2.594621145389964
314.224138,,0.009477229286517286,314.343,0.4860000014305115,-2.5420558387935435
314.689655,,0.010373801609689546,314.807,0.4779999852180481,-2.559179501239972
315.155172,,0.009014314318980528,315.273,0.47999998927116394,-2.5544979536843875
315.62068999999997,,0.007359469261057766,315.734,0.4970000088214874,-2.517127654073132
316.086207,,0.0068782929462840306,316.203,0.4880000054836273,-2.536403053434407
316.551724,,0.0069295970932556706,316.664,0.49000000953674316,-2.531724329106659
317.017241,,0.00616149055592269,317.134,0.4779999852180481,-2.5575681057309883
317.482759,,0.004213743007023752,317.597,0.4950000047683716,-2.5202617858166447
317.94827599999996,,0.0015818986108924367,318.059,0.4519999921321869,-2.6137141788144547
318.413793,,0.0012775326973558322,318.525,0.46399998664855957,-2.5873888655951953
318.87931000000003,,0.004068616278752952,318.995,0.4779999852180481,-2.556760123363558
319.344828,,0.0064001357122222555,319.454,0.45399999618530273,-2.6089776855974676
319.810345,,0.007967964936380453,319.926,0.4959999918937683,-2.517464224139454
320.275862,,0.00882546028911477,320.384,0.503000020980835,-2.5022623745523886
320.741379,,0.009171120175951146,320.856,0.4819999933242798,-2.548119750403383
321.20689699999997,,0.008902899532400633,321.314,0.48399999737739563,-2.5439225533437093
321.672414,,0.007537345330138059,321.779,0.48399999737739563,-2.5441326288205794
322.137931,,0.0046995035292716845,322.245,0.46000000834465027,-2.5966743095063625
322.603448,,0.0007889328372984041,322.715,0.492000013589859,-2.527248280587597
323.068966,,0.0028793033041437416,323.177,0.49399998784065247,-2.5232087709857804
323.53448299999997,,0.004692521603148503,323.645,0.49000000953674316,-2.5322577056252036
324.0,,0.00356994259337406,324.107,0.49399998784065247,-2.523883990093996
324.465517,,0.0005296713901665141,324.575,0.4880000054836273,-2.5372927240706913
324.931034,,0.006474932519717763,325.037,0.4740000069141388,-2.568116810584544
325.396552,,0.012377413601683176,325.503,0.4959999918937683,-2.520485982962176
325.86206899999996,,0.016744306037158752,325.969,0.48899999260902405,-2.5360027143711625
326.327586,,0.019584234054039276,326.435,0.49799999594688416,-2.51661927889509
326.793103,,0.022271514030961913,326.9,0.48500001430511475,-2.545117415566272
327.258621,,0.026291737314761893,327.365,0.47999998927116394,-2.5561327342229165
327.724138,,0.0321052432467258,327.83,0.4860000014305115,-2.5431256135849516
328.189655,,0.038767412531744795,328.289,0.4880000054836273,-2.538773643373633
328.655172,,0.044192320994017806,328.756,0.4779999852180481,-2.560505785063748
329.12068999999997,,0.046096444815567475,329.222,0.47999998927116394,-2.556036204929813
329.586207,,0.04334063484122361,329.685,0.4909999966621399,-2.531904119761943
330.051724,,0.03648025607969645,330.155,0.5040000081062317,-2.503364368425254
330.517241,,0.026879767955210968,330.615,0.4860000014305115,-2.542318618055586
330.982759,,0.015618918379449918,331.085,0.49799999594688416,-2.515877363729599
331.44827599999996,,0.003768079324903231,331.545,0.47999998927116394,-2.554768858413122
331.913793,,0.006336728336716315,332.015,0.47699999809265137,-2.560964267505735
332.37931,,0.010866295711887545,332.481,0.48899999260902405,-2.534474304316492
332.844828,,0.006605531128992376,332.941,0.503000020980835,-2.5036312542667516
333.310345,,0.005870409150636666,333.406,0.49000000953674316,-2.531626098877254
333.77586199999996,,0.02096845277481491,333.87,0.503000020980835,-2.503000372525314
334.241379,,0.030568640765989717,334.336,0.4819999933242798,-2.5484827057934583
334.706897,,0.028504056310280412,334.801,0.5059999823570251,-2.4959681659647335
335.17241399999995,,0.013318318499909495,335.267,0.48899999260902405,-2.532827503352219
335.637931,,0.012208904608225764,335.73,0.48899999260902405,-2.5327049450580956
336.103448,,0.042595092864898654,336.2,0.503000020980835,-2.5021403648250202
336.56896600000005,,0.07025611766797282,336.663,0.47600001096725464,-2.5609617475343995
337.034483,,0.0868335014666581,337.126,0.47999998927116394,-2.5523072357813716
337.5,,0.08724061540598163,337.594,0.4790000021457672,-2.5546068176525134
337.965517,,0.07366238119982958,338.056,0.4830000102519989,-2.5460704089686335
338.431034,,0.05457087049938406,338.522,0.48100000619888306,-2.5506577111101127
338.89655200000004,,0.038805610669067625,338.985,0.49900001287460327,-2.5117164647722676
339.36206899999996,,0.030250648314229037,339.451,0.4749999940395355,-2.5643144239237508
339.827586,,0.0273618691359638,339.915,0.492000013589859,-2.527614283837095
340.293103,,0.02635118700025496,340.38,0.4880000054836273,-2.536681955158425
340.758621,,0.024205246113261827,340.845,0.5099999904632568,-2.4891093995042795
341.224138,,0.01963329945931328,341.31,0.4869999885559082,-2.5395692957249443
341.68965499999996,,0.012785770754761509,341.774,0.5090000033378601,-2.491972390973175
342.155172,,0.00496508847684699,342.24,0.4740000069141388,-2.568530916583218
342.62069,,0.0018188917163358747,342.711,0.4830000102519989,-2.549192530964788
343.086207,,0.006066930160856606,343.173,0.4909999966621399,-2.531988271485055
343.551724,,0.00810069316133849,343.634,0.5120000243186951,-2.486409021520831
344.01724099999996,,0.009876066816491837,344.104,0.48399999737739563,-2.5475254017654834
344.48275900000004,,0.013095832670983226,344.567,0.531000018119812,-2.4451808377581834
344.948276,,0.01752324710536382,345.03,0.4880000054836273,-2.5388505157593904
345.413793,,0.021355195525577738,345.495,0.48500001430511475,-2.5453110300961987
345.87931,,0.023233783519074715,345.959,0.49000000953674316,-2.5342823452861225
346.344828,,0.023554618321112455,346.425,0.47600001096725464,-2.564592211092812
346.81034500000004,,0.0234551975866733,346.89,0.4869999885559082,-2.5403861898556124
347.275862,,0.022771193509268827,347.355,0.4860000014305115,-2.5422813984881194
347.741379,,0.019843929923640775,347.822,0.47600001096725464,-2.563750645077695
348.206897,,0.013776494344003397,348.288,0.49000000953674316,-2.532908338455055
348.672414,,0.0063432703747415995,348.753,0.5019999742507935,-2.5064092660533217
349.13793100000004,,0.0010476393407952355,349.218,0.5170000195503235,-2.4733698077999167
349.60344799999996,,0.00029712666281542883,349.681,0.4880000054836273,-2.5361975796299743
350.068966,,0.0035929546185779863,350.144,0.49000000953674316,-2.531505375588331
350.534483,,0.008273155881252981,350.612,0.48899999260902405,-2.5333782006125225
351.0,,0.011992835657352605,351.074,0.49799999594688416,-2.5135028376569406
351.465517,,0.014740288576553816,351.545,0.5,-2.5089243293012147
351.93103399999995,,0.018497731585624552,352.007,0.47999998927116394,-2.5523294954516733
352.396552,,0.02488114426177197,352.472,0.4950000047683716,-2.5195409620124374
352.862069,,0.033340251539916564,352.937,0.4749999940395355,-2.5630679522945794
353.32758600000005,,0.04180735946805082,353.403,0.4830000102519989,-2.545657302125153
353.793103,,0.048604528850833564,353.87,0.5009999871253967,-2.506524108226382
354.258621,,0.0529977191127863,354.336,0.48899999260902405,-2.53281114040979
354.72413800000004,,0.053954782642386526,354.801,0.5189999938011169,-2.467650950187919
355.189655,,0.04942305431526334,355.259,0.492000013589859,-2.526723328535074
355.655172,,0.037793505122357456,355.727,0.4880000054836273,-2.5357294099856675
356.12069,,0.019846928648741637,356.189,0.4790000021457672,-2.5556632616669943
356.586207,,0.0015779884958955059,356.659,0.4880000054836273,-2.5364062364962345
357.05172400000004,,0.02372612231649832,357.122,0.4909999966621399,-2.5302349771116104
357.517241,,0.044840482045545,357.585,0.492000013589859,-2.528423288887597
357.982759,,0.06306775987567417,358.055,0.492000013589859,-2.5287812080666914
358.448276,,0.0757940634515611,358.521,0.4950000047683716,-2.5225829878601784
358.913793,,0.08085421183660374,358.983,0.5540000200271606,-2.3943484801681443
359.37931000000003,,0.07809271794815699,359.449,0.48399999737739563,-2.5471175233361207
359.844828,,0.06954250463756047,359.91,0.48899999260902405,-2.5364388637960333
360.310345,,0.05825061336150944,360.376,0.4830000102519989,-2.549670964608777
360.775862,,0.04663329810638286,360.841,0.49300000071525574,-2.527985395855497
361.241379,,0.035418622253325635,361.307,0.4869999885559082,-2.5410955734279463
361.706897,,0.024150206296808665,361.772,0.49000000953674316,-2.5345339161094795
362.172414,,0.012762289972764419,362.237,0.5070000290870667,-2.4974076277753836
362.63793100000004,,0.0021954507364840385,362.7,0.4959999918937683,-2.5212222504677593
363.103448,,0.006741835086612279,363.17,0.4620000123977661,-2.595089552483108
363.568966,,0.014436351706522957,363.63,0.5049999952316284,-2.501151743161137
364.034483,,0.021773433728271747,364.099,0.5019999742507935,-2.507389432986775
364.5,,0.028691095023719686,364.56,0.4950000047683716,-2.522307725217407
364.96551700000003,,0.033987428825767815,365.03,0.49000000953674316,-2.5328454234168425
365.431034,,0.03644511736978052,365.495,0.48899999260902405,-2.5346564128347486
365.896552,,0.03568975233096982,365.959,0.5009999871253967,-2.508143926593442
366.362069,,0.03198869316844829,366.425,0.4950000047683716,-2.520857037445755
366.827586,,0.025756188630552602,366.889,0.49000000953674316,-2.53141259157752
367.29310300000003,,0.017628440292718477,367.355,0.4970000088214874,-2.515855987156796
367.758621,,0.008876767552802539,367.818,0.47200000286102295,-2.570057525019698
368.224138,,0.0013135158054426493,368.284,0.4830000102519989,-2.545877789258741
368.689655,,0.003590097502414228,368.744,0.48399999737739563,-2.5435413822288773
369.155172,,0.005658347059031603,369.21,0.5120000243186951,-2.482442257811128
369.62068999999997,,0.006045510099419727,369.678,0.4099999964237213,-2.704632402957752
370.086207,,0.0061952798159524355,370.141,0.49000000953674316,-2.5303758436404666
370.55172400000004,,0.006653231011666711,370.604,0.4880000054836273,-2.534833922896797
371.017241,,0.00677621737057778,371.074,0.47999998927116394,-2.552424836543284
371.482759,,0.005484249464291819,371.545,0.4779999852180481,-2.55700006309984
371.948276,,0.0023571027486590976,372.0,0.4880000054836273,-2.535480935212343
372.413793,,0.0017652149830080673,372.465,0.5109999775886536,-2.485679890837495
372.87931000000003,,0.0052100322195896215,372.93,0.48899999260902405,-2.533948228068491
373.344828,,0.006790050238675542,373.396,0.41200000047683716,-2.702063964107865
373.810345,,0.006859054256274452,373.863,0.4959999918937683,-2.519429510173681
374.275862,,0.006784131897190103,374.328,0.48899999260902405,-2.5350513217663497
374.741379,,0.007237274578014207,374.793,0.4880000054836273,-2.5375876115115026
375.20689699999997,,0.007427272924993567,375.259,0.4880000054836273,-2.537920776542659
375.672414,,0.006272653446421767,375.719,0.49399998784065247,-2.5251471959545304
376.137931,,0.003817041437458563,376.189,0.47600001096725464,-2.564617142328506
376.603448,,0.001004080263883209,376.652,0.5130000114440918,-2.4842095231240306
377.068966,,0.0015299342291889533,377.114,0.48500001430511475,-2.545355486175826
377.53448299999997,,0.003874391186535396,377.582,0.4909999966621399,-2.5323647121168054
378.0,,0.006335331240656061,378.044,0.47999998927116394,-2.5563463741431374
378.465517,,0.008943307146615157,378.51,0.503000020980835,-2.5061887947576587
378.931034,,0.01116206765234064,378.981,0.48399999737739563,-2.5474708669276094
379.396552,,0.011734469546712955,379.439,0.503000020980835,-2.505903977000868
379.862069,,0.009265467070125887,379.904,0.47999998927116394,-2.5557858530213253
380.327586,,0.003611497535116473,380.37,0.49399998784065247,-2.5250104411012178
380.79310300000003,,0.003397113903476228,380.834,0.4970000088214874,-2.518161400096471
381.258621,,0.009288193700014553,381.3,0.49000000953674316,-2.533069744563735
381.724138,,0.013268995601223174,381.767,0.49000000953674316,-2.53270930652171
382.189655,,0.016742633519187113,382.232,0.4909999966621399,-2.5301633726548927
382.655172,,0.021278148766217427,382.7,0.5249999761581421,-2.4557259263676268
383.12068999999997,,0.02669495579395346,383.162,0.49900001287460327,-2.5120217192846215
383.586207,,0.0314928995185234,383.63,0.4819999933242798,-2.5487357403852995
384.051724,,0.03443922914087357,384.092,0.4779999852180481,-2.5571645169555213
384.517241,,0.03527041712452851,384.556,0.5419999957084656,-2.4174904817542036
384.982759,,0.03448768406602263,385.026,0.5049999952316284,-2.497911255569345
385.44827599999996,,0.0328857364761929,385.484,0.503000020980835,-2.5021365841083982
385.913793,,0.030769302379063106,385.949,0.5040000081062317,-2.4998882741257167
386.37931,,0.027380037852592205,386.415,0.4880000054836273,-2.5347417154420935
386.84482799999995,,0.021485007535176584,386.882,0.49900001287460327,-2.5108369088720632
387.310345,,0.012552227864273477,387.347,0.48399999737739563,-2.5436406478595597
387.775862,,0.0009994660412313752,387.812,0.4950000047683716,-2.5198593630380985
388.241379,,0.012444297970879117,388.278,0.5049999952316284,-2.4983106031952205
388.70689699999997,,0.02689364612008196,388.744,0.4959999918937683,-2.5182021506555734
389.172414,,0.040794392691257036,389.21,0.4909999966621399,-2.529416432635132
389.637931,,0.05207764520673875,389.671,0.48399999737739563,-2.545015804746455
390.103448,,0.05940445440751345,390.141,0.492000013589859,-2.5279524534019884
390.56896600000005,,0.0629994053870426,390.604,0.48399999737739563,-2.5457530936166504
391.03448299999997,,0.06388789215066108,391.067,0.5170000195503235,-2.474222405189807
391.5,,0.06254396481769922,391.532,0.4880000054836273,-2.5377493881194737
391.965517,,0.058657759024006516,391.996,0.4950000047683716,-2.5228157458400298
392.431034,,0.05213346615935023,392.462,0.49399998784065247,-2.5252724253109555
392.896552,,0.044021452433163466,392.929,0.48399999737739563,-2.5472893060547
393.36206899999996,,0.03629853374606999,393.395,0.5049999952316284,-2.5017132144133636
393.827586,,0.030495772624598388,393.86,0.5009999871253967,-2.5105423987052093
394.293103,,0.02634350770070086,394.326,0.49799999594688416,-2.5171280893578913
394.75862099999995,,0.021997507039428005,394.785,0.492000013589859,-2.5301835952145115
395.224138,,0.01599299305135499,395.251,0.4950000047683716,-2.5235659042682514
395.68965499999996,,0.008868113423432699,395.719,0.49900001287460327,-2.5147065742091197
396.155172,,0.002399902209345711,396.182,0.503000020980835,-2.505788525252909
396.62069,,0.0026901956821914937,396.644,0.47600001096725464,-2.5643565739905294
397.086207,,0.00756018053474287,397.114,0.5109999775886536,-2.4878046445069777
397.551724,,0.01351303664168216,397.575,0.49399998784065247,-2.5245075042933203
398.017241,,0.020097340942539215,398.044,0.492000013589859,-2.528506228279217
398.48275900000004,,0.025554024074213245,398.51,0.5260000228881836,-2.454060282301712
398.94827599999996,,0.028967389854909105,398.974,0.4880000054836273,-2.536474996614815
399.413793,,0.03149676321263914,399.439,0.49000000953674316,-2.5317541130524375
399.87931,,0.0353279440090784,399.904,0.47200000286102295,-2.570629126085574
400.344828,,0.04151937150275004,400.37,0.5009999871253967,-2.5071413895161303
400.810345,,0.048975939400848,400.834,0.4860000014305115,-2.5395571131380383
401.27586199999996,,0.055335305915814884,401.3,0.4950000047683716,-2.519736410546671
401.741379,,0.05842637955307491,401.76,0.49000000953674316,-2.530474672988025
402.206897,,0.05696557389936983,402.225,0.48100000619888306,-2.549990500195064
402.672414,,0.05070959293200716,402.689,0.5049999952316284,-2.4976767454177566
403.137931,,0.04051117582112763,403.159,0.49000000953674316,-2.530396449427674
403.60344799999996,,0.027999028170196626,403.619,0.49000000953674316,-2.5305014884374364
404.068966,,0.015168286686400292,404.089,0.49300000071525574,-2.524132557160864
404.534483,,0.004697921588330905,404.552,0.5040000081062317,-2.5003907754829737
405.0,,0.00011401743692143766,405.015,0.4880000054836273,-2.5355217240213057
405.465517,,0.00372312196633763,405.481,0.5049999952316284,-2.498797947578545
405.931034,,0.013167550215105924,405.944,0.5009999871253967,-2.5078563785887096
406.39655200000004,,0.021080708345967095,406.41,0.4909999966621399,-2.530006470378917
406.862069,,0.019979339804648277,406.874,0.48899999260902405,-2.534736281629557
407.327586,,0.007911081253274168,407.34,0.48399999737739563,-2.5459995702598333
407.793103,,0.011115218011143825,407.804,0.49000000953674316,-2.533283733008298
408.258621,,0.03147504919997957,408.27,0.4970000088214874,-2.5183638346615225
408.72413800000004,,0.049225033302159375,408.742,0.4880000054836273,-2.538266260648716
409.18965499999996,,0.06143384665089273,409.2,0.4950000047683716,-2.5232650015081566
409.655172,,0.06475504740875175,409.671,0.49000000953674316,-2.534354348184162
410.12069,,0.05687492890281797,410.133,0.49000000953674316,-2.5344911246764084
410.586207,,0.03950791247391569,410.597,0.4970000088214874,-2.519313626689374
411.05172400000004,,0.01884371542451085,411.059,0.453000009059906,-2.6151817043452303
411.51724099999996,,0.0022650315886349227,411.525,0.48399999737739563,-2.5475861927484513
411.982759,,0.005585325752145533,411.995,0.5099999904632568,-2.4908198487422615
412.448276,,0.004221929312709373,412.461,0.503000020980835,-2.505887034764177
412.913793,,0.0034999220868624573,412.919,0.5109999775886536,-2.4882181023382244
413.37931,,0.012640547468934034,413.384,0.4959999918937683,-2.5206090154861958
413.844828,,0.017994332563590502,413.856,0.503000020980835,-2.505029983099472
414.31034500000004,,0.01709176285498417,414.314,0.49000000953674316,-2.532994989232164
414.775862,,0.01215876879625352,414.779,0.48399999737739563,-2.5456921607980814
415.241379,,0.008021914231978646,415.245,0.503000020980835,-2.5039176796060447
415.706897,,0.007372022143302953,415.715,0.5090000033378601,-2.4904716904587794
416.172414,,0.00858622721400155,416.178,0.49000000953674316,-2.5315094762164367
416.63793100000004,,0.008390155957450412,416.641,0.492000013589859,-2.5268251271543414
417.103448,,0.005666891162702162,417.104,0.48899999260902405,-2.5330743358268983
417.568966,,0.0018744987129311536,417.574,0.47999998927116394,-2.552445063180099
418.034483,,0.001477536421625844,418.037,0.503000020980835,-2.502156153846307
418.5,,0.0043775863268982204,418.502,0.49000000953674316,-2.530361258258208
418.96551700000003,,0.007395326269489573,418.969,0.5049999952316284,-2.497630323872556
419.43103399999995,,0.010598785589860726,419.434,0.4860000014305115,-2.5390413212840346
419.896552,,0.014028630538205671,419.9,0.47200000286102295,-2.5696272676057164
420.362069,,0.0183391893521781,420.359,0.5009999871253967,-2.506597274949688
420.827586,,0.024028876672000425,420.826,0.48399999737739563,-2.5438458343877515
421.293103,,0.030363904773699216,421.292,0.4950000047683716,-2.5201462221497617
421.758621,,0.03595257621215728,421.757,0.503000020980835,-2.503027942555848
422.22413800000004,,0.040559594897858986,422.222,0.492000013589859,-2.5273393557708705
422.689655,,0.04571766390600532,422.685,0.4830000102519989,-2.547318277190168
423.15517200000005,,0.052932186066090126,423.155,0.49000000953674316,-2.5324523098911107
423.62069,,0.061288450142552596,423.619,0.47999998927116394,-2.554624842044129
424.086207,,0.06725822530783201,424.081,0.5090000033378601,-2.4918188443221516
424.55172400000004,,0.06709214338670762,424.545,0.5080000162124634,-2.4943483874521144
425.017241,,0.05923772579932382,425.014,0.49000000953674316,-2.533879736642151
425.482759,,0.04446253634417805,425.48,0.4819999933242798,-2.55158013843651
425.948276,,0.024487919897579587,425.944,0.4860000014305115,-2.5430841317556716
426.413793,,0.0015443181273864248,426.41,0.503000020980835,-2.506205764205299
426.87931000000003,,0.021018754209301348,426.875,0.4970000088214874,-2.519370769199626
427.344828,,0.03925710312377872,427.341,0.4860000014305115,-2.5433604361811835
427.810345,,0.05073322782719947,427.8,0.4959999918937683,-2.521529351872574
428.275862,,0.05578935028821,428.266,0.49000000953674316,-2.534488718000537
428.741379,,0.05661679983406822,428.738,0.4050000011920929,-2.719498623134841
429.20689699999997,,0.055707389079617343,429.197,0.5220000147819519,-2.4643650199159275
429.672414,,0.05522034602876512,429.659,0.49000000953674316,-2.53379880205583
430.137931,,0.05661661397365804,430.129,0.5049999952316284,-2.500792160707589
430.603448,,0.059778140971572184,430.593,0.48500001430511475,-2.54400481745976
431.068966,,0.0626435348418394,431.055,0.4950000047683716,-2.5218362479045293
431.534483,,0.0626165537671503,431.521,0.48899999260902405,-2.534516359762407
432.0,,0.05878236721534444,431.984,0.47999998927116394,-2.553735224462976
432.46551700000003,,0.052478274029465866,432.45,0.4880000054836273,-2.535932407305903
432.931034,,0.045508079755072754,432.914,0.49000000953674316,-2.5312285559885925
433.396552,,0.038190537095656174,433.381,0.4950000047683716,-2.5200264933064442
433.862069,,0.029570666410158233,433.846,0.4880000054836273,-2.535015671387842
434.327586,,0.019292342037876876,434.311,0.49799999594688416,-2.513023656812497
434.79310300000003,,0.008587583567993537,434.778,0.4959999918937683,-2.517237691123783
435.258621,,0.0007980308958425034,435.244,0.48899999260902405,-2.532411975059347
435.724138,,0.008108256015767317,435.707,0.492000013589859,-2.5258696199437956
436.189655,,0.013595397750827156,436.17,0.49399998784065247,-2.521576347013533
436.655172,,0.01766366521463155,436.638,0.5120000243186951,-2.4824926584861955
437.12068999999997,,0.020841604597351595,437.101,0.48899999260902405,-2.5327976746080294
437.586207,,0.024173707516835535,437.571,0.5120000243186951,-2.482942825385702
438.051724,,0.0283438369738675,438.033,0.492000013589859,-2.5268203439637666
438.517241,,0.03213167929307156,438.499,0.5189999938011169,-2.468342223131276
438.982759,,0.032770324497315616,438.962,0.492000013589859,-2.5275411858849495
439.448276,,0.02855472238623026,439.428,0.5199999809265137,-2.46693307065571
439.913793,,0.020742103879335783,439.893,0.4959999918937683,-2.5196208614323696
440.37931000000003,,0.012505334203824565,440.359,0.5009999871253967,-2.5091219736694454
440.844828,,0.006385815233288118,440.823,0.503000020980835,-2.505141026449963
441.310345,,0.0031152851564046694,441.289,0.47200000286102295,-2.573026353157549
441.775862,,0.0024166798956774074,441.749,0.5120000243186951,-2.4861877069445195
442.241379,,0.003968106651644784,442.215,0.49000000953674316,-2.5343753692231115
442.70689699999997,,0.007120841977976106,442.685,0.5080000162124634,-2.4953585108209744
443.172414,,0.010318276751175718,443.148,0.515999972820282,-2.4780629057628163
443.637931,,0.011964911556322266,443.611,0.492000013589859,-2.530413944155957
444.103448,,0.012134201940782038,444.074,0.4950000047683716,-2.523870063702214
444.568966,,0.012502908092105218,444.545,0.4950000047683716,-2.5237909223453414
445.03448299999997,,0.014106363312099624,445.007,0.49000000953674316,-2.5345360367497354
445.5,,0.015950188145598277,445.473,0.48899999260902405,-2.53650213713535
445.965517,,0.016451787568603507,445.938,0.5080000162124634,-2.494836788133546
446.431034,,0.015528399816994297,446.403,0.5379999876022339,-2.429154925495461
446.896552,,0.014430577800709145,446.87,0.503000020980835,-2.505042622222656
447.36206899999996,,0.013947695486390374,447.335,0.4880000054836273,-2.5373271732935634
447.827586,,0.013687012671067563,447.801,0.5339999794960022,-2.436696450095558
448.29310300000003,,0.013152669108994252,448.259,0.49799999594688416,-2.5147092406187204
448.758621,,0.012927799891214573,448.727,0.4860000014305115,-2.54044263315086
449.224138,,0.014486925119499918,449.189,0.5009999871253967,-2.5073744249944325
449.689655,,0.018838106555639226,449.66,0.48899999260902405,-2.533163712449011
450.155172,,0.025258983736736778,450.122,0.4959999918937683,-2.517603930838486
450.62068999999997,,0.031441941040763755,450.585,0.4959999918937683,-2.5173497292421327
451.086207,,0.035343863703288896,451.055,0.4880000054836273,-2.534587874683997
451.551724,,0.03718518986127231,451.521,0.4880000054836273,-2.5344665096710415
452.017241,,0.039319196742279613,451.983,0.5019999742507935,-2.503917666721759
452.482759,,0.04384411700956066,452.449,0.5080000162124634,-2.490872473312669
452.94827599999996,,0.050633055589800066,452.915,0.43799999356269836,-2.6434795871788412
453.413793,,0.057777576968503004,453.38,0.49000000953674316,-2.530364797521699
453.87931,,0.06311825505985945,453.845,0.48500001430511475,-2.541500558033588
454.344828,,0.06480015182532152,454.304,0.5090000033378601,-2.489514318959267
454.810345,,0.06128411153297814,454.771,0.5049999952316284,-2.4985789642748246
455.27586199999996,,0.051980929841720834,455.236,0.503000020980835,-2.5033238079040627
455.741379,,0.03756709220283261,455.704,0.4880000054836273,-2.536417128745364
456.206897,,0.018728958358680495,456.166,0.492000013589859,-2.528129656190714
456.672414,,0.005210709676244335,456.63,0.4880000054836273,-2.5372718804334955
457.137931,,0.03527867727492485,457.1,0.5199999809265137,-2.467969330136855
457.603448,,0.0699316536790657,457.563,0.492000013589859,-2.5293585895394304
458.06896600000005,,0.10373082335430413,458.026,0.49399998784065247,-2.525349744872218
458.53448299999997,,0.12971160006997925,458.491,0.5019999742507935,-2.5082195741935465
459.0,,0.14330353576692292,458.955,0.4860000014305115,-2.543318028313714
459.465517,,0.14411696613622205,459.422,0.49000000953674316,-2.5347774377336267
459.931034,,0.13476154319282452,459.889,0.4819999933242798,-2.552309319489967
460.39655200000004,,0.11876299791399372,460.354,0.48500001430511475,-2.5458014040093557
460.86206899999996,,0.09935151845256811,460.818,0.4830000102519989,-2.5501112155529246
461.327586,,0.07925544886331586,461.284,0.4830000102519989,-2.549989423105544
461.793103,,0.06080647598372314,461.749,0.4880000054836273,-2.5389035990850237
462.258621,,0.045578033202192156,462.215,0.4819999933242798,-2.5517178176971047
462.724138,,0.03360964684082411,462.678,0.492000013589859,-2.529616193463784
463.18965499999996,,0.023499384428319496,463.141,0.5019999742507935,-2.5074664537238682
463.655172,,0.013971100092394377,463.604,0.5059999823570251,-2.4983507493028814
464.12069,,0.005247946788152393,464.074,0.492000013589859,-2.5284252067328676
464.58620699999994,,0.0015375000287501414,464.54,0.4860000014305115,-2.5410588663876155
465.051724,,0.005964951529033512,465.003,0.4950000047683716,-2.5210150043464665
465.517241,,0.008738064565618,465.469,0.48899999260902405,-2.5336666583342806
465.98275900000004,,0.010656964458820284,465.929,0.503000020980835,-2.5027739385459227
466.448276,,0.011889851215852808,466.395,0.47200000286102295,-2.569961720185233
466.913793,,0.012418222910622466,466.86,0.49000000953674316,-2.530448455903566
467.37931,,0.012695417315859683,467.326,0.5180000066757202,-2.4692103783697807
467.844828,,0.01349908991790316,467.793,0.49799999594688416,-2.512615699742593
468.31034500000004,,0.01523712106965618,468.258,0.492000013589859,-2.5255939242619982
468.77586199999996,,0.017623027811741923,468.719,0.503000020980835,-2.501612813782781
469.241379,,0.020157398821085422,469.189,0.49900001287460327,-2.5103897648884383
469.706897,,0.02293912074222814,469.652,0.531000018119812,-2.4408113613515696
470.172414,,0.026797326113405594,470.114,0.5080000162124634,-2.4911301047035366
470.63793100000004,,0.032305775530202606,470.585,0.4950000047683716,-2.5197281781531116
471.10344799999996,,0.03870420024511961,471.048,0.5090000033378601,-2.4895609859786347
471.568966,,0.04435965817202868,471.514,0.5049999952316284,-2.4986575643720594
472.034483,,0.04884768664296206,471.977,0.46799999475479126,-2.579686657791389
472.5,,0.05445533293096721,472.442,0.503000020980835,-2.503878098192831
472.965517,,0.06470463329925087,472.907,0.5019999742507935,-2.5065119870625763
473.43103399999995,,0.0801919477689153,473.373,0.49300000071525574,-2.5265713193834407
473.89655200000004,,0.09547308529063263,473.838,0.49000000953674316,-2.533541590842422
474.362069,,0.10106042556687463,474.304,0.4959999918937683,-2.5208734650414186
474.827586,,0.08988463233671072,474.771,0.5009999871253967,-2.510340372745312
475.293103,,0.06223595233614506,475.229,0.49900001287460327,-2.5150024715897867
475.758621,,0.024621685802539473,475.697,0.5170000195503235,-2.4760262027391127
476.22413800000004,,0.01485643462349668,476.159,0.5009999871253967,-2.511050539730552
476.689655,,0.049026664844249876,476.63,0.5009999871253967,-2.5111375955967046
477.155172,,0.0714932733645839,477.092,0.48899999260902405,-2.537287029543343
477.62069,,0.07763524232027633,477.556,0.4819999933242798,-2.552461810953174
478.086207,,0.06759592567241635,478.026,0.4880000054836273,-2.5392349915692334
478.55172400000004,,0.047299262141492146,478.484,0.5,-2.5128612040182654
479.01724099999996,,0.025027858124540205,478.949,0.5080000162124634,-2.495132820510789
479.482759,,0.006600289613518126,479.414,0.5049999952316284,-2.5013089050672614
479.948276,,0.006449122658065086,479.882,0.5019999742507935,-2.5074350610250122
480.413793,,0.015221195022250817,480.347,0.49000000953674316,-2.53313183286091
480.87931000000003,,0.02107972951343203,480.812,0.49000000953674316,-2.5326619462374333
481.344828,,0.02463404215023022,481.278,0.503000020980835,-2.50386106500755
481.810345,,0.026032269984634687,481.745,0.49000000953674316,-2.531711110386453
482.275862,,0.025452115154195078,482.211,0.503000020980835,-2.502936885246771
482.74137900000005,,0.02303662387941277,482.671,0.515999972820282,-2.4741970676453384
483.206897,,0.018690320772182505,483.141,0.4880000054836273,-2.5348288981485094
483.672414,,0.012509927154596603,483.601,0.4880000054836273,-2.534518391173927
484.13793100000004,,0.005424440101867784,484.07,0.49000000953674316,-2.5299208025683035
484.603448,,0.0010824967454386386,484.529,0.5009999871253967,-2.5057932045153826
485.068966,,0.006024189355526835,485.0,0.49000000953674316,-2.52967877782987
485.534483,,0.009389217275536935,485.465,0.5070000290870667,-2.4926479603444034
486.0,,0.01155373468800443,485.929,0.4950000047683716,-2.5188839094766156
486.46551700000003,,0.012657701562471962,486.395,0.4880000054836273,-2.534310277856475
486.931034,,0.012831852459199839,486.86,0.49000000953674316,-2.530207971723848
487.396552,,0.01264026306686722,487.319,0.5019999742507935,-2.5043907813488926
487.862069,,0.012662842044612287,487.785,0.4880000054836273,-2.535279874359515
488.327586,,0.01265188720870912,488.251,0.4880000054836273,-2.5357180813310567
488.79310300000003,,0.011698815751062772,488.719,0.5049999952316284,-2.4991560157795636
489.258621,,0.00942000495301994,489.181,0.5049999952316284,-2.4996525190479644
489.724138,,0.006573652947874752,489.649,0.49399998784065247,-2.524120335373397
490.189655,,0.0044470368404152475,490.111,0.503000020980835,-2.505005933741194
490.655172,,0.0040468199172680325,490.574,0.46299999952316284,-2.5926216008707956
491.12069,,0.005787923079951055,491.044,0.5019999742507935,-2.5080860346907614
491.586207,,0.009324865882027326,491.51,0.49000000953674316,-2.534609395027431
492.05172400000004,,0.013628380586653693,491.973,0.4880000054836273,-2.5392819655103622
492.517241,,0.017831534969604074,492.439,0.5,-2.513378979810738
492.982759,,0.022005930470164668,492.904,0.49900001287460327,-2.5157156200982187
493.448276,,0.02639749239160566,493.37,0.4950000047683716,-2.524499986591003
493.913793,,0.029975354338931053,493.83,0.503000020980835,-2.5070495989954567
494.37931000000003,,0.030897599178424082,494.296,0.4959999918937683,-2.5221881995659765
494.844828,,0.028866631034219273,494.76,0.49000000953674316,-2.53506041035514
495.310345,,0.025959672711666347,495.226,0.4909999966621399,-2.532600567280656
495.775862,,0.024247933238221532,495.689,0.5090000033378601,-2.4930300923489277
496.241379,,0.023252533524631046,496.159,0.515999972820282,-2.4773610817040286
496.70689699999997,,0.020770862619293774,496.619,0.4880000054836273,-2.5378935009735337
497.172414,,0.015900703494657945,497.089,0.503000020980835,-2.5047078798473237
497.637931,,0.010019341628472199,497.552,0.49799999594688416,-2.5150747950930405
498.103448,,0.0044846409372385175,498.015,0.5139999985694885,-2.4796853805267762
498.568966,,0.0014118453589030795,498.48,0.5009999871253967,-2.5074884654670857
499.03448299999997,,0.00914586639922171,498.944,0.5009999871253967,-2.5069971969053073
499.5,,0.018281815082216116,499.41,0.4869999885559082,-2.5370511388749453
499.96551700000003,,0.026476989337002335,499.874,0.4959999918937683,-2.517054837904525
500.431034,,0.03217291052701212,500.34,0.48899999260902405,-2.531988128218685
500.89655200000004,,0.03599296048927228,500.804,0.4880000054836273,-2.5339310861703184
501.362069,,0.03891087379864333,501.27,0.515999972820282,-2.47278232377741
501.827586,,0.0400204895857482,501.742,0.49300000071525574,-2.522837985204988
502.293103,,0.03716580332731309,502.2,0.4169999957084656,-2.688459483569885
502.758621,,0.029509425956238924,502.67,0.49000000953674316,-2.529560556242715
503.224138,,0.018568360433844616,503.134,0.503000020980835,-2.50147332048699
503.68965499999996,,0.006659094157346121,503.596,0.4830000102519989,-2.545365788637209
504.15517200000005,,0.004820130522396305,504.059,0.492000013589859,-2.5261522796122957
504.62068999999997,,0.015175158478556449,504.525,0.48500001430511475,-2.541860144624992
505.08620699999994,,0.023264748708109753,504.995,0.48500001430511475,-2.5423664466372373
505.55172400000004,,0.02746614660370921,505.46,0.5040000081062317,-2.501511492523974
506.017241,,0.026757175873630454,505.919,0.49000000953674316,-2.532567777117038
506.48275899999993,,0.021383853206665818,506.384,0.49799999594688416,-2.5156923242367855
506.948276,,0.012565910611440117,506.852,0.515999972820282,-2.4770111951787324
507.413793,,0.001959194427711145,507.317,0.4880000054836273,-2.53851151863436
507.87931,,0.00864684279907376,507.782,0.5070000290870667,-2.497563724517791
508.344828,,0.017535394081039858,508.247,0.4860000014305115,-2.5436964798693693
508.810345,,0.02326001527347364,508.715,0.4869999885559082,-2.541821690057973
509.27586199999996,,0.024757078310548932,509.177,0.5120000243186951,-2.487572127045062
509.74137900000005,,0.021470527425609686,509.645,0.5170000195503235,-2.476800446324614
510.20689699999997,,0.013727876047957485,510.107,0.4880000054836273,-2.540003471879908
510.67241399999995,,0.0032579145396998605,510.575,0.4959999918937683,-2.52249695885505
511.13793100000004,,0.006854443173454523,511.038,0.47600001096725464,-2.5658957919522347
511.603448,,0.013332506574789665,511.503,0.5009999871253967,-2.5111640208460675
512.0689659999999,,0.014434300825927962,511.969,0.5049999952316284,-2.5020996969236724
512.534483,,0.010936402584190747,512.434,0.49000000953674316,-2.534355889068802
513.0,,0.005610671809414986,512.9,0.5249999761581421,-2.457618741358481
513.465517,,0.0015156937848706813,513.366,0.49000000953674316,-2.5333404892177103
513.931034,,0.00012504151232807146,513.826,0.48899999260902405,-2.5349590065799212
514.396552,,0.0004830776706409628,514.292,0.5080000162124634,-2.492992956851112
514.862069,,0.00013749808825301796,514.757,0.503000020980835,-2.5033202809931385
515.327586,,0.0026181540076309143,515.223,0.49399998784065247,-2.5223857633272297
515.793103,,0.0070346746031859425,515.685,0.49000000953674316,-2.5305989207889428
516.258621,,0.010567752937424435,516.155,0.5090000033378601,-2.4887600336332305
516.724138,,0.011537687211268643,516.619,0.4909999966621399,-2.5276017902392356
517.189655,,0.010908709119392209,517.081,0.492000013589859,-2.5251320123226857
517.655172,,0.010904305973551045,517.549,0.48500001430511475,-2.5401841208913227
518.1206900000001,,0.011978846684981032,518.011,0.492000013589859,-2.5248344039667905
518.5862070000001,,0.011921089061517332,518.477,0.42899999022483826,-2.662093876538934
519.051724,,0.008170264123918698,518.944,0.49000000953674316,-2.5293056329674735
519.517241,,0.00035074637723766085,519.41,0.5049999952316284,-2.4968355792776973
519.982759,,0.009790035485416577,519.875,0.4880000054836273,-2.5341746913356724
520.448276,,0.020190415300391937,520.34,0.4909999966621399,-2.5280242776446626
520.9137929999999,,0.029483429380958315,520.801,0.4950000047683716,-2.519766774584593
521.37931,,0.03661178502032291,521.267,0.5080000162124634,-2.4919583545987436
521.844828,,0.04052115941492921,521.73,0.5139999985694885,-2.4794407935239717
522.310345,,0.040812877255252386,522.2,0.5019999742507935,-2.5061616739656727
522.7758620000001,,0.0383176812250187,522.66,0.5049999952316284,-2.5002077654386525
523.241379,,0.034265155887192374,523.129,0.49399998784065247,-2.5247422388647895
523.7068969999999,,0.028703092498364363,523.593,0.5149999856948853,-2.4795293668572813
524.172414,,0.02034868529666332,524.055,0.5130000114440918,-2.484377453114228
524.637931,,0.008486016914385924,524.521,0.5040000081062317,-2.5044127652431496
525.103448,,0.00547491531777967,524.991,0.5180000066757202,-2.474262532305472
525.568966,,0.019075324401993214,525.449,0.527999997138977,-2.452738817018751
526.034483,,0.031132536657583337,525.918,0.5170000195503235,-2.4768699570940025
526.5,,0.04211662079548247,526.384,0.5210000276565552,-2.4682196920489035
526.9655170000001,,0.052502351849817386,526.848,0.5419999957084656,-2.4224285012232936
527.4310340000001,,0.06186712539627823,527.314,0.5170000195503235,-2.476752017835673
527.8965519999999,,0.06943100446714132,527.779,0.5090000033378601,-2.493940823970384
528.362069,,0.07411475569043868,528.244,0.5239999890327454,-2.460931067602803
528.827586,,0.07385913062916351,528.708,0.5170000195503235,-2.4757720334354274
529.293103,,0.06608977140198061,529.17,0.5210000276565552,-2.466581271475658
529.7586210000001,,0.049549159989727115,529.638,0.5170000195503235,-2.4747681593872977
530.224138,,0.02555755036478925,530.099,0.5090000033378601,-2.4916349089889716
530.689655,,0.002344314145383534,530.571,0.5090000033378601,-2.491055719783778
531.155172,,0.029702941709165202,531.033,0.5419999957084656,-2.4185821078556122
531.62069,,0.05252011321450058,531.499,0.5659999847412109,-2.36573376582405
532.086207,,0.06804601751841616,531.962,0.5260000228881836,-2.4523531220638337
532.5517239999999,,0.07461990202363336,532.428,0.5339999794960022,-2.434449222954639
533.017241,,0.0712090584063642,532.892,0.5649999976158142,-2.3665028451787684
533.482759,,0.05791668220176177,533.358,0.5770000219345093,-2.3400287786022695
533.9482760000001,,0.03725129886402975,533.823,0.5299999713897705,-2.442183577437084
534.413793,,0.014216562699266659,534.288,0.5540000200271606,-2.389751399838532
534.87931,,0.005669022074351727,534.756,0.5649999976158142,-2.3657437650171866
535.344828,,0.01874246321149617,535.214,0.5540000200271606,-2.389769279522099
535.810345,,0.023992557435817,535.685,0.5260000228881836,-2.4509340427446404
536.275862,,0.022397700597187667,536.148,0.5460000038146973,-2.4076220156712287
536.7413789999999,,0.01603480462009571,536.616,0.5540000200271606,-2.390543819466695
537.206897,,0.007351523633664192,537.079,0.5989999771118164,-2.2929336437875247
537.672414,,0.0016257283668434026,537.549,0.5910000205039978,-2.3108547922347125
538.137931,,0.009893336610641528,538.011,0.5910000205039978,-2.311394335060536
538.6034480000001,,0.017367314671804066,538.469,0.5789999961853027,-2.338109079141541
539.0689659999999,,0.024054897764387073,538.934,0.6039999723434448,-2.2842276707878146
539.5344829999999,,0.029112075473509844,539.4,0.5920000076293945,-2.3109516485158106
540.0,,0.030801236800649365,539.867,0.6370000243186951,-2.2134695556446093
540.465517,,0.027882385059618518,540.333,0.5860000252723694,-2.3250972226035596
540.931034,,0.021258019570721935,540.796,0.6330000162124634,-2.2231611733620116
541.396552,,0.013774756230392154,541.262,0.5929999947547913,-2.3106975286560805
541.862069,,0.008001107016247634,541.73,0.5830000042915344,-2.3327932824825863
542.327586,,0.004298770889242444,542.193,0.6039999723434448,-2.2872614075122155
542.7931030000001,,0.000986645275209299,542.656,0.6000000238418579,-2.2960989254001216
543.258621,,0.004016342253516212,543.126,0.6140000224113464,-2.2656201191736884
543.7241379999999,,0.011522260324369685,543.589,0.6079999804496765,-2.278612787159996
544.189655,,0.020323247072408013,544.052,0.6169999837875366,-2.2588264181777715
544.655172,,0.02820774398816491,544.517,0.6190000176429749,-2.2541967127074862
545.12069,,0.03460552928209585,544.98,0.6320000290870667,-2.225516140788106
545.5862070000001,,0.042161582035168885,545.445,0.597000002861023,-2.3013363397426425
546.051724,,0.05430217169286305,545.912,0.6150000095367432,-2.2616277654492873
546.517241,,0.07032325007981122,546.377,0.6330000162124634,-2.221873824913587
546.982759,,0.08352801124923635,546.842,0.6850000023841858,-2.1080151655914827
547.448276,,0.08520662769136671,547.307,0.6190000176429749,-2.251222952140274
547.9137929999999,,0.07051183795463258,547.774,0.625,-2.2375734744478213
548.3793099999999,,0.04052319224212486,548.239,0.6299999952316284,-2.2261269211436385
548.844828,,0.00028649685512598474,548.7,0.6050000190734863,-2.2800814691942293
549.310345,,0.042861478830595094,549.17,0.6200000047683716,-2.2469482819874464
549.775862,,0.0792311590329309,549.63,0.6169999837875366,-2.2531029763091706
550.241379,,0.09847500123994483,550.099,0.6069999933242798,-2.2745921430135136
550.706897,,0.09493796218602012,550.56,0.6209999918937683,-2.2438870711625767
551.172414,,0.07221999203943358,551.029,0.6230000257492065,-2.239424887339091
551.637931,,0.04126856733413285,551.495,0.6209999918937683,-2.243779454764915
552.103448,,0.01310142813819867,551.959,0.6200000047683716,-2.2460572931733145
552.568966,,0.006803005232362478,552.425,0.6190000176429749,-2.2484340361784447
553.034483,,0.01815664758292975,552.89,0.6069999933242798,-2.2748689032432408
553.5,,0.02234512439003396,553.355,0.640999972820282,-2.2011694574050806
553.965517,,0.020561976504780057,553.815,0.6010000109672546,-2.2887614245676415
554.4310340000001,,0.014392642779705133,554.281,0.6190000176429749,-2.25004985454142
554.896552,,0.006325942625911706,554.745,0.6209999918937683,-2.246239061573102
555.3620689999999,,0.0012984926126314647,555.211,0.6190000176429749,-2.2511676211677862
555.827586,,0.007754996916390149,555.674,0.6060000061988831,-2.280068719477951
556.293103,,0.013889412630397674,556.144,0.6359999775886536,-2.215277170632599
556.758621,,0.020321492704061986,556.607,0.6449999809265137,-2.1962076783596056
557.224138,,0.02591020889373031,557.07,0.6140000224113464,-2.2642375157013026
557.689655,,0.02852512498329032,557.536,0.5950000286102295,-2.3060631957710624
558.155172,,0.027318165066900928,558.002,0.6169999837875366,-2.258491464321018
558.6206900000001,,0.02362531123161185,558.467,0.6140000224113464,-2.265301381138854
559.0862070000001,,0.01949749859218124,558.933,0.6060000061988831,-2.282911644495903
559.5517239999999,,0.015939091072490377,559.399,0.6029999852180481,-2.2895304822194555
560.017241,,0.012773451664763113,559.864,0.5960000157356262,-2.304763460447693
560.482759,,0.009533250871592352,560.33,0.6150000095367432,-2.263251800127335
560.948276,,0.005971473808578914,560.789,0.6129999756813049,-2.267395072744511
561.413793,,0.002182131165291796,561.254,0.6190000176429749,-2.2540184474707248
561.87931,,0.0011578913520696144,561.722,0.5360000133514404,-2.4344619573436375
562.344828,,0.003003517831560437,562.185,0.5979999899864197,-2.2989353197696025
562.8103450000001,,0.003100961274325905,562.656,0.6069999933242798,-2.278823885940627
563.275862,,0.00269880716051683,563.118,0.6019999980926514,-2.2891744220315684
563.7413789999999,,0.003324919847185855,563.579,0.5879999995231628,-2.319110610527351
564.206897,,0.004944128595002628,564.048,0.5830000042915344,-2.3294347800779853
564.672414,,0.006046378605835055,564.514,0.578000009059906,-2.3397727511933577
565.137931,,0.0055266034799054545,564.976,0.5830000042915344,-2.32835521015367
565.603448,,0.003835245633041537,565.442,0.5669999718666077,-2.3627365117015624
566.068966,,0.0022510129696578,565.907,0.5730000138282776,-2.3492494047135994
566.534483,,0.0015734405738347043,566.373,0.5889999866485596,-2.314050315110133
567.0,,0.001679063987281767,566.837,0.5709999799728394,-2.35300947151248
567.465517,,0.0019863320344865854,567.303,0.5460000038146973,-2.407311792395531
567.931034,,0.0020758432748409464,567.768,0.5419999957084656,-2.4159613307536807
568.396552,,0.0019694033879457595,568.233,0.5669999718666077,-2.361530662702473
568.862069,,0.0020906069252821413,568.696,0.5730000138282776,-2.3485923142381484
569.327586,,0.0029701029499446916,569.159,0.5630000233650208,-2.370605528885628
569.793103,,0.004611391437303673,569.626,0.5669999718666077,-2.3622037120952273
570.2586210000001,,0.005949085840381039,570.089,0.5699999928474426,-2.3560563069028153
570.724138,,0.0054208531290003675,570.559,0.5540000200271606,-2.3913669692765893
571.189655,,0.0026865936936604066,571.022,0.5519999861717224,-2.39622679252443
571.655172,,0.0004204187456241999,571.488,0.5419999957084656,-2.4185506757009474
572.12069,,0.0014035876057892091,571.953,0.5730000138282776,-2.3515679451737403
572.586207,,0.00035494899698610544,572.418,0.546999990940094,-2.408768560228837
573.051724,,0.003279992975408348,572.885,0.5289999842643738,-2.448523680426568
573.517241,,0.0059949981573610926,573.35,0.550000011920929,-2.403279198575499
573.982759,,0.009090132676582414,573.815,0.5540000200271606,-2.3950233682709974
574.4482760000001,,0.013794075230358534,574.281,0.546999990940094,-2.410669747230013
574.913793,,0.019484948387143663,574.745,0.5640000104904175,-2.3739531060894836
575.37931,,0.023663198835331335,575.21,0.5360000133514404,-2.435190584218114
575.844828,,0.024724902907824527,575.671,0.5419999957084656,-2.422262365338145
576.310345,,0.024084600536419882,576.14,0.5329999923706055,-2.4419183504770507
576.775862,,0.024858187699747552,576.601,0.550000011920929,-2.4048324553463325
577.241379,,0.028558160575196962,577.07,0.5419999957084656,-2.4221172398732764
577.706897,,0.03361522697160808,577.536,0.5260000228881836,-2.4567403686788944
578.172414,,0.037252021414571915,577.994,0.4950000047683716,-2.523961291246755
578.6379310000001,,0.03855745470374732,578.46,0.5479999780654907,-2.4081039877089125
579.1034480000001,,0.039689904340778855,578.926,0.5440000295639038,-2.4163685018414003
579.5689659999999,,0.04404480444896962,579.392,0.5379999876022339,-2.4289426424203513
580.034483,,0.0527749621811706,579.855,0.5540000200271606,-2.393553805491138
580.5,,0.06267485032433476,580.321,0.5289999842643738,-2.4474735296147223
580.965517,,0.06775510435754935,580.785,0.5299999713897705,-2.4447495764684057
581.431034,,0.06348249611017183,581.251,0.5329999923706055,-2.437686663466457
581.896552,,0.04970621265905005,581.719,0.5239999890327454,-2.456802234605048
582.362069,,0.029636919011821333,582.182,0.531000018119812,-2.441109232034143
582.827586,,0.006672929042303915,582.645,0.550000011920929,-2.399335481227992
583.2931030000001,,0.017165687231215466,583.115,0.5260000228881836,-2.4513177602676173
583.758621,,0.04015215903834209,583.578,0.527999997138977,-2.4467391869119166
584.2241379999999,,0.05949309413357579,584.041,0.5339999794960022,-2.4335369072552524
584.689655,,0.07183341292501921,584.506,0.5299999713897705,-2.4422157071938386
585.155172,,0.07487383915936283,584.97,0.5410000085830688,-2.4183100786714804
585.6206900000001,,0.06824624813058604,585.436,0.5509999990463257,-2.3966761236849785
586.0862070000001,,0.053721911107508895,585.9,0.5210000276565552,-2.4622761581346895
586.551724,,0.035915138307718385,586.366,0.5490000247955322,-2.4015956332817447
587.017241,,0.022393888488578113,586.83,0.5429999828338623,-2.4150599604282057
587.482759,,0.020543767450705387,587.296,0.5410000085830688,-2.419867866551311
587.948276,,0.03214956953617119,587.76,0.5339999794960022,-2.4356139136881336
588.4137929999999,,0.05137717846892551,588.226,0.5230000019073486,-2.4601045092121328
588.87931,,0.06938183314624943,588.689,0.5379999876022339,-2.427964499900681
589.344828,,0.08070024715702881,589.159,0.5379999876022339,-2.428501474126506
589.810345,,0.08445926646669155,589.622,0.5519999861717224,-2.398517626541447
590.2758620000001,,0.08093927984568869,590.085,0.5199999809265137,-2.4687161517728824
590.741379,,0.06984638150140945,590.552,0.5400000214576721,-2.4255751480541865
591.2068969999999,,0.05229930168496326,591.015,0.515999972820282,-2.478232333822322
591.672414,,0.0319871630727834,591.48,0.5400000214576721,-2.426240358583545
592.137931,,0.01266299109308709,591.944,0.5170000195503235,-2.476562165821142
592.603448,,0.004716789018531175,592.41,0.531000018119812,-2.446184748649442
593.068966,,0.021339639724714577,592.874,0.527999997138977,-2.452751381535002
593.534483,,0.03762953814708859,593.34,0.5410000085830688,-2.424365180783945
594.0,,0.05220659341961707,593.806,0.5379999876022339,-2.4307446265773183
594.4655170000001,,0.06379683986063926,594.272,0.5099999904632568,-2.491502621504908
594.9310340000001,,0.07276317050069576,594.738,0.5400000214576721,-2.425819284635564
595.3965519999999,,0.07946614184410915,595.204,0.5170000195503235,-2.4755345432590583
595.862069,,0.08185321267193205,595.666,0.5419999957084656,-2.4206166598193155
596.327586,,0.07680491796245945,596.129,0.515999972820282,-2.4767656410724377
596.793103,,0.06450775937475582,596.597,0.5299999713897705,-2.445739758464438
597.2586210000001,,0.04967123765218521,597.059,0.527999997138977,-2.449559387426372
597.724138,,0.036702186878809474,597.525,0.5339999794960022,-2.4359532194420463
598.189655,,0.02439806674972566,597.995,0.5180000066757202,-2.470296973623658
598.655172,,0.007417585451522751,598.461,0.492000013589859,-2.526463692329335
599.12069,,0.016575083369919794,598.926,0.5170000195503235,-2.471571113990536
599.586207,,0.04294979272635643,599.384,0.5170000195503235,-2.471209093486127
600.0517239999999,,0.0643891293909429,599.849,0.5180000066757202,-2.4687432319191727
600.517241,,0.07750526333750411,600.314,0.5299999713897705,-2.4423954481430448
600.982759,,0.08302139292174036,600.781,0.515999972820282,-2.4727815378911036
601.448276,,0.08041272311969412,601.247,0.527999997138977,-2.4466152398423553
601.913793,,0.0660601108600287,601.715,0.5239999890327454,-2.455400406986355
602.37931,,0.03846801677345156,602.178,0.44999998807907104,-2.616783067889716
602.844828,,0.0032574799509376053,602.641,0.515999972820282,-2.4732434497384763
603.310345,,0.029425637474557665,603.111,0.5090000033378601,-2.4888249018851973
603.775862,,0.05213067619221656,603.571,0.5410000085830688,-2.4195069720559994
604.2413789999999,,0.06350954297317409,604.041,0.5210000276565552,-2.463533587344037
604.706897,,0.0656176717163449,604.499,0.5360000133514404,-2.4313482319078368
605.172414,,0.06043550167911099,604.97,0.5299999713897705,-2.444939985367689
605.637931,,0.04966641119490311,605.435,0.515999972820282,-2.4759705519981265
606.1034480000001,,0.03573445562964251,605.9,0.531000018119812,-2.443814115606428
606.5689659999999,,0.020938850656981287,606.366,0.5370000004768372,-2.431243250717515
607.0344829999999,,0.00606500987647032,606.831,0.5249999761581421,-2.4578502164162295
607.5,,0.008808484508605472,607.289,0.515999972820282,-2.4778698538221122
607.965517,,0.022307220854707457,607.756,0.5170000195503235,-2.47603973116789
608.431034,,0.03184616785005736,608.222,0.5299999713897705,-2.4479923306533204
608.896552,,0.03608578035489006,608.685,0.515999972820282,-2.4786862511028205
609.362069,,0.03655462233609474,609.155,0.515999972820282,-2.4787916159679177
609.827586,,0.036278186067648543,609.616,0.4620000123977661,-2.5964547665178457
610.293103,,0.0369167217083196,610.085,0.5070000290870667,-2.498343364210174
610.758621,,0.03747169640319514,610.545,0.5099999904632568,-2.4916485808607627
611.2241379999999,,0.035755375449520385,611.015,0.531000018119812,-2.445654714647964
611.689655,,0.0308360609704801,611.481,0.5049999952316284,-2.501981233693964
612.155172,,0.02374790088038744,611.945,0.5090000033378601,-2.4928821454668997
612.62069,,0.016045746212557634,612.404,0.5049999952316284,-2.5011582883397634
613.0862070000001,,0.00844658471809826,612.87,0.5049999952316284,-2.5006791507434234
613.551724,,0.001115744170391613,613.336,0.5130000114440918,-2.4827444996205306
614.017241,,0.0055728448275887245,613.801,0.5139999985694885,-2.480049078920259
614.4827590000001,,0.011212986149105642,614.267,0.4909999966621399,-2.5296456334651807
614.948276,,0.015706199153062043,614.729,0.5009999871253967,-2.507367249308202
615.4137929999999,,0.01876105431560627,615.199,0.4909999966621399,-2.5286972645696593
615.8793099999999,,0.01956819203857228,615.66,0.515999972820282,-2.4738234389147906
616.344828,,0.017696900273189726,616.13,0.4970000088214874,-2.514870600104883
616.810345,,0.01400499610811256,616.593,0.5049999952316284,-2.4971652797116226
617.275862,,0.010071228049905961,617.055,0.48399999737739563,-2.5427202887630296
617.741379,,0.006915867838034682,617.521,0.5149999856948853,-2.475070893623144
618.206897,,0.004737629462809313,617.991,0.5019999742507935,-2.5033700183559935
618.672414,,0.0037877213825566127,618.456,0.47600001096725464,-2.5600803328301422
619.137931,,0.004869440099207953,618.915,0.47999998927116394,-2.55151912432373
619.603448,,0.008413985254550482,619.38,0.4959999918937683,-2.516897098589434
620.068966,,0.013175805911456917,619.848,0.49399998784065247,-2.5215658062281845
620.534483,,0.01667928903265301,620.314,0.47600001096725464,-2.561158371776837
621.0,,0.017577142787747434,620.778,0.49000000953674316,-2.531088611708707
621.465517,,0.017208207031665923,621.244,0.4860000014305115,-2.5402756195861302
621.9310340000001,,0.01811735998538831,621.707,0.4959999918937683,-2.518987866805415
622.396552,,0.020988234134091743,622.17,0.4819999933242798,-2.5499987503966843
622.862069,,0.023640930999908612,622.638,0.4959999918937683,-2.5200031042209576
623.327586,,0.023570285714196303,623.101,0.4950000047683716,-2.5226672212324233
623.793103,,0.021232044028255903,623.571,0.503000020980835,-2.505688472377691
624.258621,,0.019884480603151195,624.033,0.4779999852180481,-2.560556847539215
624.724138,,0.02157648783866723,624.499,0.4779999852180481,-2.5608992087510094
625.189655,,0.023837095256287126,624.963,0.46000000834465027,-2.6003880532674417
625.655172,,0.021370186747856023,625.429,0.48100000619888306,-2.5548325924881903
626.1206900000001,,0.011383219466440641,625.892,0.5260000228881836,-2.4569053239223733
626.5862070000001,,0.003086580595781506,626.358,0.49000000953674316,-2.5353598292550608
627.0517239999999,,0.015308179740265042,626.823,0.47200000286102295,-2.574510040941504
627.5172409999999,,0.02019775789673077,627.288,0.5960000157356262,-2.3042046094587705
627.982759,,0.01787198731362924,627.756,0.49000000953674316,-2.5349036714313105
628.448276,,0.012763710589459482,628.214,0.4880000054836273,-2.538947543708203
628.913793,,0.009637627774379296,628.682,0.47200000286102295,-2.57342905922654
629.37931,,0.009967809718362966,629.144,0.46700000762939453,-2.5838944607658236
629.844828,,0.011541274668192976,629.615,0.49300000071525574,-2.5267840408784377
630.3103450000001,,0.01127615591061221,630.078,0.4909999966621399,-2.5306515368325773
630.7758620000001,,0.008231350566203322,630.548,0.47200000286102295,-2.5715467174682063
631.2413789999999,,0.003966318828933911,631.011,0.4819999933242798,-2.5492675415353516
631.706897,,0.0006113412737838469,631.469,0.48100000619888306,-2.5509748314093676
632.172414,,0.0009126024094717037,631.934,0.4729999899864197,-2.56796831431824
632.637931,,0.00105700524191737,632.4,0.46399998664855957,-2.5871895481824274
633.103448,,0.0006164832884680123,632.867,0.4909999966621399,-2.5280399792070933
633.568966,,0.00019589322090587087,633.332,0.46299999952316284,-2.588785991620018
634.034483,,0.0016206979202391197,633.796,0.4690000116825104,-2.5755355993621185
634.5,,0.0034690895925375827,634.262,0.47200000286102295,-2.568904123807568
634.9655170000001,,0.0047910806857571365,634.73,0.4779999852180481,-2.55582173394152
635.431034,,0.004757417850863782,635.193,0.4729999899864197,-2.566789088032184
635.8965519999999,,0.0037066785220150364,635.656,0.4740000069141388,-2.564766479899069
636.362069,,0.0029227351839244816,636.126,0.46399998664855957,-2.5867860735598667
636.827586,,0.003334533387782907,636.586,0.4860000014305115,-2.5391581986724914
637.293103,,0.004643946993438047,637.056,0.4909999966621399,-2.528626449531269
637.7586210000001,,0.0056664953994734635,637.514,0.4699999988079071,-2.5747870752060615
638.224138,,0.0053530342111594124,637.984,0.48399999737739563,-2.5447302386536284
638.689655,,0.0037188652006123445,638.45,0.4880000054836273,-2.536481249581685
639.155172,,0.0021117627443709647,638.915,0.49000000953674316,-2.5325962696775646
639.62069,,0.0023123953619332794,639.38,0.45500001311302185,-2.6093141985542707
640.086207,,0.004815644842511319,639.845,0.44699999690055847,-2.6271889346410306
640.551724,,0.008006968129016138,640.304,0.5019999742507935,-2.5077756367482777
641.017241,,0.009498914786005471,640.771,0.4729999899864197,-2.571321968364973
641.482759,,0.008351178665244659,641.236,0.47600001096725464,-2.5650938739713935
641.9482760000001,,0.00571973377927943,641.704,0.4729999899864197,-2.5718716149109024
642.413793,,0.003521424532354429,642.166,0.5009999871253967,-2.5110376263543444
642.87931,,0.0027928687355605977,642.63,0.4779999852180481,-2.5612359559332867
643.344828,,0.0029912100264662305,643.1,0.48399999737739563,-2.5481726321709552
643.810345,,0.002494063063916489,643.563,0.4880000054836273,-2.5393862028514707
644.275862,,0.00025468268939996306,644.025,0.49000000953674316,-2.5348790686536553
644.7413789999999,,0.0026250348893955984,644.491,0.4729999899864197,-2.5716935437753996
645.206897,,0.0035896155595712014,644.956,0.46700000762939453,-2.5844779816153536
645.672414,,0.0014608557106035424,645.422,0.4860000014305115,-2.542740775726743
646.1379310000001,,0.001975832288108536,645.889,0.4729999899864197,-2.57067530741662
646.6034480000001,,0.0038476671227187283,646.354,0.5019999742507935,-2.507073180413045
647.0689659999999,,0.0032562773291138756,646.819,0.4749999940395355,-2.565454597964736
647.534483,,0.0018412889081793433,647.284,0.4429999887943268,-2.634723204449597
648.0,,0.0015594189052451604,647.749,0.47200000286102295,-2.571102850255811
648.465517,,0.0025847965985223843,648.215,0.47600001096725464,-2.561970100763777
648.931034,,0.0034687961895802887,648.678,0.48399999737739563,-2.544155789288957
649.396552,,0.002909025907945276,649.141,0.47200000286102295,-2.569958636665092
649.862069,,0.0011222181087521706,649.604,0.47600001096725464,-2.5609574922801035
650.327586,,0.00043933181977025385,650.074,0.492000013589859,-2.525874991004723
650.7931030000001,,0.0006615811213730011,650.54,0.4779999852180481,-2.55622034971801
651.258621,,7.944821964583939e-06,651.003,0.45100000500679016,-2.6149612984990407
651.7241379999999,,0.0001196201902929252,651.469,0.4860000014305115,-2.5387018808853914
652.189655,,0.0009089738825444858,651.934,0.47600001096725464,-2.5605565082175485
652.655172,,0.0018491046391896381,652.4,0.4429999887943268,-2.63259270665335
653.12069,,0.0011064484530189343,652.859,0.4790000021457672,-2.554370536507684
653.5862070000001,,0.0009865329550603102,653.325,0.4880000054836273,-2.5350326514669517
654.051724,,0.0021369313926163603,653.789,0.492000013589859,-2.5266389886890597
654.517241,,0.0007813188494905331,654.255,0.492000013589859,-2.5270004989983073
654.982759,,0.001901809571467092,654.723,0.4880000054836273,-2.536105963890996
655.448276,,0.003444081638856893,655.185,0.49300000071525574,-2.525620996064978
655.9137929999999,,0.00300497055544757,655.656,0.48100000619888306,-2.5521781978163105
656.37931,,0.0017823066425109338,656.118,0.492000013589859,-2.528619363555519
656.844828,,0.0008603876047261631,656.586,0.47699999809265137,-2.561686383333044
657.310345,,7.502795063491138e-05,657.048,0.5019999742507935,-2.5075768796923343
657.7758620000001,,0.0007720470728104361,657.513,0.4779999852180481,-2.560179977484889
658.241379,,0.00097968019847264,657.976,0.4880000054836273,-2.538659067795092
658.7068969999999,,1.694521809604538e-05,658.441,0.4690000116825104,-2.5802620914233745
659.172414,,0.001396441549950173,658.907,0.47200000286102295,-2.573872723756278
659.637931,,0.002236670471074973,659.374,0.4779999852180481,-2.560881618174578
660.103448,,0.002744664825328246,659.84,0.4519999921321869,-2.617539800670024
660.568966,,0.004098816535500033,660.299,0.4869999885559082,-2.5412333369199636
661.034483,,0.0066055939873305445,660.77,0.4779999852180481,-2.560721842183455
661.5,,0.009142716916440639,661.229,0.47200000286102295,-2.57361259155451
661.965517,,0.010683313593816616,661.696,0.4740000069141388,-2.5690186033741043
662.4310340000001,,0.01147855789827959,662.159,0.45399999618530273,-2.612307188870153
662.8965519999999,,0.011958504251358465,662.627,0.4950000047683716,-2.5226590813431624
663.362069,,0.011064015531817416,663.089,0.49000000953674316,-2.533198550583788
663.827586,,0.00694848023084434,663.556,0.4779999852180481,-2.5589686220380137
664.293103,,0.00033095498930149,664.026,0.4819999933242798,-2.5498718733333527
664.7586210000001,,0.0077053984106231115,664.484,0.4880000054836273,-2.5364207673205987
665.224138,,0.011538330640200465,664.951,0.4699999988079071,-2.575271457279806
665.689655,,0.011129347413670153,665.417,0.4779999852180481,-2.5575025570723993
666.155172,,0.00931032837294577,665.882,0.49399998784065247,-2.5223393015838016
666.62069,,0.00952600225372544,666.348,0.49000000953674316,-2.5307919516827844
667.086207,,0.012609170080682462,666.815,0.4869999885559082,-2.537116364868212
667.5517239999999,,0.016337955437295815,667.28,0.48899999260902405,-2.5326038819807666
668.017241,,0.01771071632301777,667.745,0.4790000021457672,-2.55429599861508
668.482759,,0.015505469973724742,668.21,0.47999998927116394,-2.552086595472187
668.948276,,0.010934285536493721,668.671,0.4950000047683716,-2.519440026515367
669.413793,,0.006163479926424691,669.134,0.4909999966621399,-2.5282499803579213
669.87931,,0.0023484936871208816,669.604,0.48899999260902405,-2.53276151671699
670.3448279999999,,0.0008968010987147332,670.067,0.4790000021457672,-2.554756592562492
670.810345,,0.0042751499561663785,670.533,0.47999998927116394,-2.5528349264444916
671.275862,,0.007393694558273089,670.996,0.49900001287460327,-2.5117378318927566
671.7413789999999,,0.00892920419817028,671.462,0.48500001430511475,-2.542567130288157
672.206897,,0.008331624100703117,671.927,0.4189999997615814,-2.68670874501062
672.672414,,0.006963812331630245,672.392,0.492000013589859,-2.5280314998678155
673.137931,,0.0068094811684479796,672.86,0.5019999742507935,-2.506610191616714
673.6034480000001,,0.007980231512489425,673.325,0.49000000953674316,-2.5331075765310107
674.068966,,0.008449937476160612,673.786,0.49000000953674316,-2.533439670497013
674.5344829999999,,0.006787874932836402,674.252,0.4729999899864197,-2.5707781128369693
675.0,,0.004275975365369204,674.715,0.49000000953674316,-2.534003250984461
675.465517,,0.003459552462373068,675.185,0.47200000286102295,-2.573434509254199
675.931034,,0.0051610118513803205,675.645,0.4740000069141388,-2.5692402925194324
676.396552,,0.007815747522713516,676.115,0.48500001430511475,-2.54538125465664
676.862069,,0.009525234698083801,676.578,0.5009999871253967,-2.5105684561220993
677.327586,,0.01003842364705634,677.04,0.4819999933242798,-2.55194620599679
677.793103,,0.01069128039144107,677.506,0.5009999871253967,-2.510474058958424
678.2586210000001,,0.012882144426701082,677.97,0.4869999885559082,-2.540838589208114
