Trial: ,6
Threshold: ,0.0
Maximum EMG: ,0.22759101313259159
Success: ,True

EMG Time,Raw EMG,Filtered EMG,Force Time,Raw Force (V),Filtered Force (N)
0.0,samples,3.4186211995554958e-09,0.471,0.5460000038146973,-2.4104581713731696
0.46551699999999996,time,5.512756739331291e-09,0.93,0.546999990940094,-2.4083444043987274
0.9310339999999999,value,7.677684438004037e-09,1.4,0.5419999957084656,-2.4193006522398575
1.396552,,9.908745431186424e-09,1.865,0.5659999847412109,-2.3670719189458143
1.862069,,1.220084393798267e-08,2.33,0.5540000200271606,-2.3932677621196365
2.327586,,1.4548446553935163e-08,2.796,0.5379999876022339,-2.4281702571581554
2.793103,,1.6945583073207265e-08,3.256,0.5320000052452087,-2.441277565599691
3.258621,,1.938584890311591e-08,3.722,0.5709999799728394,-2.3563357966463476
3.724138,,2.186240913117787e-08,4.189,0.5379999876022339,-2.4282451641646836
4.189654999999999,,2.43680043015421e-08,4.655,0.5389999747276306,-2.4260689786699348
4.655172,,2.6894957954044046e-08,5.115,0.550000011920929,-2.4020949389636286
5.12069,,2.943518597513476e-08,5.585,0.5419999957084656,-2.419504067196024
5.586207,,3.198020780560683e-08,6.048,0.5519999861717224,-2.3976867266056883
6.051723999999999,,3.452115954536129e-08,6.51,0.4779999852180481,-2.5588672481361048
6.517241,,3.70488089904363e-08,6.982,0.6190000176429749,-2.2516306042711265
6.982759,,3.955357263215253e-08,7.444,0.5450000166893005,-2.41279503313105
7.448276,,4.2025534642526165e-08,7.909,0.5289999842643738,-2.4475914608444165
7.913793000000001,,4.445446786406405e-08,8.373,0.5419999957084656,-2.419204272096269
8.379309999999998,,4.6829856815693804e-08,8.838,0.5540000200271606,-2.3929946626254384
8.844828000000001,,4.914092271990371e-08,9.303,0.5339999794960022,-2.4365027060648696
9.310345,,5.1376650549182e-08,9.769,0.5789999961853027,-2.3384009248996396
9.775862,,5.352581808256553e-08,10.234,0.5370000004768372,-2.429845653861471
10.241379,,5.557702695554668e-08,10.7,0.5379999876022339,-2.4276151383002023
10.706897,,5.751873567875931e-08,11.167,0.5419999957084656,-2.4188576630491045
11.172414,,5.9339294592785705e-08,11.625,0.5440000295639038,-2.414467687772425
11.637931,,6.102698271811539e-08,12.093,0.5519999861717224,-2.3970170404994606
12.103447999999998,,6.25700464507627e-08,12.555,0.5139999985694885,-2.479796309047201
12.568966000000001,,6.395674004533436e-08,13.026,0.5419999957084656,-2.418798024148427
13.034483,,6.517536781845344e-08,13.488,0.5540000200271606,-2.392670658710525
13.5,,6.621432799641678e-08,13.959,0.5540000200271606,-2.3926982256355362
13.965517,,6.706215812181522e-08,14.422,0.5830000042915344,-2.3295544467905884
14.431034,,6.770758192460667e-08,14.88,0.5379999876022339,-2.4276387740303544
14.896552,,6.813955755383114e-08,15.345,0.5429999828338623,-2.4167983543279283
15.362069,,6.834732705682346e-08,15.811,0.5370000004768372,-2.42992992782561
15.827586000000002,,6.83204669834472e-08,16.278,0.5540000200271606,-2.392957434335002
16.293103,,6.804893998357354e-08,16.744,0.5239999890327454,-2.4583844564467823
16.758621,,6.752314725679819e-08,17.211,0.5669999718666077,-2.3647708191357637
17.224138,,6.673398170426162e-08,17.67,0.550000011920929,-2.401873879335602
17.689655,,6.567288162345193e-08,18.137,0.43799999356269836,-2.645946431982005
18.155172,,6.433188477806199e-08,18.607,0.5289999842643738,-2.4477515715343836
18.62069,,6.270368266638357e-08,19.067,0.5419999957084656,-2.41948599326611
19.086207,,6.078167480339004e-08,19.537,0.5460000038146973,-2.410818612583142
19.551724,,5.856002282362735e-08,20.0,0.5379999876022339,-2.428283393073114
20.017241000000002,,5.6033704204341685e-08,20.463,0.5630000233650208,-2.3738392996070306
20.482758999999998,,5.319856540096343e-08,20.928,0.546999990940094,-2.408705186565998
20.948276,,5.005137418018375e-08,21.391,0.550000011920929,-2.402161455780405
21.413793000000002,,4.658987092944482e-08,21.856,0.5360000133514404,-2.432640161553258
21.87931,,4.281281871576094e-08,22.323,0.5820000171661377,-2.33238545292756
22.344828,,3.872005186143822e-08,22.788,0.5389999747276306,-2.4260166131409253
22.810344999999998,,3.431252279950833e-08,23.256,0.5379999876022339,-2.4281327499157848
23.275862,,2.9592346967579704e-08,23.715,0.550000011920929,-2.401917440028354
23.741379,,2.4562845495380224e-08,24.182,0.5440000295639038,-2.4149108899190628
24.206897,,1.9228585438559755e-08,24.648,0.5260000228881836,-2.454044197173907
24.672414,,1.359541730938077e-08,25.111,0.5339999794960022,-2.4365321246938274
25.137931,,7.670509653789721e-09,25.581,0.5460000038146973,-2.410307337491586
25.603448,,1.4623804240703605e-09,26.045,0.550000011920929,-2.401515874563567
26.068966,,5.019075103130043e-09,26.507,0.5320000052452087,-2.4406614115032723
26.534483,,1.1762560112103655e-08,26.975,0.5239999890327454,-2.4580303373999297
27.0,,1.8755355982957743e-08,27.437,0.5600000023841858,-2.379550561111986
27.465517,,2.5983306218864254e-08,27.903,0.531000018119812,-2.4426959665479306
27.931034,,3.343080480402809e-08,28.37,0.5519999861717224,-2.396923314953313
28.396552,,4.108078922522044e-08,28.835,0.5379999876022339,-2.4274184676259476
28.862069,,4.8914738383157796e-08,29.301,0.5379999876022339,-2.4274281581150867
29.327586,,5.691267561235164e-08,29.767,0.5339999794960022,-2.436168245140616
29.793103000000002,,6.505317701928796e-08,30.227,0.5339999794960022,-2.436208934616192
30.258620999999998,,7.331338533890356e-08,30.692,0.5299999713897705,-2.4449783651929566
30.724138,,8.166902949829392e-08,31.16,0.5400000214576721,-2.423258932069457
31.189655000000002,,9.009445006440554e-08,31.625,0.515999972820282,-2.4756241127949496
31.655172000000004,,9.856263073912738e-08,32.085,0.597000002861023,-2.2992379197408708
32.12069,,1.0704523605069971e-07,32.556,0.5460000038146973,-2.4104360337949653
32.586207,,1.1551265537470508e-07,33.019,0.546999990940094,-2.4083444796403133
33.051724,,1.2393405340110172e-07,33.481,0.5329999923706055,-2.4389310305714575
33.517241000000006,,1.3227742714581447e-07,33.947,0.5540000200271606,-2.3932605083311955
33.982759,,1.405096695863268e-07,34.413,0.5379999876022339,-2.428192941129656
34.448276,,1.4859663998053924e-07,34.879,0.5540000200271606,-2.393398707790182
34.913793,,1.565032409068993e-07,35.345,0.47999998927116394,-2.5546722267295436
35.37931,,1.6419350204149253e-07,35.811,0.5339999794960022,-2.437067400792647
35.844828,,1.716306706644508e-07,36.27,0.546999990940094,-2.408773527908673
36.310345,,1.7877730886371883e-07,36.736,0.531000018119812,-2.4436444860726834
36.775862,,1.855953973789693e-07,37.2,0.5329999923706055,-2.4392835909939685
37.241378999999995,,1.920464460023193e-07,37.666,0.5329999923706055,-2.4392637641929493
37.706897000000005,,1.9809161042553219e-07,38.133,0.5260000228881836,-2.4544787370788663
38.172414,,2.0369181539564728e-07,38.596,0.5460000038146973,-2.410855406855819
38.637931,,2.0880788401253413e-07,39.067,0.5360000133514404,-2.4325775803108396
39.103448,,2.1340067297278472e-07,39.529,0.5339999794960022,-2.436858658690618
39.568965999999996,,2.1743121353471757e-07,39.99,0.531000018119812,-2.4433088495152266
40.034483,,2.2086085794914914e-07,40.46,0.5339999794960022,-2.4366806605576405
40.5,,2.236514310700789e-07,40.925,0.5419999957084656,-2.4191551278080516
40.965517,,2.257653868286273e-07,41.388,0.5199999809265137,-2.4669882665228284
41.431034,,2.2716596922255693e-07,41.854,0.5450000166893005,-2.4124272315226247
41.896552,,2.2781737744259682e-07,42.318,0.5540000200271606,-2.392729491755827
42.362069000000005,,2.2768493472568753e-07,42.784,0.550000011920929,-2.401361302888756
42.827586000000004,,2.2673526049427884e-07,43.249,0.5389999747276306,-2.4252538173387714
43.293103,,2.2493644531006032e-07,43.715,0.5669999718666077,-2.364191557934902
43.758621,,2.2225822814010567e-07,44.182,0.5389999747276306,-2.425148164587229
44.224138,,2.1867217540348895e-07,44.64,0.5490000247955322,-2.403332664822638
44.689655,,2.1415186123711078e-07,45.107,0.5299999713897705,-2.444716704795809
45.155172,,2.0867304839088841e-07,45.57,0.5419999957084656,-2.4185819699257878
45.620689999999996,,2.0221386913474662e-07,46.037,0.550000011920929,-2.4011812311713054
46.086206999999995,,1.9475500553313237e-07,46.5,0.527999997138977,-2.449158776501366
46.551724,,1.8627986841720584e-07,46.971,0.550000011920929,-2.4012935404952436
47.017241,,1.767747743605735e-07,47.433,0.5199999809265137,-2.466734401722008
47.482759,,1.6622911994156662e-07,47.899,0.5419999957084656,-2.418899603771457
47.948276,,1.5463555255377405e-07,48.363,0.5370000004768372,-2.429899530933954
48.413793,,1.419901370069562e-07,48.828,0.5260000228881836,-2.4539791820980166
48.879310000000004,,1.2829251714274026e-07,49.294,0.5540000200271606,-2.3930958015932706
49.344828,,1.135460716737687e-07,49.759,0.5370000004768372,-2.4302515582591826
49.810345,,9.775806344138572e-08,50.226,0.5659999847412109,-2.367185014930453
50.275862,,8.093978127564226e-08,50.692,0.5410000085830688,-2.42175693214536
50.741379,,6.310667363251577e-08,51.156,0.5299999713897705,-2.445816429605695
51.206897,,4.4278473176914474e-08,51.615,0.5419999957084656,-2.4197528223489355
51.672414,,2.4479311476399765e-08,52.085,0.531000018119812,-2.4437812386119444
52.137931,,3.7378229697422576e-09,52.547,0.5339999794960022,-2.43728956888816
52.603448,,1.791276262344564e-08,53.015,0.5490000247955322,-2.4046328292855588
53.068966,,4.0434540280567875e-08,53.478,0.5630000233650208,-2.374131734193142
53.534483,,6.378486286159334e-08,53.943,0.5419999957084656,-2.419859516320748
54.0,,8.791628831084233e-08,54.407,0.5040000081062317,-2.5026019853139427
54.465517,,1.1277654166852105e-07,54.872,0.5460000038146973,-2.411032442405481
54.931034,,1.3830849266699925e-07,55.337,0.5640000104904175,-2.3717309130271294
55.396552,,1.6445014966474932e-07,55.803,0.5540000200271606,-2.3934131597872534
55.862069,,1.9113467064515187e-07,56.27,0.5460000038146973,-2.4107230380337583
56.327586,,2.1829039197795655e-07,56.736,0.5419999957084656,-2.419307384151603
56.793102999999995,,2.4584087560801235e-07,57.201,0.531000018119812,-2.4431358634592715
57.258621000000005,,2.7370497529890746e-07,57.667,0.5329999923706055,-2.438640441216702
57.724138,,3.0179692251834935e-07,58.13,0.5389999747276306,-2.4254332852907288
58.189655,,3.3002643250745365e-07,58.592,0.5419999957084656,-2.4187689404058634
58.655172,,3.5829883102758476e-07,59.056,0.527999997138977,-2.4491528761258605
59.120689999999996,,3.8651520222601196e-07,59.525,0.5109999775886536,-2.4860886981007493
59.586207,,4.1457255800543065e-07,59.985,0.5329999923706055,-2.438076926573225
60.051724,,4.42364029222385e-07,60.455,0.5270000100135803,-2.4510895322492496
60.517241,,4.69779078975862e-07,60.921,0.5360000133514404,-2.431446375794623
60.982758999999994,,4.967037381798779e-07,61.384,0.5339999794960022,-2.4357935445094316
61.448276,,5.230208635428243e-07,61.849,0.5360000133514404,-2.431451495729794
61.913793,,5.48610418001781e-07,62.315,0.5329999923706055,-2.438028107986765
62.379310000000004,,5.733497735820501e-07,62.781,0.5379999876022339,-2.4271997121112547
62.84482800000001,,5.971140365709561e-07,63.241,0.5669999718666077,-2.3641054749878934
63.310345000000005,,6.19776394810629e-07,63.707,0.5339999794960022,-2.436106078385549
63.775862000000004,,6.412084868272213e-07,64.174,0.5440000295639038,-2.414440717675671
64.241379,,6.612807924239761e-07,64.64,0.5379999876022339,-2.4276467306521776
64.706897,,6.798630442729701e-07,65.1,0.5339999794960022,-2.43650422213669
65.172414,,6.968246599454258e-07,65.57,0.5379999876022339,-2.427937158061716
65.637931,,7.120351937234466e-07,66.034,0.5199999809265137,-2.4673007852204973
66.103448,,7.253648074371449e-07,66.496,0.5379999876022339,-2.4282290180140618
66.56896599999999,,7.36684759470675e-07,66.967,0.5699999928474426,-2.358646668248151
67.03448300000001,,7.458679109789305e-07,67.429,0.5249999761581421,-2.4568058600304195
67.5,,7.527892482539429e-07,67.895,0.5630000233650208,-2.3741190301181407
67.965517,,7.573264200766383e-07,68.36,0.5419999957084656,-2.4199511570079637
68.431034,,7.593602887859096e-07,68.825,0.5410000085830688,-2.4221861252694055
68.896552,,7.58775493693308e-07,69.285,0.5419999957084656,-2.420038252033471
69.362069,,7.554610253684174e-07,69.751,0.5289999842643738,-2.4483649494981843
69.827586,,7.493108092175297e-07,70.217,0.5419999957084656,-2.420020095858618
70.293103,,7.402242966769927e-07,70.683,0.5339999794960022,-2.437400706245911
70.75862099999999,,7.281070622429655e-07,71.145,0.546999990940094,-2.4090045002678258
71.22413800000001,,7.128714044617156e-07,71.614,0.5320000052452087,-2.441587371451252
71.689655,,6.944369489094646e-07,72.078,0.5429999828338623,-2.417505275263157
72.15517200000001,,6.727312510985732e-07,72.54,0.5509999990463257,-2.3999420570465837
72.62069,,6.476903971580098e-07,73.008,0.550000011920929,-2.4019732402416603
73.086207,,6.192596000510451e-07,73.47,0.5400000214576721,-2.423603390035934
73.551724,,5.873937890124037e-07,73.935,0.5299999713897705,-2.445230182543704
74.017241,,5.520581898111737e-07,74.406,0.5540000200271606,-2.392784273696965
74.482759,,5.132288933750952e-07,74.872,0.5529999732971191,-2.3948106481048903
74.94827599999999,,4.708934102469012e-07,75.33,0.5529999732971191,-2.3946685238159158
75.41379300000001,,4.2505120828464336e-07,75.796,0.5320000052452087,-2.4402931888278623
75.87931,,3.7571423096588645e-07,76.263,0.5419999957084656,-2.418399775068075
76.344828,,3.2290739361076697e-07,76.729,0.5249999761581421,-2.4553537435206194
76.810345,,2.6666905480165263e-07,77.194,0.6000000238418579,-2.2918975196427116
77.275862,,2.0705146024797606e-07,77.659,0.5239999890327454,-2.457444165668474
77.741379,,1.441211563241979e-07,78.122,0.5410000085830688,-2.4204053466241513
78.206897,,7.795937049722848e-08,78.585,0.6370000243186951,-2.211281638327378
78.67241399999999,,8.66235585742903e-09,79.052,0.5329999923706055,-2.437913831377274
79.137931,,6.365830302506106e-08,79.522,0.492000013589859,-2.5273185974892876
79.603448,,1.388754256790659e-07,79.985,0.5929999947547913,-2.3073823463972016
80.068966,,2.1684601547811136e-07,80.448,0.5410000085830688,-2.4208014030111342
80.53448300000001,,2.9741108624565415e-07,80.913,0.5519999861717224,-2.3969838099744396
81.0,,3.803955383615627e-07,81.38,0.5410000085830688,-2.421111019587852
81.465517,,4.656080869492691e-07,81.846,0.5540000200271606,-2.3929604122327826
81.931034,,5.528412446487858e-07,82.311,0.5540000200271606,-2.393136520217227
82.396552,,6.418713613944187e-07,82.77,0.5419999957084656,-2.419455295853485
82.86206899999999,,7.324587235172997e-07,83.237,0.5289999842643738,-2.447946768439982
83.327586,,8.243477143816125e-07,83.702,0.550000011920929,-2.4023531331604904
83.79310299999999,,9.172670386394697e-07,84.167,0.5419999957084656,-2.419923985540596
84.258621,,1.01093001205269e-06,84.633,0.5440000295639038,-2.4156870077931685
84.72413800000001,,1.1050349186801755e-06,85.1,0.5299999713897705,-2.446283656851353
85.189655,,1.1992654370671633e-06,85.562,0.5690000057220459,-2.361383132183517
85.65517200000001,,1.293291136897361e-06,86.03,0.550000011920929,-2.4028124050187576
86.12069,,1.3867680473809266e-06,86.492,0.5329999923706055,-2.439851279814532
86.586207,,1.4793392984505506e-06,86.96,0.5400000214576721,-2.4245696610773644
87.051724,,1.5706358356247087e-06,87.422,0.5440000295639038,-2.4157917069924046
87.517241,,1.6602772091716847e-06,87.887,0.5040000081062317,-2.502844020217133
87.98275899999999,,1.7478724379705118e-06,88.352,0.5270000100135803,-2.452614446753867
88.448276,,1.8330209482158467e-06,88.817,0.5460000038146973,-2.4110753501085536
88.913793,,1.9153135868533887e-06,89.282,0.5419999957084656,-2.419624014301762
89.37931,,1.9943337093612086e-06,89.748,0.5419999957084656,-2.4194414249061746
89.844828,,2.069658341210753e-06,90.215,0.5540000200271606,-2.393103540723874
90.310345,,2.1408594120499096e-06,90.68,0.5669999718666077,-2.364580810709882
90.775862,,2.2075050613499653e-06,91.141,0.5649999976158142,-2.36873673804261
91.241379,,2.269161013949244e-06,91.611,0.49399998784065247,-2.5232260557912323
91.706897,,2.3253920236093985e-06,92.074,0.5400000214576721,-2.4228278487855497
92.17241399999999,,2.3757633823765613e-06,92.537,0.546999990940094,-2.4074168980748527
92.63793100000001,,2.4198424932096694e-06,93.0,0.5419999957084656,-2.4181736664970104
93.103448,,2.4572005030031694e-06,93.47,0.5070000290870667,-2.4943191368306246
93.568966,,2.4874139927920063e-06,93.935,0.5730000138282776,-2.3504543124803425
94.03448300000001,,2.5100667215842577e-06,94.398,0.5299999713897705,-2.444097203796058
94.5,,2.5247514199221144e-06,94.864,0.5360000133514404,-2.431022943859901
94.965517,,2.5310716289262735e-06,95.329,0.5419999957084656,-2.4179867074493075
95.431034,,2.528643580233375e-06,95.795,0.5730000138282776,-2.350520550188113
95.896552,,2.5170981118921045e-06,96.26,0.5419999957084656,-2.418164714893177
96.36206899999999,,2.4960826149423224e-06,96.725,0.5440000295639038,-2.413945127988777
96.827586,,2.465263005064381e-06,97.185,0.5490000247955322,-2.4032181284854333
97.293103,,2.4243257133540337e-06,97.651,0.5540000200271606,-2.392514591029232
97.758621,,2.3729796899534303e-06,98.119,0.5519999861717224,-2.3970794323738893
98.224138,,2.3109584139521106e-06,98.581,0.5460000038146973,-2.410370567037972
98.689655,,2.2380219026651255e-06,99.052,0.5360000133514404,-2.4323820807147696
99.155172,,2.1539587130999585e-06,99.515,0.5289999842643738,-2.4478573468925826
99.62069,,2.0585879281412935e-06,99.978,0.5460000038146973,-2.411037801668854
100.086207,,1.951761119714506e-06,100.44,0.5410000085830688,-2.4221342627869324
100.551724,,1.8333642809365697e-06,100.906,0.5299999713897705,-2.4462820319981944
101.017241,,1.7033197190284818e-06,101.37,0.5440000295639038,-2.4159370122104287
101.482759,,1.561587900547901e-06,101.835,0.5709999799728394,-2.3572374090589556
101.948276,,1.4081692403060825e-06,102.3,0.5329999923706055,-2.440112655539026
102.413793,,1.2431058251609404e-06,102.766,0.5540000200271606,-2.3944077008494746
102.87931,,1.066483063729786e-06,103.23,0.5289999842643738,-2.448879298819485
103.344828,,8.78431252942511e-07,103.695,0.5429999828338623,-2.4183415954443803
103.810345,,6.791270522602769e-07,104.167,0.5450000166893005,-2.4139061375866984
104.275862,,4.6879485631762316e-07,104.625,0.5419999957084656,-2.4203241025333075
104.741379,,2.477080567088057e-07,105.096,0.5460000038146973,-2.4114545760350294
105.206897,,1.619018363353706e-08,105.559,0.5339999794960022,-2.437410992231051
105.672414,,2.2538408185548277e-07,106.022,0.5360000133514404,-2.432839305063335
106.13793100000001,,4.765880341994715e-07,106.485,0.5299999713897705,-2.4456765305458847
106.603448,,7.369422173743196e-07,106.956,0.5630000233650208,-2.3735322295437276
107.068966,,1.0059138555911794e-06,107.418,0.5519999861717224,-2.3972411674010545
107.534483,,1.2829164494517291e-06,107.884,0.5289999842643738,-2.447094270642706
108.0,,1.567309546143067e-06,108.348,0.5370000004768372,-2.4294184311305815
108.46551699999999,,1.8583986920076474e-06,108.813,0.5680000185966492,-2.3616501003763273
108.931034,,2.1554355755336364e-06,109.278,0.5440000295639038,-2.4137303515155057
109.396552,,2.4576183684798286e-06,109.744,0.5440000295639038,-2.4135529145261176
109.862069,,2.764092272476242e-06,110.208,0.5460000038146973,-2.409054398691638
110.32758600000001,,3.0739502780261923e-06,110.673,0.5389999747276306,-2.424204806642205
110.793103,,3.386234142377716e-06,111.137,0.5360000133514404,-2.430685479048031
111.258621,,3.699935592231455e-06,111.607,0.5299999713897705,-2.4437499486615106
111.724138,,4.0139977567084685e-06,112.067,0.5540000200271606,-2.3915031040532058
112.189655,,4.327316835414972e-06,112.53,0.550000011920929,-2.4003055760179284
112.655172,,4.638744005811963e-06,113.0,0.5299999713897705,-2.4440115100607795
113.12069,,4.9470875734265075e-06,113.463,0.5379999876022339,-2.4267573242579785
113.586207,,5.251115367728673e-06,113.928,0.546999990940094,-2.4073617549436013
114.051724,,5.549557385744448e-06,114.391,0.5379999876022339,-2.427212734881021
114.51724100000001,,5.841108684681459e-06,114.857,0.5659999847412109,-2.366477085111876
114.982759,,6.124432524011859e-06,115.322,0.531000018119812,-2.4430115262127208
115.448276,,6.398163756586883e-06,115.788,0.5540000200271606,-2.393191547586409
115.913793,,6.660912467451567e-06,116.252,0.5659999847412109,-2.367334754215859
116.37931,,6.91126785808782e-06,116.718,0.550000011920929,-2.4024685830178183
116.84482799999999,,7.147802372841102e-06,117.182,0.5379999876022339,-2.4288685745151866
117.310345,,7.369076063282706e-06,117.648,0.5540000200271606,-2.3942393333800505
117.77586199999999,,7.573641185228105e-06,118.111,0.5400000214576721,-2.4249352965601916
118.241379,,7.760047022074609e-06,118.581,0.5529999732971191,-2.396767147053898
118.70689700000001,,7.926844927041249e-06,119.041,0.5429999828338623,-2.4186619152374704
119.172414,,8.072593575793262e-06,119.51,0.5429999828338623,-2.4187206383114934
119.63793100000001,,8.195864419815892e-06,119.971,0.5389999747276306,-2.4274423181188864
120.103448,,8.295247329770535e-06,120.441,0.5410000085830688,-2.423039661868698
120.568966,,8.36935641692417e-06,120.907,0.5630000233650208,-2.375012077858531
121.034483,,8.416836019594019e-06,121.37,0.5339999794960022,-2.438045804335674
121.5,,8.436366840397247e-06,121.835,0.5299999713897705,-2.4465679761409023
121.96551699999999,,8.426672218944353e-06,122.301,0.546999990940094,-2.4092989328512906
122.431034,,8.38652452346874e-06,122.766,0.5540000200271606,-2.393782747978302
122.896552,,8.314751643748125e-06,123.226,0.5379999876022339,-2.4283494356244537
123.362069,,8.210243566550386e-06,123.692,0.5540000200271606,-2.393181775542402
123.827586,,8.071959013731864e-06,124.16,0.546999990940094,-2.4081148123820344
124.293103,,7.898932122034535e-06,124.625,0.5540000200271606,-2.392547694007542
124.758621,,7.690279142575019e-06,125.089,0.5519999861717224,-2.3965992114538084
125.22413800000001,,7.445205136997695e-06,125.552,0.5989999771118164,-2.293916072881065
125.68965500000002,,7.163010646281603e-06,126.019,0.546999990940094,-2.4069466736611154
126.15517200000001,,6.843098307251366e-06,126.481,0.5419999957084656,-2.417617823411034
126.62069000000001,,6.48497939095124e-06,126.947,0.5370000004768372,-2.428334621025051
127.086207,,6.08828023620389e-06,127.413,0.5540000200271606,-2.3911727330544728
127.55172400000001,,5.652748550896929e-06,127.879,0.546999990940094,-2.4063542346965394
128.017241,,5.178259552825891e-06,128.344,0.5230000019073486,-2.4586315924458177
128.48275900000002,,4.664821921277519e-06,128.81,0.5669999718666077,-2.362821014818981
128.948276,,4.1125835299673625e-06,129.274,0.4390000104904175,-2.64179841898308
129.413793,,3.521836931455822e-06,129.74,0.5540000200271606,-2.3914236046942343
129.87931,,2.8930245627623665e-06,130.205,0.5419999957084656,-2.4177903565750736
130.344828,,2.2267436415835913e-06,130.67,0.5400000214576721,-2.422415378662846
130.81034499999998,,1.5237507223022824e-06,131.133,0.5419999957084656,-2.418363088748317
131.275862,,7.849658808565045e-07,131.595,0.5669999718666077,-2.364229340381747
131.741379,,1.1476497524728253e-08,132.064,0.5460000038146973,-2.4103301205582897
132.206897,,7.954593932202523e-07,132.527,0.546999990940094,-2.408507102538
132.67241399999997,,1.6344102164250068e-06,132.996,0.5450000166893005,-2.413215758847628
133.13793099999998,,2.5037684642439946e-06,133.459,0.5410000085830688,-2.422266802413167
133.60344800000001,,3.4017488272587747e-06,133.924,0.5389999747276306,-2.4269352892273606
134.06896600000002,,4.326386878806434e-06,134.387,0.5410000085830688,-2.4228539658825166
134.53448300000002,,5.275538340889166e-06,134.853,0.5460000038146973,-2.4121927147402356
135.0,,6.246878959398e-06,135.321,0.5379999876022339,-2.429802208942373
135.465517,,7.237905015409647e-06,135.78,0.5360000133514404,-2.4342821964310177
135.931034,,8.245934498203983e-06,136.252,0.5460000038146973,-2.412556669214465
136.396552,,9.268108964398763e-06,136.71,0.5419999957084656,-2.4212677197746806
136.862069,,1.0301396106206297e-05,137.175,0.5289999842643738,-2.449521850845368
137.327586,,1.1342593050282877e-05,137.64,0.5630000233650208,-2.3753160462558913
137.793103,,1.2388330406964998e-05,138.108,0.550000011920929,-2.403446279246158
138.258621,,1.3435077087866676e-05,138.57,0.5509999990463257,-2.4010201106619276
138.724138,,1.4479145907849797e-05,139.04,0.5529999732971191,-2.3963674016143677
139.189655,,1.5516699985275206e-05,139.503,0.6169999837875366,-2.256597952314333
139.655172,,1.6543759952197685e-05,139.967,0.6209999918937683,-2.2475147391775385
140.12069,,1.7556211983784746e-05,140.436,0.5529999732971191,-2.3952729461245146
140.586207,,1.8549816653720002e-05,140.895,0.5410000085830688,-2.4210202771261007
141.05172399999998,,1.952021861969983e-05,141.36,0.5299999713897705,-2.4445972640739
141.51724099999998,,2.0462957140350855e-05,141.826,0.5440000295639038,-2.413728772456078
141.982759,,2.1373477421989644e-05,142.293,0.5329999923706055,-2.4373593990562092
142.44827600000002,,2.2247142790620015e-05,142.758,0.5419999957084656,-2.4174604628315524
142.913793,,2.3079247681423098e-05,143.222,0.5339999794960022,-2.4346516533002043
143.37931,,2.3865031434747057e-05,143.688,0.5289999842643738,-2.4453679972136455
143.844828,,2.4599692884254034e-05,144.153,0.550000011920929,-2.399506463302031
144.310345,,2.5278405719438874e-05,144.618,0.5419999957084656,-2.4168962152080278
144.77586200000002,,2.589633460120603e-05,145.082,0.527999997138977,-2.4474299948549545
145.241379,,2.6448652005586313e-05,145.551,0.5260000228881836,-2.4518921665073696
145.706897,,2.693055576700381e-05,146.015,0.5690000057220459,-2.3583840236838998
146.172414,,2.7337287288774966e-05,146.478,0.5400000214576721,-2.4218011673199777
146.637931,,2.7664150384747882e-05,146.943,0.5669999718666077,-2.3632693250889063
147.103448,,2.7906530712181582e-05,147.407,0.5540000200271606,-2.391929324075577
147.568966,,2.8059915752134273e-05,147.873,0.5249999761581421,-2.455484123160244
148.034483,,2.8119915289789435e-05,148.338,0.5709999799728394,-2.3556652219955767
148.5,,2.808228234331209e-05,148.803,0.5540000200271606,-2.3931129445489847
148.965517,,2.7942934486008683e-05,149.27,0.5389999747276306,-2.426202556102094
149.43103399999998,,2.7697975502776877e-05,149.736,0.5669999718666077,-2.365596639978709
149.89655199999999,,2.7343717318091213e-05,150.201,0.5460000038146973,-2.411718059558478
150.362069,,2.6876702129092512e-05,150.666,0.5659999847412109,-2.368476728968454
150.82758600000003,,2.6293724673748584e-05,151.129,0.5419999957084656,-2.4210471790673602
151.293103,,2.559185456054774e-05,151.591,0.5659999847412109,-2.368984786047043
151.758621,,2.4768458582791e-05,152.059,0.5540000200271606,-2.395288407127624
152.224138,,2.382122293728115e-05,152.522,0.5360000133514404,-2.43459381165728
152.68965500000002,,2.274817526408359e-05,152.985,0.5529999732971191,-2.3975738368202295
153.155172,,2.154770642107277e-05,153.455,0.6629999876022339,-2.157863431983044
153.62069,,2.0218591904196536e-05,153.921,0.5329999923706055,-2.440952512052989
154.086207,,1.8760012821806798e-05,154.384,0.5619999766349792,-2.37756639570544
154.551724,,1.717157632903574e-05,154.849,0.5400000214576721,-2.425229332353487
155.017241,,1.545333542606056e-05,155.315,0.5460000038146973,-2.411836748026455
155.482759,,1.3605808022213921e-05,155.781,0.5529999732971191,-2.3962220796272407
155.948276,,1.1629995166279564e-05,156.245,0.5429999828338623,-2.4176120385871385
156.413793,,9.527398341980004e-06,156.711,0.5360000133514404,-2.43244640830948
156.87931,,7.30003572663322e-06,157.17,0.546999990940094,-2.4080588269432175
157.34482799999998,,4.950457310244312e-06,157.635,0.5389999747276306,-2.4250722310558976
157.81034499999998,,2.481758771922682e-06,158.103,0.5379999876022339,-2.426854775047539
158.275862,,1.0240598950886748e-07,158.566,0.5709999799728394,-2.354594968832059
158.741379,,2.7978137735043217e-06,159.035,0.5440000295639038,-2.4130963516439574
159.20689700000003,,5.599662546451595e-06,159.498,0.5659999847412109,-2.364896573594329
159.672414,,8.50256356194571e-06,159.96,0.5379999876022339,-2.425690311133326
160.137931,,1.1500535232100394e-05,160.429,0.5260000228881836,-2.451694232467158
160.60344800000001,,1.4586998847373428e-05,160.895,0.5490000247955322,-2.4015191709229944
161.06896600000002,,1.7754776240002573e-05,161.359,0.5519999861717224,-2.394992326347067
161.534483,,2.0996089483328662e-05,161.825,0.550000011920929,-2.39943304708245
162.0,,2.4302562716011617e-05,162.29,0.5360000133514404,-2.4300898557847894
162.465517,,2.766522617641567e-05,162.756,0.5630000233650208,-2.371489575859122
162.931034,,3.1074522528245574e-05,163.222,0.5519999861717224,-2.395738211723008
163.396552,,3.452031555385103e-05,163.68,0.531000018119812,-2.4418248923281802
163.862069,,3.799190128647812e-05,164.152,0.574999988079071,-2.346341020975023
164.327586,,4.147802164713207e-05,164.61,0.5389999747276306,-2.4251783197217485
164.793103,,4.496688064562471e-05,165.078,0.550000011920929,-2.4016359963142944
165.258621,,4.8446163198813435e-05,165.541,0.546999990940094,-2.40859908170106
165.72413799999998,,5.190305661199947e-05,166.011,0.5709999799728394,-2.356728985089592
166.189655,,5.532427476194661e-05,166.474,0.5130000114440918,-2.483485651384687
166.655172,,5.8696085012013286e-05,166.939,0.5630000233650208,-2.374914328042696
167.12069,,6.200433788146986e-05,167.402,0.5709999799728394,-2.357800244660919
167.58620699999997,,6.523449948220921e-05,167.868,0.6110000014305115,-2.2709112419825837
168.051724,,6.837168672676557e-05,168.334,0.5669999718666077,-2.36696204050133
168.517241,,7.14007053018477e-05,168.8,0.5720000267028809,-2.356186930039557
168.98275900000002,,7.430609039148491e-05,169.267,0.5350000262260437,-2.436841037762969
169.44827600000002,,7.707215012339701e-05,169.725,0.5839999914169312,-2.3300563208053515
169.913793,,7.968301170135273e-05,170.19,0.5149999856948853,-2.4802782941152017
170.37931,,8.212267017509875e-05,170.655,0.5460000038146973,-2.412565858251008
170.844828,,8.437503978794924e-05,171.126,0.5540000200271606,-2.3948983580393968
171.310345,,8.642400783034925e-05,171.588,0.5529999732971191,-2.3967813711250536
171.775862,,8.825349091569718e-05,172.056,0.5540000200271606,-2.394258440160857
172.241379,,8.984749358246083e-05,172.518,0.5669999718666077,-2.3655538665358695
172.706897,,9.119016911418453e-05,172.986,0.546999990940094,-2.4087182027302836
173.172414,,9.226588245639611e-05,173.448,0.5640000104904175,-2.3712589734653515
173.637931,,9.30592750967216e-05,173.914,0.5419999957084656,-2.4187668022550866
174.103448,,9.355533176174283e-05,174.379,0.5659999847412109,-2.3660695377199628
174.568966,,9.373944877132944e-05,174.845,0.5540000200271606,-2.3918287226219457
175.034483,,9.359750387838856e-05,175.312,0.5460000038146973,-2.4089106313869726
175.5,,9.311592740924747e-05,175.77,0.5339999794960022,-2.4347558380779417
175.96551699999998,,9.228177450726528e-05,176.237,0.5730000138282776,-2.3495475580914853
176.43103399999998,,9.108279826980888e-05,176.702,0.5379999876022339,-2.4256240226261547
176.896552,,8.950752355647666e-05,177.167,0.5649999976158142,-2.3666941977966003
177.36206900000002,,8.754532123446464e-05,177.633,0.5490000247955322,-2.4015194722396056
177.827586,,8.518648261529595e-05,178.096,0.5419999957084656,-2.416811441900801
178.293103,,8.242229382583391e-05,178.566,0.5419999957084656,-2.4169264484287463
178.758621,,7.924510984562438e-05,179.03,0.5509999990463257,-2.3975035876103847
179.224138,,7.564842793222457e-05,179.492,0.550000011920929,-2.3999310618833167
179.68965500000002,,7.162696014632942e-05,179.96,0.5540000200271606,-2.39152117922904
180.155172,,6.717670467926231e-05,180.423,0.550000011920929,-2.4005868477356493
180.62069,,6.229501567681239e-05,180.889,0.5400000214576721,-2.422760032976714
181.086207,,5.6980671245535846e-05,181.355,0.5649999976158142,-2.368704186813518
181.551724,,5.1233939320552095e-05,181.821,0.546999990940094,-2.4083406832871392
182.01724099999998,,4.505664106761666e-05,182.285,0.5360000133514404,-2.4327243947408794
182.482759,,3.845221148689898e-05,182.751,0.5879999995231628,-2.319837907935383
182.948276,,3.142575688149298e-05,183.215,0.5419999957084656,-2.420430289373654
183.413793,,2.3984108850298254e-05,183.681,0.5889999866485596,-2.318367884252331
183.87931,,1.6135874462585605e-05,184.141,0.550000011920929,-2.4036183935043014
184.34482799999998,,7.891482270356323e-06,184.611,0.5640000104904175,-2.3733413840085777
184.81034499999998,,7.36776185426645e-07,185.074,0.5450000166893005,-2.4148943989459752
185.27586200000002,,9.734709717465695e-06,185.537,0.5709999799728394,-2.3583381284937928
185.74137900000002,,1.90861960238799e-05,186.004,0.5740000009536743,-2.3518172656451974
186.206897,,2.877315574556496e-05,186.466,0.5460000038146973,-2.4127608225001347
186.672414,,3.877553238050283e-05,186.932,0.546999990940094,-2.4104528360412756
187.137931,,4.907127837981713e-05,187.395,0.5329999923706055,-2.4407587507741177
187.60344800000001,,5.9636347742386525e-05,187.86,0.5519999861717224,-2.3991097873532627
188.06896600000002,,7.044469541537183e-05,188.325,0.5669999718666077,-2.3661232131049124
188.534483,,8.146828379705388e-05,188.791,0.5540000200271606,-2.3940953362538946
189.0,,9.267709662589226e-05,189.257,0.5379999876022339,-2.4285716163724014
189.465517,,0.00010403916052567904,189.722,0.5669999718666077,-2.364988807843918
189.931034,,0.00011552057446105908,190.189,0.515999972820282,-2.4756906363151625
190.39655199999999,,0.00012708554734050797,190.655,0.5680000185966492,-2.3619972038945956
190.862069,,0.0001386964439850923,191.115,0.5540000200271606,-2.3921120501067827
191.327586,,0.0001503138396609852,191.585,0.5540000200271606,-2.3917544820475594
191.793103,,0.00016189658335177592,192.048,0.5460000038146973,-2.408866116282409
192.25862099999998,,0.00017340186992310456,192.511,0.5669999718666077,-2.3628464753087663
192.72413799999998,,0.00018478532130709036,192.981,0.5699999928474426,-2.356099333573279
193.189655,,0.0001960010768074237,193.444,0.5630000233650208,-2.37120157757661
193.655172,,0.00020700189259788895,193.909,0.5669999718666077,-2.3624063527591788
194.12069000000002,,0.00021773925045751318,194.373,0.5460000038146973,-2.4081474429246414
194.586207,,0.00022816347575453278,194.839,0.5540000200271606,-2.3907788189095345
195.051724,,0.00023822386465898916,195.304,0.5540000200271606,-2.390908666418243
195.517241,,0.0002478688205300615,195.77,0.546999990940094,-2.4063542862532046
195.98275900000002,,0.00025704599938927963,196.237,0.5540000200271606,-2.3913579242760616
196.448276,,0.00026570246435460597,196.696,0.5410000085830688,-2.41998609986202
196.913793,,0.000273784848873108,197.163,0.5540000200271606,-2.3920114562871992
197.37931,,0.0002812395285516511,197.629,0.5540000200271606,-2.3923903827637627
197.844828,,0.0002880128013458113,198.093,0.5410000085830688,-2.4211111653448345
198.310345,,0.0002940510758271427,198.555,0.4749999940395355,-2.565309167702531
198.775862,,0.0002993010672081419,199.023,0.5770000219345093,-2.343490993553687
199.241379,,0.00030371000076284487,199.485,0.5720000267028809,-2.354770256355649
199.706897,,0.00030722582223909045,199.952,0.5460000038146973,-2.4117698817168107
200.172414,,0.0003097974148162182,200.422,0.5989999771118164,-2.2966139692184866
200.63793099999998,,0.00031137482211947287,200.88,0.5419999957084656,-2.4210570459905747
201.103448,,0.00031190947675980224,201.352,0.5410000085830688,-2.423436642480478
201.568966,,0.0003113544338252105,201.81,0.550000011920929,-2.4039654533792216
202.034483,,0.0003096646087075181,202.282,0.531000018119812,-2.445428030125741
202.5,,0.00030679701860644173,202.74,0.5540000200271606,-2.3953170267785846
202.965517,,0.00030271102701151097,203.207,0.5230000019073486,-2.4627830085117135
203.431034,,0.00029736859042165135,203.673,0.546999990940094,-2.410355704073597
203.896552,,0.00029073450652246304,204.141,0.5759999752044678,-2.3469710759465716
204.36206900000002,,0.0002827766630024921,204.603,0.5770000219345093,-2.3445291628374005
204.827586,,0.0002734662861523084,205.067,0.5540000200271606,-2.394323643839708
205.293103,,0.00026277818835416063,205.537,0.5379999876022339,-2.4288273039118757
205.758621,,0.00025069101353556524,206.0,0.5460000038146973,-2.4110148782139955
206.224138,,0.00023718747962759388,206.463,0.5540000200271606,-2.393185829945428
206.689655,,0.00022225461703804999,206.929,0.5410000085830688,-2.421104067679336
207.155172,,0.00020588400212136288,207.391,0.5540000200271606,-2.392385601739705
207.62069,,0.00018807198460107818,207.857,0.5460000038146973,-2.409439232233856
208.086207,,0.00016881990787747815,208.322,0.503000020980835,-2.5027783957467835
208.551724,,0.0001481343211323229,208.788,0.5419999957084656,-2.417512886455328
209.01724099999998,,0.00012602718212515718,209.252,0.515999972820282,-2.4739129948405476
209.482759,,0.0001025160495612699,209.717,0.5299999713897705,-2.443227894143649
209.948276,,7.762426390041205e-05,210.182,0.5370000004768372,-2.427859377331058
210.413793,,5.138111546795815e-05,210.648,0.5540000200271606,-2.3907730333186077
210.87930999999998,,2.3821998726518e-05,211.111,0.5540000200271606,-2.390792893226748
211.344828,,5.011448433757654e-06,211.581,0.5540000200271606,-2.3908806883879166
211.810345,,3.507122152361375e-05,212.044,0.5419999957084656,-2.417177552151621
212.27586200000002,,6.630284353074186e-05,212.507,0.5540000200271606,-2.3912472640732756
212.741379,,9.864527735935704e-05,212.975,0.5680000185966492,-2.3610130371598306
213.206897,,0.00013203085773171337,213.437,0.5519999861717224,-2.3961828710710864
213.672414,,0.0001663852436277993,213.902,0.5299999713897705,-2.4444601792362066
214.137931,,0.0002016273923124899,214.367,0.5649999976158142,-2.3685797782383062
214.60344800000001,,0.0002376695559675638,214.832,0.5540000200271606,-2.392930499585287
215.068966,,0.00027441730190912275,215.297,0.5630000233650208,-2.3737093115063788
215.534483,,0.00031176955732899864,215.763,0.5759999752044678,-2.3457625232005417
216.0,,0.00034961867945162517,216.229,0.5669999718666077,-2.365722953852153
216.465517,,0.0003878505519455398,216.695,0.5249999761581421,-2.457546119080587
216.93103399999998,,0.0004263447083711252,217.16,0.5339999794960022,-2.4382175309534873
217.39655199999999,,0.0004649744833833816,217.625,0.5490000247955322,-2.4057681769799295
217.862069,,0.0005036071923404391,218.085,0.5429999828338623,-2.4190144205733453
218.327586,,0.000542104339895192,218.555,0.5540000200271606,-2.3951618447252523
218.793103,,0.000580321858068899,219.018,0.5410000085830688,-2.4235320442631063
219.25862099999998,,0.0006181103742219072,219.481,0.5640000104904175,-2.373404506869683
219.724138,,0.0006553155092478937,219.947,0.5419999957084656,-2.4212504221357647
220.18965500000002,,0.0006917782062242846,220.412,0.5519999861717224,-2.399316696507215
220.65517200000002,,0.00072733508965293,220.878,0.5460000038146973,-2.4121832334577205
221.12069,,0.0007618188553218249,221.345,0.546999990940094,-2.409747626827547
221.586207,,0.0007950586907108437,221.81,0.5410000085830688,-2.4225189452997435
222.051724,,0.0008268807257522899,222.275,0.5370000004768372,-2.4308989621949895
222.517241,,0.0008571085136407714,222.741,0.5669999718666077,-2.3651807954401542
222.98275900000002,,0.0008855635412667393,223.2,0.5379999876022339,-2.4279890792478738
223.448276,,0.0009120657687242357,223.666,0.5659999847412109,-2.366611935618459
223.913793,,0.0009364341972162716,224.133,0.5669999718666077,-2.3640667108091806
224.37931,,0.0009584874645511247,224.596,0.5690000057220459,-2.3593616004531937
224.844828,,0.000978044467290048,225.067,0.6480000019073486,-2.1869284197271104
225.31034499999998,,0.0009949250084717767,225.529,0.5730000138282776,-2.3500432028097635
225.775862,,0.0010089504697021949,225.99,0.546999990940094,-2.4064508558539814
226.241379,,0.001019944506258987,226.459,0.5490000247955322,-2.401912565898818
226.706897,,0.0010277337637215108,226.925,0.5540000200271606,-2.390900775211311
227.172414,,0.0010321486144959544,227.388,0.5379999876022339,-2.4257068692363877
227.63793099999998,,0.0010330239124655566,227.854,0.5440000295639038,-2.412650796257328
228.103448,,0.0010301997638557236,228.318,0.5419999957084656,-2.41709203329639
228.56896600000002,,0.0010235223122648145,228.784,0.5540000200271606,-2.3910971745863447
229.03448300000002,,0.0010128445356738234,229.248,0.5419999957084656,-2.4174503320277454
229.5,,0.0009980270531128074,229.714,0.5839999914169312,-2.326209668717374
229.965517,,0.0009789389385291202,230.18,0.5669999718666077,-2.3635534656038057
230.431034,,0.0009554585392726532,230.646,0.546999990940094,-2.4074680049485013
230.896552,,0.0009274742964870967,231.11,0.5429999828338623,-2.4165497108389524
231.362069,,0.0008948855645749576,231.572,0.5440000295639038,-2.4147527283069947
231.827586,,0.0008576034267886134,232.041,0.5360000133514404,-2.4325667860047946
232.293103,,0.0008155515038896454,232.503,0.5540000200271606,-2.3937269846355282
232.758621,,0.0007686667527133525,232.967,0.5419999957084656,-2.4202258112074837
233.224138,,0.000716900251376439,233.437,0.5640000104904175,-2.3726181991544304
233.689655,,0.0006602179677777922,233.895,0.5460000038146973,-2.412113986373892
234.155172,,0.0005986015079664436,234.363,0.5789999961853027,-2.340446934781714
234.62069,,0.0005320488408808861,234.828,0.5490000247955322,-2.4059754955355586
235.086207,,0.0004605749958934308,235.293,0.5709999799728394,-2.35815005028885
235.55172399999998,,0.0003842127295316604,235.758,0.5490000247955322,-2.4061174480249274
236.01724099999998,,0.0003030131577186362,236.223,0.5450000166893005,-2.4148010690870922
236.482759,,0.00021704634987427632,236.689,0.5540000200271606,-2.3950953645614237
236.94827600000002,,0.0001264018812077328,237.156,0.5410000085830688,-2.4232561124778034
237.413793,,3.1189339470738496e-05,237.621,0.5789999961853027,-2.3402464839508745
237.87931,,6.846121759932862e-05,238.082,0.5669999718666077,-2.366115953438325
238.344828,,0.00017239885781675725,238.545,0.5669999718666077,-2.3657964454715263
238.810345,,0.00028045142652721353,239.015,0.5429999828338623,-2.4177299908179815
239.27586200000002,,0.0003924252584582999,239.477,0.5669999718666077,-2.365065411156888
239.741379,,0.0005081049531606399,239.943,0.47200000286102295,-2.5716500790732266
240.206897,,0.0006272532179152342,240.407,0.574999988079071,-2.346865587357764
240.672414,,0.0007496107813266523,240.872,0.5540000200271606,-2.3922469705852922
241.137931,,0.0008748963797578308,241.337,0.5690000057220459,-2.359220556730601
241.603448,,0.0010028068190049096,241.803,0.5709999799728394,-2.3545505935460818
242.068966,,0.001133017115694052,242.267,0.5419999957084656,-2.4174625320309526
242.534483,,0.0012651807237074719,242.733,0.5460000038146973,-2.4085322570104464
243.0,,0.0013989298469413356,243.2,0.5630000233650208,-2.3713394927899873
243.465517,,0.0015338758343866738,243.666,0.5260000228881836,-2.451858628757711
243.93103399999998,,0.0016696096570597762,244.126,0.5540000200271606,-2.3908337332176703
244.39655199999999,,0.0018057024795461226,244.596,0.5540000200271606,-2.390879508941044
244.862069,,0.0019417063416649846,245.059,0.550000011920929,-2.3997065048090125
245.327586,,0.002077154940140777,245.522,0.550000011920929,-2.399882132667448
245.793103,,0.0022115644734572275,245.985,0.5540000200271606,-2.391400922498211
246.258621,,0.0023444345437734103,246.456,0.5540000200271606,-2.391684692568669
246.724138,,0.0024752491884786573,246.922,0.5540000200271606,-2.3920099348907318
247.18965500000002,,0.0026034781128494804,247.385,0.5669999718666077,-2.3640439744695296
247.655172,,0.0027285780317622753,247.85,0.550000011920929,-2.4014572154490192
248.12069,,0.0028499938994384446,248.315,0.550000011920929,-2.401842168141494
248.586207,,0.0029671600386548614,248.781,0.5379999876022339,-2.4283682580378136
249.051724,,0.003079501630575965,249.245,0.550000011920929,-2.402592341135268
249.517241,,0.003186436906164345,249.711,0.5799999833106995,-2.3375743398352067
249.982759,,0.0032873793585151525,250.17,0.5460000038146973,-2.411951976009223
250.44827600000002,,0.0033817387266733747,250.636,0.546999990940094,-2.4100304574436664
250.913793,,0.00346892114742052,251.1,0.5419999957084656,-2.421127039573483
251.37931000000003,,0.0035483313529471225,251.57,0.5519999861717224,-2.399483845460027
251.844828,,0.0036193783861917742,252.033,0.5540000200271606,-2.395204914739199
252.31034499999998,,0.0036814800803932506,252.496,0.5669999718666077,-2.366893232797634
252.77586200000002,,0.0037340594738181406,252.967,0.5429999828338623,-2.4191232404555314
253.241379,,0.0037765374744392426,253.429,0.5720000267028809,-2.3558184587393325
253.706897,,0.0038083392453850257,253.895,0.5669999718666077,-2.3665249626891804
254.172414,,0.003828919360732871,254.36,0.546999990940094,-2.4098538804487624
254.63793099999998,,0.0038377738195647763,254.825,0.5540000200271606,-2.3943104062824174
255.10344800000001,,0.0038344030622875585,255.285,0.5529999732971191,-2.3961567084026054
255.56896600000002,,0.003818262988477414,255.751,0.5460000038146973,-2.411045540215574
256.03448299999997,,0.0037888071998693137,256.215,0.5929999947547913,-2.3082688502020265
256.5,,0.003745626708592881,256.681,0.527999997138977,-2.4494937193508
256.965517,,0.003688479812818276,257.156,0.5460000038146973,-2.409896844212045
257.431034,,0.0036170339264011368,257.614,0.5419999957084656,-2.4182489136421266
257.896552,,0.003530603436203746,258.082,0.5509999990463257,-2.3983080403484824
258.362069,,0.0034284766163191643,258.544,0.5540000200271606,-2.3914785351694885
258.827586,,0.003310720499007091,259.008,0.5429999828338623,-2.415198747656945
259.29310300000003,,0.0031781556337689538,259.47,0.5540000200271606,-2.3910447148551044
259.758621,,0.0030306857235456695,259.936,0.5540000200271606,-2.390917691612174
260.224138,,0.002866021702048486,260.407,0.5669999718666077,-2.362533542529106
260.689655,,0.0026821030293235674,260.865,0.550000011920929,-2.3995755772861793
261.155172,,0.0024816569069241205,261.331,0.5389999747276306,-2.4236131798465244
261.62068999999997,,0.0022708602010082877,261.796,0.5540000200271606,-2.3910711773511224
262.086207,,0.0020489007471484193,262.264,0.5540000200271606,-2.3912697829658316
262.551724,,0.0018024051656455996,262.73,0.5669999718666077,-2.3632000877652164
263.017241,,0.0015224614315407603,263.19,0.5419999957084656,-2.4179650493740277
263.482759,,0.0012296578638097172,263.655,0.5659999847412109,-2.3660133737931686
263.94827599999996,,0.0009590558258305545,264.126,0.5419999957084656,-2.4186635076859337
264.413793,,0.0006967179623282594,264.588,0.5249999761581421,-2.456079380181197
264.87931,,0.00035997905216175486,265.056,0.5540000200271606,-2.393282249752955
265.34482799999995,,8.777847030675983e-05,265.518,0.5759999752044678,-2.3457277412081083
265.810345,,0.0005050162740828327,265.982,0.5680000185966492,-2.363511506829897
266.27586199999996,,0.0007027205730218293,266.451,0.5540000200271606,-2.394335410599037
266.741379,,0.0008203362322198103,266.91,0.5730000138282776,-2.3532224141024876
267.206897,,0.0013563904327903529,267.38,0.5450000166893005,-2.4144558485928416
267.672414,,0.002416781199110845,267.846,0.5540000200271606,-2.395022647987926
268.137931,,0.003045160619808271,268.311,0.5419999957084656,-2.421279627708734
268.603448,,0.0022451167026385525,268.777,0.546999990940094,-2.4104347837444093
269.06896600000005,,0.0013191268321548586,269.241,0.5379999876022339,-2.430025057219562
269.53448299999997,,0.004168749908722331,269.707,0.5490000247955322,-2.4059769127024415
270.0,,0.013557707366544018,270.171,0.5540000200271606,-2.394937655684089
270.465517,,0.02725658246124668,270.636,0.5669999718666077,-2.366410082248624
270.931034,,0.03970374824339357,271.1,0.5540000200271606,-2.3944739770184236
271.396552,,0.047735246126692756,271.563,0.5099999904632568,-2.4900320371345757
271.86206899999996,,0.05296787234106254,272.026,0.5490000247955322,-2.404728451496708
272.327586,,0.0580272916777626,272.495,0.5540000200271606,-2.393475018645891
272.793103,,0.06204756477154276,272.956,0.5440000295639038,-2.41488761269516
273.258621,,0.061186968385315815,273.426,0.5740000009536743,-2.3491518317045847
273.724138,,0.053210081159464025,273.891,0.5669999718666077,-2.3640343388292164
274.18965499999996,,0.04051206791678437,274.355,0.5669999718666077,-2.3636855393680762
274.655172,,0.028084849136688864,274.821,0.5699999928474426,-2.3568309055123318
275.12069,,0.01883536040035132,275.286,0.5540000200271606,-2.3914108331581634
275.586207,,0.011627707046334281,275.752,0.5410000085830688,-2.4195046064753205
276.051724,,0.003988145758895353,276.212,0.5049999952316284,-2.497765640454213
276.517241,,0.004281508797788953,276.677,0.5419999957084656,-2.4170497903459474
276.98275900000004,,0.011086229882344546,277.141,0.5540000200271606,-2.3908669888761414
277.448276,,0.015084338491168789,277.611,0.5669999718666077,-2.3625723442602253
277.913793,,0.017423954273661387,278.075,0.5490000247955322,-2.40188098618816
278.37931,,0.020039265316593505,278.537,0.5329999923706055,-2.4368957268774354
278.844828,,0.022977314894550658,279.0,0.546999990940094,-2.406609953257599
279.31034500000004,,0.024220660578223616,279.47,0.5720000267028809,-2.352410598923425
279.77586199999996,,0.02232490927018653,279.936,0.5419999957084656,-2.4180798114060993
280.241379,,0.01873010393874094,280.399,0.5410000085830688,-2.420601890267016
280.706897,,0.01670244148425467,280.864,0.5649999976158142,-2.3686810904646975
281.172414,,0.017933350025136175,281.33,0.550000011920929,-2.40173889694159
281.637931,,0.020982440491378835,281.795,0.5669999718666077,-2.365079483732559
282.10344799999996,,0.023273408202909955,282.26,0.5619999766349792,-2.3763377723786796
282.568966,,0.023708513294874934,282.726,0.5789999961853027,-2.3396415683297604
283.034483,,0.023082606053713196,283.185,0.5730000138282776,-2.3530192363416935
283.5,,0.02307710193079151,283.65,0.5419999957084656,-2.42081930927714
283.965517,,0.025341738971367475,284.119,0.5849999785423279,-2.3273479632859786
284.431034,,0.030447100655028665,284.581,0.546999990940094,-2.4102891157023434
284.89655200000004,,0.036997532735112006,285.052,0.550000011920929,-2.4038436392328837
285.362069,,0.042660513678652576,285.514,0.5270000100135803,-2.4539795109239604
285.827586,,0.04698416504508934,285.982,0.5429999828338623,-2.419084344930267
286.293103,,0.05256772296133473,286.444,0.5419999957084656,-2.4211634212352835
286.758621,,0.06227438304353624,286.91,0.550000011920929,-2.4035746211187567
287.22413800000004,,0.07536392885912846,287.373,0.5450000166893005,-2.41425297189559
287.689655,,0.08719147020243702,287.839,0.546999990940094,-2.4096320966522566
288.155172,,0.09247517114464551,288.304,0.5799999833106995,-2.337431745034858
288.62069,,0.08812655607298688,288.769,0.6230000257492065,-2.24341070570843
289.086207,,0.07368395882036995,289.234,0.5669999718666077,-2.365051287418317
289.55172400000004,,0.05077518761970642,289.7,0.550000011920929,-2.4017123388913686
290.01724099999996,,0.022692034385483527,290.16,0.5529999732971191,-2.394801859655771
290.482759,,0.006405879576565281,290.625,0.5649999976158142,-2.3682962803349468
290.948276,,0.0328386185713892,291.096,0.5690000057220459,-2.3592434401612787
291.413793,,0.054594671842335664,291.559,0.5379999876022339,-2.426477583148927
291.87931,,0.07155881642203678,292.022,0.5669999718666077,-2.363036940421415
292.344828,,0.08438494351548731,292.485,0.5419999957084656,-2.4172954544463643
292.81034500000004,,0.09263495612016079,292.956,0.5540000200271606,-2.3910027159233365
293.275862,,0.09410126665429641,293.418,0.5799999833106995,-2.3342719058211814
293.74137900000005,,0.08664643452265608,293.884,0.5440000295639038,-2.412682161072369
294.206897,,0.07081840665479797,294.352,0.5440000295639038,-2.4127276277809804
294.672414,,0.0499964734993588,294.81,0.5669999718666077,-2.3627295757218563
295.13793100000004,,0.028078826349636047,295.281,0.5440000295639038,-2.4130105193994775
295.603448,,0.008188162564436087,295.747,0.5460000038146973,-2.4088818065057334
296.068966,,0.0064081653445376766,296.211,0.5490000247955322,-2.402623892104182
296.534483,,0.012353156360853483,296.677,0.5360000133514404,-2.431265381966323
297.0,,0.008995752057789932,297.138,0.5429999828338623,-2.4163651860581368
297.46551700000003,,0.000362372514747552,297.601,0.5419999957084656,-2.4189143643911124
297.931034,,0.007491704625827628,298.071,0.5429999828338623,-2.4171148287723754
298.396552,,0.011682753620425073,298.533,0.546999990940094,-2.408775819893863
298.862069,,0.014463274645314085,298.996,0.5370000004768372,-2.4309226201554717
299.327586,,0.019506249263743627,299.466,0.5440000295639038,-2.4160058847603176
299.79310300000003,,0.02654007247277654,299.931,0.5649999976158142,-2.370550739760658
300.258621,,0.030647792983874347,300.394,0.5720000267028809,-2.355548698506546
300.724138,,0.02744811334089565,300.86,0.5419999957084656,-2.4211010433296303
301.189655,,0.018258439378599705,301.327,0.5540000200271606,-2.3950889625987006
301.65517200000005,,0.00915541876209445,301.785,0.5460000038146973,-2.4125850717581123
302.12069,,0.00509801674580836,302.252,0.5709999799728394,-2.358118430518604
302.586207,,0.005698576274471403,302.717,0.546999990940094,-2.4103379082100886
303.05172400000004,,0.00672306373473184,303.182,0.5920000076293945,-2.3121647527086626
303.517241,,0.004966565093524025,303.648,0.5400000214576721,-2.4252587986298266
303.982759,,0.0010497450613361915,304.111,0.5709999799728394,-2.3574700999194294
304.448276,,0.002286088159877635,304.581,0.5519999861717224,-2.3985669729178363
304.913793,,0.003444131367083719,305.041,0.5389999747276306,-2.4265550772868787
305.37931000000003,,0.0029346851143551415,305.51,0.5400000214576721,-2.4240165277505525
305.844828,,0.0022928571095453616,305.971,0.5460000038146973,-2.410570943949617
306.310345,,0.0031859425889340987,306.441,0.5540000200271606,-2.3927654799547993
306.775862,,0.006479608728943279,306.907,0.5809999704360962,-2.333574261193323
307.241379,,0.010734152107462758,307.37,0.5759999752044678,-2.3441186630920137
307.70689699999997,,0.01260281745433419,307.836,0.5419999957084656,-2.417874158312818
308.172414,,0.010433468410996561,308.3,0.5540000200271606,-2.3914533001939082
308.637931,,0.0070317777914666105,308.766,0.5490000247955322,-2.402120079587564
309.103448,,0.007295330256498713,309.23,0.5460000038146973,-2.4084873332510575
309.568966,,0.012820216711889692,309.695,0.546999990940094,-2.4062031713675176
310.034483,,0.019612196259334466,310.16,0.5669999718666077,-2.362590806813679
310.5,,0.02168639765779342,310.626,0.5419999957084656,-2.4170845587271845
310.96551700000003,,0.017034635792192707,311.089,0.5540000200271606,-2.391034673074592
311.431034,,0.009641204656645542,311.551,0.5529999732971191,-2.393370753871191
311.896552,,0.004888785639434669,312.019,0.5879999995231628,-2.3173327748879187
312.362069,,0.0032744596440166716,312.481,0.5540000200271606,-2.3916715678382547
312.827586,,0.0004310229096863336,312.948,0.5699999928474426,-2.3571198868564704
313.29310300000003,,0.005930226164257552,313.413,0.5490000247955322,-2.403210725139947
313.758621,,0.011405979030723047,313.878,0.5540000200271606,-2.3926790820065027
314.224138,,0.009693745890894286,314.344,0.5789999961853027,-2.3385851547271903
314.689655,,0.0009486025188036914,314.81,0.5419999957084656,-2.419566029048589
315.155172,,0.007543950864897467,315.275,0.5699999928474426,-2.358922039897345
315.62068999999997,,0.009420169994993429,315.74,0.5379999876022339,-2.4289733309850314
316.086207,,0.005875566942823058,316.2,0.5699999928474426,-2.35955693435821
316.551724,,0.0033500891467033674,316.666,0.5410000085830688,-2.422994509103584
317.017241,,0.005893755169501796,317.134,0.550000011920929,-2.4035920767698777
317.482759,,0.011200795215100624,317.596,0.5630000233650208,-2.3754171615198287
317.94827599999996,,0.014056662597708096,318.067,0.550000011920929,-2.40382423829415
318.413793,,0.012281053539002669,318.53,0.5519999861717224,-2.399486195557091
318.87931000000003,,0.008186899818896792,318.993,0.5389999747276306,-2.4277622315679164
319.344828,,0.005083382291845946,319.455,0.5529999732971191,-2.397150695150697
319.810345,,0.0042289074096095395,319.921,0.5429999828338623,-2.4187660159504283
320.275862,,0.00515935663768352,320.391,0.5460000038146973,-2.4120035340040196
320.741379,,0.006879740448346917,320.85,0.5419999957084656,-2.420443503757906
321.20689699999997,,0.007680859701674327,321.315,0.515999972820282,-2.4767747408434815
321.672414,,0.005213201058193967,321.78,0.5630000233650208,-2.3740352715928514
322.137931,,0.0013844674885541799,322.252,0.5709999799728394,-2.356243373101796
322.603448,,0.00931865527204934,322.71,0.5540000200271606,-2.392907971774423
323.068966,,0.01365166504099218,323.182,0.5540000200271606,-2.392538161791386
323.53448299999997,,0.012162234835417101,323.64,0.5410000085830688,-2.420505483107273
324.0,,0.00797026525488884,324.108,0.5669999718666077,-2.3635313333518813
324.465517,,0.006052899692696891,324.57,0.5630000233650208,-2.3719519518288226
324.931034,,0.007733627935317341,325.038,0.546999990940094,-2.4065612612506806
325.396552,,0.010202233764768937,325.5,0.5389999747276306,-2.4237947901055077
325.86206899999996,,0.01112506892962924,325.971,0.5519999861717224,-2.3953366776097846
326.327586,,0.01141206186602064,326.433,0.550000011920929,-2.3996223951973272
326.793103,,0.01237834799357547,326.899,0.5490000247955322,-2.4017958293368498
327.258621,,0.012167076049665047,327.364,0.5669999718666077,-2.3626414398775473
327.724138,,0.007605594662555114,327.829,0.5419999957084656,-2.417233204911133
328.189655,,0.0006062053195931942,328.296,0.5709999799728394,-2.3542386736879126
328.655172,,0.007001350289220269,328.762,0.5540000200271606,-2.391516583682862
329.12068999999997,,0.006684944614809028,329.227,0.5540000200271606,-2.3918049499487863
329.586207,,0.0005591223361086951,329.685,0.5979999899864197,-2.2962708485173
330.051724,,0.005357612179653752,330.152,0.5540000200271606,-2.392484911741771
330.517241,,0.005339893294970316,330.618,0.47699999809265137,-2.560613059420123
330.982759,,0.0012378193708247579,331.086,0.546999990940094,-2.4084891714957215
331.44827599999996,,0.009568191887178893,331.548,0.5460000038146973,-2.4110456987718045
331.913793,,0.013400901961582367,332.011,0.5730000138282776,-2.3525827547519427
332.37931,,0.010000642953860458,332.481,0.5379999876022339,-2.4291671242483446
332.844828,,0.0022110985920540827,332.947,0.5789999961853027,-2.3401345977439854
333.310345,,0.004065080340654238,333.405,0.5630000233650208,-2.375235699883669
333.77586199999996,,0.005051775969974046,333.87,0.5460000038146973,-2.4124586290830905
334.241379,,0.0021733573807291412,334.337,0.546999990940094,-2.410403893558559
334.706897,,0.0003045075603684687,334.802,0.5709999799728394,-2.3581740528432356
335.17241399999995,,0.00030956345258898626,335.267,0.5460000038146973,-2.412629353809183
335.637931,,0.0005241214515770436,335.732,0.5540000200271606,-2.395121160137014
336.103448,,0.00017655714546444858,336.2,0.5529999732971191,-2.397155351188712
336.56896600000005,,0.0008610219601722471,336.666,0.5410000085830688,-2.423093378822657
337.034483,,0.0009721964437884717,337.126,0.5540000200271606,-2.3945105970332468
337.5,,0.00038065715948918603,337.596,0.5490000247955322,-2.4050967001642602
337.965517,,0.0012495258641639802,338.059,0.5789999961853027,-2.339392179837133
338.431034,,0.0050641613481079905,338.522,0.5709999799728394,-2.356448135440534
338.89655200000004,,0.011029966164686818,338.989,0.6190000176429749,-2.251481919780017
339.36206899999996,,0.017381065812432196,339.451,0.5419999957084656,-2.4188413699302806
339.827586,,0.023624318107785706,339.917,0.5339999794960022,-2.4358830824733797
340.293103,,0.030894015280914327,340.381,0.5479999780654907,-2.4050173454062036
340.758621,,0.040063309341801356,340.846,0.5170000195503235,-2.4722253960240343
341.224138,,0.049655957433662794,341.311,0.5460000038146973,-2.408760124652258
341.68965499999996,,0.05563991963028429,341.777,0.5730000138282776,-2.349705623437295
342.155172,,0.05333075049443266,342.241,0.5879999995231628,-2.3168540086979945
342.62069,,0.03995592298160437,342.707,0.5540000200271606,-2.390820280621023
343.086207,,0.016512085418735414,343.174,0.5680000185966492,-2.360279892647754
343.551724,,0.011691224098751101,343.639,0.5669999718666077,-2.3624893870918524
344.01724099999996,,0.03662294993403774,344.1,0.5799999833106995,-2.334266523164249
344.48275900000004,,0.0516178946746757,344.57,0.5440000295639038,-2.412863600879068
344.948276,,0.05549409775035773,345.03,0.5669999718666077,-2.3629825505111044
345.413793,,0.05252802973220729,345.5,0.5460000038146973,-2.4090171385026706
345.87931,,0.04764841662024096,345.963,0.5709999799728394,-2.3548804828229026
346.344828,,0.04188487756767064,346.425,0.5669999718666077,-2.3639605026724566
346.81034500000004,,0.03324212197074341,346.891,0.5339999794960022,-2.436246189523574
347.275862,,0.021387610284326113,347.355,0.5440000295639038,-2.4148637278989042
347.741379,,0.009621372674172547,347.821,0.5929999947547913,-2.3085146743085128
348.206897,,0.0018198279327388983,348.285,0.5529999732971191,-2.3960519231918855
348.672414,,0.0009483602873203878,348.751,0.5540000200271606,-2.394239184954186
349.13793100000004,,0.00028630732382743413,349.215,0.5630000233650208,-2.3749610909295424
349.60344799999996,,0.0013100392296855811,349.681,0.5540000200271606,-2.394851761280523
350.068966,,0.0015765721560570135,350.156,0.5920000076293945,-2.3122893947819136
350.534483,,0.00023419805282861108,350.615,0.550000011920929,-2.4039546082740295
351.0,,0.0023147882177681125,351.078,0.578000009059906,-2.343045104863948
351.465517,,0.0020460665416397322,351.54,0.5929999947547913,-2.3103851085839304
351.93103399999995,,0.0005883161726339476,352.011,0.5659999847412109,-2.3691540091112393
352.396552,,0.00279280604185231,352.474,0.5460000038146973,-2.412600586609311
352.862069,,0.002855523746668332,352.94,0.5630000233650208,-2.3753701673639234
353.32758600000005,,0.0027639820549287563,353.403,0.515999972820282,-2.477512992431691
353.793103,,0.0055500702376092195,353.868,0.5630000233650208,-2.3748104403214567
354.258621,,0.010740882587782878,354.333,0.5419999957084656,-2.420212965684338
354.72413800000004,,0.014123787423651286,354.799,0.5799999833106995,-2.3370418258919003
355.189655,,0.012403568417031623,355.263,0.5619999766349792,-2.3758527942503314
355.655172,,0.0069912024790607765,355.729,0.5659999847412109,-2.366723622797723
356.12069,,0.0023998127511945188,356.194,0.550000011920929,-2.401170942942203
356.586207,,0.0014242053935192638,356.659,0.5519999861717224,-2.3964195473141787
357.05172400000004,,0.0027814338696189583,357.122,0.5460000038146973,-2.409126768647775
357.517241,,0.003334468733040337,357.592,0.5669999718666077,-2.36305130718359
357.982759,,0.0014737185460343488,358.055,0.5720000267028809,-2.3518841989926567
358.448276,,0.002080683982771348,358.518,0.5419999957084656,-2.4170287990190533
358.913793,,0.005378890308352534,358.986,0.5410000085830688,-2.419059188738253
359.37931000000003,,0.005984006217528415,359.449,0.5419999957084656,-2.4168044245346882
359.844828,,0.0021183220579039964,359.914,0.5669999718666077,-2.3623362396060297
360.310345,,0.004753055744991628,360.38,0.6039999723434448,-2.2817969227345047
360.775862,,0.009224760894543379,360.846,0.5339999794960022,-2.4344432176680204
361.241379,,0.006543087928708714,361.305,0.453000009059906,-2.6111240415407604
361.706897,,0.0015449498254489328,361.77,0.5630000233650208,-2.371748225729017
362.172414,,0.007789372850913022,362.237,0.5410000085830688,-2.4200087703988475
362.63793100000004,,0.0076603796529403955,362.703,0.5879999995231628,-2.317984669313744
363.103448,,0.0046931259907751054,363.171,0.5690000057220459,-2.3597809108946777
363.568966,,0.005281076879904429,363.636,0.6700000166893005,-2.140154161313978
364.034483,,0.009598135257417699,364.097,0.5649999976158142,-2.369329764925681
364.5,,0.011538622805087884,364.566,0.578000009059906,-2.3414142065083983
364.96551700000003,,0.00784405434468108,365.027,0.5519999861717224,-2.398445087378665
365.431034,,0.0030114386358042412,365.49,0.5419999957084656,-2.4205856910825223
365.896552,,0.00297146302924176,365.96,0.5540000200271606,-2.394753972100818
366.362069,,0.006957150652783183,366.422,0.5720000267028809,-2.355798215469481
366.827586,,0.008878625995837938,366.888,0.5419999957084656,-2.4213571868545762
367.29310300000003,,0.005745377797808251,367.353,0.5389999747276306,-2.428026769446557
367.758621,,0.0016856414435535768,367.819,0.5419999957084656,-2.4215549645430645
368.224138,,0.0025719425129208423,368.286,0.5540000200271606,-2.395403524139784
368.689655,,0.008227920286503161,368.752,0.5730000138282776,-2.3539290174334675
369.155172,,0.012023848434631371,369.211,0.5460000038146973,-2.4126016373393764
369.62068999999997,,0.00856243361985778,369.677,0.5680000185966492,-2.3644543349522764
370.086207,,0.00022118715450265107,370.145,0.5540000200271606,-2.394678804047396
370.55172400000004,,0.005260529541735211,370.607,0.5529999732971191,-2.396529762699511
371.017241,,0.003017120184402174,371.07,0.5360000133514404,-2.4331982691995537
371.482759,,0.004604265353733373,371.54,0.5419999957084656,-2.4197290158170417
371.948276,,0.011679709358379708,372.004,0.5320000052452087,-2.4411014519818326
372.413793,,0.014708378392699452,372.466,0.5659999847412109,-2.366608905919947
372.87931000000003,,0.014217368716360961,372.932,0.546999990940094,-2.4075921740189834
373.344828,,0.012358502484544969,373.402,0.5669999718666077,-2.3636278142976552
373.810345,,0.010999672152469725,373.86,0.574999988079071,-2.3458381804422452
374.275862,,0.011432057482558277,374.326,0.5540000200271606,-2.3912711007265783
374.741379,,0.013691662643422087,374.792,0.5540000200271606,-2.3910046724899314
375.20689699999997,,0.01571996054665285,375.259,0.5049999952316284,-2.497553905127545
375.672414,,0.014623410113560205,375.725,0.5669999718666077,-2.36234192322606
376.137931,,0.009536638069180856,376.19,0.574999988079071,-2.3448484840015125
376.603448,,0.002692785779516149,376.656,0.5429999828338623,-2.414573873129405
377.068966,,0.00267696030170995,377.118,0.5170000195503235,-2.4713015361537027
377.53448299999997,,0.005062239151008482,377.581,0.5659999847412109,-2.364703218806429
378.0,,0.0051586221143314235,378.048,0.5490000247955322,-2.401962512588674
378.465517,,0.004383956338936382,378.51,0.5540000200271606,-2.3913515147675986
378.931034,,0.003716584233994376,378.982,0.5630000233650208,-2.372077272162388
379.396552,,0.003911891867056586,379.444,0.546999990940094,-2.4073105188629045
379.862069,,0.005911320548997482,379.91,0.550000011920929,-2.401179546939901
380.327586,,0.0100327793986688,380.373,0.5490000247955322,-2.403781365237827
380.79310300000003,,0.014523214286435188,380.839,0.5659999847412109,-2.3671726054876996
381.258621,,0.015817638345190566,381.303,0.5669999718666077,-2.3654135119332222
381.724138,,0.011667604719086438,381.769,0.515999972820282,-2.4769233213515034
382.189655,,0.00437116765506431,382.233,0.5540000200271606,-2.3945014448120028
382.655172,,0.00038626979989738277,382.699,0.5929999947547913,-2.3098568394673653
383.12068999999997,,0.0010202818480977963,383.164,0.5879999995231628,-2.3210165132560494
383.586207,,0.006387640400691571,383.629,0.5540000200271606,-2.3952926944390494
384.051724,,0.010048520862030761,384.092,0.550000011920929,-2.4041404538488567
384.517241,,0.008534118931537521,384.555,0.5789999961853027,-2.3410199846966715
384.982759,,0.003415975766749561,385.023,0.5680000185966492,-2.364969933267746
385.44827599999996,,0.0008696570299250948,385.485,0.5669999718666077,-2.367058427534317
385.913793,,0.0012234018915284486,385.956,0.5699999928474426,-2.360360026243697
386.37931,,0.0019265829086613573,386.418,0.5389999747276306,-2.427669103295453
386.84482799999995,,0.005719063308102056,386.884,0.5360000133514404,-2.4339173662158857
387.310345,,0.007516834972468013,387.349,0.550000011920929,-2.4030793518880706
387.775862,,0.006736476942379616,387.815,0.5529999732971191,-2.3961669161680317
388.241379,,0.004804886907758044,388.281,0.5630000233650208,-2.373974917809879
388.70689699999997,,0.0037680776922880523,388.74,0.5540000200271606,-2.393160528266941
389.172414,,0.0046674931547813605,389.205,0.5479999780654907,-2.4058064467577074
389.637931,,0.006614038970766784,389.67,0.5630000233650208,-2.3727096885422174
390.103448,,0.007381912005814887,390.141,0.5529999732971191,-2.3941008349639095
390.56896600000005,,0.005672040771782201,390.603,0.5540000200271606,-2.3915601015026686
391.03448299999997,,0.002964666809926634,391.067,0.5490000247955322,-2.40213599048779
391.5,,0.0020198408502624336,391.537,0.5929999947547913,-2.3060116911140685
391.965517,,0.0031235186209109637,392.0,0.5709999799728394,-2.3537385816131158
392.431034,,0.0033974853793988023,392.463,0.5649999976158142,-2.366673687817963
392.896552,,0.0009143151362548893,392.928,0.574999988079071,-2.3448218076252556
393.36206899999996,,0.002103912659515902,393.39,0.5699999928474426,-2.3557229040697907
393.827586,,0.002046435882390589,393.855,0.5419999957084656,-2.416806640753299
394.293103,,0.0010246784116933183,394.322,0.5540000200271606,-2.3908166741533883
394.75862099999995,,0.0031630675068513086,394.788,0.5410000085830688,-2.4193611340775623
395.224138,,0.001386070308481611,395.252,0.5540000200271606,-2.3913221923714003
395.68965499999996,,0.002978060625066137,395.718,0.574999988079071,-2.3459065374022035
396.155172,,0.006152837399818109,396.185,0.5630000233650208,-2.3724276300492964
396.62069,,0.0056947605698609485,396.651,0.5540000200271606,-2.392443183443693
397.086207,,0.001984089456799089,397.115,0.5339999794960022,-2.4364429220582067
397.551724,,0.002610237518752556,397.577,0.5419999957084656,-2.419447179206947
398.017241,,0.005255200855074021,398.045,0.5419999957084656,-2.4198743855310494
398.48275900000004,,0.004395826996161436,398.507,0.5879999995231628,-2.3200633825427333
398.94827599999996,,0.00104443089383856,398.971,0.546999990940094,-2.4097611400495835
399.413793,,0.0018233413967490904,399.44,0.546999990940094,-2.4100897434251336
399.87931,,0.0018601020568066444,399.906,0.5709999799728394,-2.3580764863437826
400.344828,,0.0003268822841294783,400.37,0.5669999718666077,-2.3670018014906407
400.810345,,0.0018330194555688595,400.836,0.5519999861717224,-2.399822050920426
401.27586199999996,,0.0008546786701572652,401.301,0.5419999957084656,-2.421675328116977
401.741379,,0.0012603440815517463,401.766,0.5529999732971191,-2.3977015823086623
402.206897,,0.0021139252599907746,402.226,0.5860000252723694,-2.325721195411637
402.672414,,0.0013777412371214239,402.692,0.5460000038146973,-2.412707903708281
403.137931,,0.0005621468256329703,403.156,0.5540000200271606,-2.3950503590143315
403.60344799999996,,0.0006340520210399888,403.622,0.5419999957084656,-2.42090438926892
404.068966,,0.0012365456964919437,404.085,0.5669999718666077,-2.366095437213057
404.534483,,0.0016011747218005465,404.555,0.5540000200271606,-2.39403189743785
405.0,,0.0013675110571097805,405.019,0.5540000200271606,-2.393614598344568
405.465517,,0.0012100026262018848,405.481,0.5789999961853027,-2.3387121139847786
405.931034,,0.0027564698562864243,405.947,0.5509999990463257,-2.399271820017565
406.39655200000004,,0.006470100758661908,406.412,0.5540000200271606,-2.3923012132980483
406.862069,,0.009595711619485433,406.878,0.5759999752044678,-2.34395755342733
407.327586,,0.008272320861888291,407.344,0.5879999995231628,-2.3174329484420575
407.793103,,0.002424790246836267,407.81,0.5669999718666077,-2.3628478702218523
408.258621,,0.0031853924476176786,408.274,0.5540000200271606,-2.3908886993265885
408.72413800000004,,0.003929236658654443,408.74,0.5120000243186951,-2.4821762133458583
409.18965499999996,,0.0002820239597579516,409.2,0.5770000219345093,-2.3404214484367905
409.655172,,0.003172140102155904,409.666,0.5460000038146973,-2.4078937032954664
410.12069,,0.003011782360283236,410.134,0.5419999957084656,-2.416621280584839
410.586207,,0.00028308964546890054,410.596,0.5699999928474426,-2.3557109220832304
411.05172400000004,,0.0012259402970545062,411.067,0.5339999794960022,-2.434310028453033
411.51724099999996,,0.0008299559940910142,411.529,0.5830000042915344,-2.32779466246032
411.982759,,0.0052763944237764395,411.997,0.5460000038146973,-2.4087063292238327
412.448276,,0.009151776779148356,412.459,0.574999988079071,-2.345881121557253
412.913793,,0.010655023642151672,412.925,0.578000009059906,-2.3397434222189806
413.37931,,0.010096475801812641,413.387,0.5669999718666077,-2.364137107749475
413.844828,,0.008983909280178871,413.853,0.5820000171661377,-2.3319029734357466
414.31034500000004,,0.009051689842650828,414.318,0.5669999718666077,-2.3650321539785972
414.775862,,0.01124137705057445,414.784,0.5540000200271606,-2.393794362272409
415.241379,,0.014331544144374438,415.249,0.5299999713897705,-2.446500305814765
415.706897,,0.015087583225519102,415.715,0.574999988079071,-2.3488452363058063
416.172414,,0.011177944956643288,416.181,0.5540000200271606,-2.3949342912596334
416.63793100000004,,0.004174836930449754,416.64,0.5649999976158142,-2.3712493432564536
417.103448,,0.0012280672895986925,417.108,0.5669999718666077,-2.367106173741893
417.568966,,0.0016115993336802412,417.57,0.5460000038146973,-2.4129991747976134
418.034483,,0.0018572492530193382,418.04,0.5540000200271606,-2.395634861622296
418.5,,0.00511390637873626,418.503,0.5540000200271606,-2.3956211694764566
418.96551700000003,,0.005860682927527245,418.967,0.5410000085830688,-2.423851613720133
419.43103399999995,,0.005324546897468614,419.436,0.5429999828338623,-2.419327018572127
419.896552,,0.005140117227930204,419.895,0.5540000200271606,-2.3951238888227526
420.362069,,0.004204705604544171,420.36,0.5419999957084656,-2.4209659927266918
420.827586,,0.00040093366191297616,420.825,0.5770000219345093,-2.3443561166751867
421.293103,,0.005157936916995951,421.293,0.5540000200271606,-2.3940625430861804
421.758621,,0.007976641784792609,421.758,0.5440000295639038,-2.415413507709
422.22413800000004,,0.00520525507886322,422.227,0.5440000295639038,-2.414958882074976
422.689655,,0.0007439719720443094,422.685,0.546999990940094,-2.4079630901757794
423.15517200000005,,0.0047053105389465374,423.152,0.5680000185966492,-2.361759536647994
423.62069,,0.0036649780995989816,423.618,0.5540000200271606,-2.3918299323454257
424.086207,,0.00177068921812514,424.086,0.4779999852180481,-2.5570124779554684
424.55172400000004,,0.009379327480931855,424.548,0.5440000295639038,-2.4128763754516074
425.017241,,0.01725540887860904,425.015,0.47200000286102295,-2.569454521166192
425.482759,,0.024260792052686966,425.478,0.5669999718666077,-2.362267033944021
425.948276,,0.029794443983666378,425.943,0.5419999957084656,-2.416590855452108
426.413793,,0.03354876962821328,426.407,0.5830000042915344,-2.327200037156332
426.87931000000003,,0.035501404864865894,426.873,0.5400000214576721,-2.4208936701679176
427.344828,,0.035959228762935794,427.338,0.4869999885559082,-2.536453396846699
427.810345,,0.03505515952233085,427.804,0.5419999957084656,-2.4167975004778532
428.275862,,0.03207723761353996,428.27,0.5130000114440918,-2.480221094428331
428.741379,,0.026067979750585436,428.736,0.5830000042915344,-2.32802286097461
429.20689699999997,,0.01764936464455635,429.2,0.5680000185966492,-2.3610631042281653
429.672414,,0.00965864361134788,429.666,0.527999997138977,-2.448612171897008
430.137931,,0.00492072246644497,430.126,0.5419999957084656,-2.4185461109380357
430.603448,,0.0032429792593590737,430.596,0.5659999847412109,-2.366712314737953
431.068966,,0.0015549213175144966,431.059,0.5460000038146973,-2.410743399430374
431.534483,,0.002421623511382968,431.522,0.5690000057220459,-2.3610831738070015
432.0,,0.007445687943732416,431.985,0.5649999976158142,-2.370223288182207
432.46551700000003,,0.010456689300218676,432.455,0.5630000233650208,-2.374969938200503
432.931034,,0.010246283050921486,432.92,0.5649999976158142,-2.370954606109236
433.396552,,0.008351187253459251,433.384,0.5419999957084656,-2.4213482843697185
433.862069,,0.006737071016623462,433.849,0.5669999718666077,-2.367101695332784
434.327586,,0.006006843828694875,434.315,0.5669999718666077,-2.3672492400510463
434.79310300000003,,0.006268878826570866,434.781,0.546999990940094,-2.410893362373854
435.258621,,0.008491803585047662,435.241,0.5540000200271606,-2.3956362450461715
435.724138,,0.013512365799630516,435.707,0.5450000166893005,-2.4151605425430835
436.189655,,0.019690143118928218,436.174,0.5360000133514404,-2.4346108041686474
436.655172,,0.022887550793321006,436.64,0.5419999957084656,-2.421312512799935
437.12068999999997,,0.019957853407328502,437.1,0.5460000038146973,-2.4123092804034774
437.586207,,0.012398555317747847,437.57,0.5440000295639038,-2.4163240890551405
438.051724,,0.005862956059089483,438.03,0.5210000276565552,-2.46604735297787
438.517241,,0.005196892329184531,438.5,0.5809999704360962,-2.3349107669578406
438.982759,,0.009819647889073023,438.963,0.5669999718666077,-2.364972754353898
439.448276,,0.014578180441585792,439.426,0.5379999876022339,-2.4277059838324377
439.913793,,0.015074358519346224,439.892,0.550000011920929,-2.401120430077067
440.37931000000003,,0.011275076341949975,440.356,0.5540000200271606,-2.391982990496435
440.844828,,0.006142973199966535,440.822,0.5460000038146973,-2.409020495893987
441.310345,,0.002411139226431573,441.289,0.5669999718666077,-2.3629196576214033
441.775862,,0.001287473944938377,441.754,0.5759999752044678,-2.3430144476951025
442.241379,,0.002660099887032506,442.219,0.5460000038146973,-2.408137013516162
442.70689699999997,,0.004941083434161189,442.685,0.5460000038146973,-2.407968640453502
443.172414,,0.005302640875239103,443.153,0.5339999794960022,-2.434018369803342
443.637931,,0.001922947993305897,443.611,0.546999990940094,-2.4056790425474492
444.103448,,0.003432878746230283,444.078,0.5669999718666077,-2.362166338022589
444.568966,,0.0062964964039353005,444.54,0.5419999957084656,-2.416767536186058
445.03448299999997,,0.003924795845060554,445.008,0.5640000104904175,-2.369043175844179
445.5,,0.0016931077289941239,445.47,0.5490000247955322,-2.4019936193462628
445.965517,,0.005861467473725299,445.936,0.574999988079071,-2.345676017374059
446.431034,,0.005609466899364186,446.406,0.5059999823570251,-2.4963774530091114
446.896552,,0.0015796697045907583,446.872,0.5720000267028809,-2.352998384812347
447.36206899999996,,0.003469000464446468,447.33,0.5540000200271606,-2.392650213922875
447.827586,,0.0065920066645857546,447.795,0.5419999957084656,-2.419241216734905
448.29310300000003,,0.00550162342071496,448.266,0.574999988079071,-2.3477909614431005
448.758621,,0.00035127164292630866,448.725,0.5540000200271606,-2.393971910972774
449.224138,,0.00831041702494468,449.19,0.5419999957084656,-2.4205171000362045
449.689655,,0.01339130384044378,449.655,0.5669999718666077,-2.3664127668704347
450.155172,,0.012409244317599552,450.126,0.5540000200271606,-2.3950463062989624
450.62068999999997,,0.007227774874701656,450.588,0.5419999957084656,-2.4214417779813595
451.086207,,0.003062453016305158,451.056,0.5450000166893005,-2.4150910464975794
451.551724,,0.0037629355575951582,451.518,0.5649999976158142,-2.371631248356464
452.017241,,0.009125778122786175,451.981,0.5960000157356262,-2.30412935284892
452.482759,,0.01586631911353909,452.451,0.5669999718666077,-2.367267602583044
452.94827599999996,,0.020133931673433914,452.91,0.5419999957084656,-2.4216144417061867
453.413793,,0.019677208819670822,453.38,0.5389999747276306,-2.427959556542463
453.87931,,0.0150477436172001,453.846,0.5809999704360962,-2.336199362387941
454.344828,,0.009236084465934514,454.311,0.5690000057220459,-2.362026415984289
454.810345,,0.005559641592715109,454.777,0.5669999718666077,-2.366016508300603
455.27586199999996,,0.005244701081155783,455.242,0.5419999957084656,-2.4200764806439725
455.741379,,0.006759893830806169,455.7,0.5690000057220459,-2.3608203440945204
456.206897,,0.007291976500558244,456.167,0.5440000295639038,-2.414840332886424
456.672414,,0.004910188986689674,456.632,0.5669999718666077,-2.3642849695972172
457.137931,,3.0413861129748368e-05,457.1,0.5669999718666077,-2.3638508921680104
457.603448,,0.0050338158667106,457.562,0.5540000200271606,-2.3917643104786763
458.06896600000005,,0.0075377305708372025,458.026,0.550000011920929,-2.4001078578832424
458.53448299999997,,0.007604050911504699,458.496,0.5669999718666077,-2.3627487635782063
459.0,,0.008117307213707702,458.959,0.5709999799728394,-2.3537698306317663
459.465517,,0.01158468378071543,459.422,0.5419999957084656,-2.4167520401698224
459.931034,,0.01720399196041391,459.888,0.5669999718666077,-2.362159445502928
460.39655200000004,,0.02195013075441503,460.353,0.5540000200271606,-2.39043113008662
460.86206899999996,,0.024281334721834833,460.818,0.5640000104904175,-2.3686711018278417
461.327586,,0.025709238089446237,461.285,0.5540000200271606,-2.390560380172075
461.793103,,0.0282756820173068,461.751,0.5630000233650208,-2.3711286689950577
462.258621,,0.03128125656002998,462.215,0.5490000247955322,-2.4018741151715712
462.724138,,0.031756259770044204,462.68,0.4819999933242798,-2.5481506165652092
463.18965499999996,,0.028408179413826267,463.141,0.546999990940094,-2.4069003162337697
463.655172,,0.024003435005025053,463.611,0.5419999957084656,-2.418198434061368
464.12069,,0.022748705342546128,464.071,0.5419999957084656,-2.4186330465688854
464.58620699999994,,0.025385462020228292,464.541,0.5460000038146973,-2.4103696554959746
465.051724,,0.027807190396471955,465.004,0.5490000247955322,-2.4042876422104538
465.517241,,0.025281617452263334,465.466,0.5649999976158142,-2.369871829941998
465.98275900000004,,0.017782536521067177,465.932,0.5540000200271606,-2.3942541505153416
466.448276,,0.010153602910967709,466.395,0.5540000200271606,-2.394633614056123
466.913793,,0.006715998422260303,466.861,0.5540000200271606,-2.3949640929158287
467.37931,,0.006587135158144167,467.326,0.5720000267028809,-2.3560196182015747
467.844828,,0.004877865544056221,467.792,0.5490000247955322,-2.4063321649133638
468.31034500000004,,0.0019440924717823009,468.257,0.546999990940094,-2.410820038775144
468.77586199999996,,0.012119006999066095,468.722,0.5730000138282776,-2.3542286831497456
469.241379,,0.01957907053273052,469.189,0.5640000104904175,-2.373810904715962
469.706897,,0.018921683608015653,469.655,0.5540000200271606,-2.3954934846234353
470.172414,,0.010205818952123247,470.115,0.5680000185966492,-2.364813807931654
470.63793100000004,,0.000708050774005932,470.585,0.5419999957084656,-2.421211142744085
471.10344799999996,,0.006879667123378627,471.048,0.5419999957084656,-2.4209028754506643
471.568966,,0.005933473827966838,471.511,0.5669999718666077,-2.3660772013866596
472.034483,,0.0013933247482762873,471.982,0.5669999718666077,-2.365676484439341
472.5,,0.0014213456350457175,472.444,0.5299999713897705,-2.4458569673061255
472.965517,,0.0006099552152541944,472.909,0.546999990940094,-2.4083756164272714
473.43103399999995,,0.001378334045512769,473.373,0.5540000200271606,-2.3926793544566713
473.89655200000004,,0.0016728835817917788,473.839,0.5389999747276306,-2.424925273591554
474.362069,,0.0008030435394968961,474.304,0.574999988079071,-2.346084472716438
474.827586,,0.0016344123601723624,474.769,0.5419999957084656,-2.417606811749107
475.293103,,0.004685948041866477,475.234,0.5419999957084656,-2.4172817847049552
475.758621,,0.006026994417387217,475.7,0.5419999957084656,-2.4170150949421596
476.22413800000004,,0.0012235568659875096,476.16,0.5669999718666077,-2.362347979077582
476.689655,,0.009039018953378589,476.626,0.5090000033378601,-2.488580411099342
477.155172,,0.01877467043314909,477.096,0.5529999732971191,-2.3926671098436736
477.62069,,0.022449127193992644,477.559,0.5460000038146973,-2.4079420695142857
478.086207,,0.0199434722243534,478.027,0.546999990940094,-2.4058636406666336
478.55172400000004,,0.015550738207747382,478.489,0.5379999876022339,-2.4256443870073676
479.01724099999996,,0.013136898216059822,478.959,0.5669999718666077,-2.362703515873937
479.482759,,0.01320613065635618,479.415,0.5440000295639038,-2.413111333936732
479.948276,,0.014151031124425933,479.88,0.5419999957084656,-2.417817968810323
480.413793,,0.01472281577149616,480.345,0.46799999475479126,-2.5794287413866126
480.87931000000003,,0.014555315331844535,480.811,0.5789999961853027,-2.3380196530726276
481.344828,,0.013702614235605138,481.275,0.5669999718666077,-2.364599308428527
481.810345,,0.013146120201896124,481.741,0.5440000295639038,-2.4151442795969524
482.275862,,0.014803959095649764,482.207,0.5669999718666077,-2.3654594361657892
482.74137900000005,,0.019379735098467042,482.673,0.5789999961853027,-2.339713933957331
483.206897,,0.024728776909448816,483.141,0.5460000038146973,-2.411969895202343
483.672414,,0.027829916764669962,483.604,0.5419999957084656,-2.4209976830226267
484.13793100000004,,0.02832416259862738,484.067,0.5759999752044678,-2.3471803872047134
484.603448,,0.0293957116777588,484.53,0.5690000057220459,-2.3626226493912488
485.068966,,0.03538411493892018,485.0,0.5419999957084656,-2.421567741377992
485.534483,,0.04878998434742093,485.463,0.5630000233650208,-2.3758648334134755
486.0,,0.06875444672592954,485.928,0.5419999957084656,-2.421591621169659
486.46551700000003,,0.09122075728194505,486.391,0.550000011920929,-2.4040652032552643
486.931034,,0.11032894253129744,486.856,0.5540000200271606,-2.3951844598161647
487.396552,,0.1205855498676821,487.322,0.5410000085830688,-2.4232771650925784
487.862069,,0.11871619379784418,487.788,0.5680000185966492,-2.364167367616799
488.327586,,0.10385593034048518,488.252,0.5699999928474426,-2.359475479105694
488.79310300000003,,0.07650973322802815,488.718,0.5720000267028809,-2.3547447580497645
489.258621,,0.03835446214132044,489.185,0.5540000200271606,-2.39356008794809
489.724138,,0.006795141919453276,489.651,0.5540000200271606,-2.3931455652261473
490.189655,,0.053173595530258605,490.114,0.5759999752044678,-2.3447992341554422
490.655172,,0.09545412197838073,490.577,0.5509999990463257,-2.3988598832187846
491.12069,,0.1307751175573361,491.045,0.5540000200271606,-2.3919416641792974
491.586207,,0.157706676602113,491.507,0.5669999718666077,-2.3632719759714966
492.05172400000004,,0.17379124570296076,491.97,0.5540000200271606,-2.391291872861539
492.517241,,0.1760302943618393,492.44,0.5410000085830688,-2.4193662347494826
492.982759,,0.1646846237175423,492.906,0.5649999976158142,-2.366892426425627
493.448276,,0.14488177042357245,493.37,0.550000011920929,-2.399452675619218
493.913793,,0.12265020276470773,493.836,0.574999988079071,-2.344936736215443
494.37931000000003,,0.10020393104951797,494.301,0.5540000200271606,-2.390709118127637
494.844828,,0.0765536153032589,494.767,0.5659999847412109,-2.3646559083393215
495.310345,,0.05167190849060407,495.226,0.5540000200271606,-2.390956905906504
495.775862,,0.028154807894081865,495.692,0.5519999861717224,-2.395533529680002
496.241379,,0.009099882201312382,496.159,0.5540000200271606,-2.3914507150709396
496.70689699999997,,0.004143665106356049,496.625,0.5490000247955322,-2.402665299427496
497.172414,,0.012069346280138733,497.085,0.5669999718666077,-2.36380772600784
497.637931,,0.016082362764435573,497.555,0.5519999861717224,-2.39687076119189
498.103448,,0.017926044106641465,498.019,0.5759999752044678,-2.344979909502769
498.568966,,0.01923008197744656,498.481,0.5080000162124634,-2.493526641414384
499.03448299999997,,0.020933378349761774,498.947,0.5669999718666077,-2.365375988083777
499.5,,0.023315885035071482,499.412,0.5540000200271606,-2.3940662926990917
499.96551700000003,,0.026600271645557203,499.878,0.5419999957084656,-2.420545044225072
500.431034,,0.030785289179088526,500.345,0.5680000185966492,-2.3641921311174703
500.89655200000004,,0.034696639021536635,500.811,0.5669999718666077,-2.3666105853532673
501.362069,,0.03620015264981896,501.271,0.5389999747276306,-2.42779316698614
501.827586,,0.034097918190464024,501.737,0.578000009059906,-2.342942011490439
502.293103,,0.029562248648630142,502.204,0.5759999752044678,-2.3473473203086384
502.758621,,0.02550532049938937,502.67,0.5490000247955322,-2.4061491044464702
503.224138,,0.024571909276452465,503.13,0.5540000200271606,-2.3951666362385664
503.68965499999996,,0.027062376328316335,503.6,0.5509999990463257,-2.4015492513512573
504.15517200000005,,0.030071440656880083,504.063,0.5419999957084656,-2.420944761336692
504.62068999999997,,0.029448543326105726,504.525,0.5770000219345093,-2.344427162086572
505.08620699999994,,0.02403665400033885,504.993,0.5669999718666077,-2.3659038099591747
505.55172400000004,,0.017608592497755052,505.455,0.5709999799728394,-2.356843395696082
506.017241,,0.015047388397046035,505.921,0.5669999718666077,-2.365187190045032
506.48275899999993,,0.016875037324975792,506.391,0.5789999961853027,-2.338658802115268
506.948276,,0.019205596427772736,506.857,0.5460000038146973,-2.4101680191985073
507.413793,,0.01862616868015964,507.315,0.5419999957084656,-2.418507721189423
507.87931,,0.015100615273796678,507.78,0.5730000138282776,-2.35061753259653
508.344828,,0.010613625660351967,508.252,0.5669999718666077,-2.3633700635332393
508.810345,,0.0075184895411504055,508.71,0.5669999718666077,-2.363092426035442
509.27586199999996,,0.008054132989925454,509.178,0.503000020980835,-2.5022996545988625
509.74137900000005,,0.012515691172684749,509.643,0.5789999961853027,-2.3365552057872856
510.20689699999997,,0.017074777947139342,510.111,0.5440000295639038,-2.4127035358947007
510.67241399999995,,0.016083521573419298,510.573,0.5820000171661377,-2.3298754000847266
511.13793100000004,,0.008376243807188757,511.041,0.5649999976158142,-2.3669381893466
511.603448,,0.00031906449356965637,511.503,0.5339999794960022,-2.434566615618036
512.0689659999999,,0.003220289536765823,511.971,0.5419999957084656,-2.417290408833572
512.534483,,0.00015114256045115721,512.433,0.5460000038146973,-2.4087867376141525
513.0,,0.00437026429838959,512.899,0.5389999747276306,-2.4242992152214122
513.465517,,0.0052271473166158435,513.366,0.5669999718666077,-2.363601125583054
513.931034,,0.003921702579397646,513.825,0.5490000247955322,-2.4031527746710943
514.396552,,0.003680382612416418,514.296,0.46399998664855957,-2.5886972880991146
514.862069,,0.00470202643350506,514.755,0.5460000038146973,-2.4104211422523676
515.327586,,0.004463691378571525,515.22,0.5659999847412109,-2.3672216411987828
515.793103,,0.001974539477883589,515.685,0.5799999833106995,-2.3370800648309267
516.258621,,0.0005966258355323238,516.152,0.5460000038146973,-2.4114882380901417
516.724138,,0.00097903369197396,516.618,0.5630000233650208,-2.3747503536495143
517.189655,,6.906017680195092e-05,517.086,0.5669999718666077,-2.366290941797811
517.655172,,0.00029994421828451537,517.548,0.546999990940094,-2.4100670976704857
518.1206900000001,,0.0036713292250840526,518.015,0.5789999961853027,-2.340495781702276
518.5862070000001,,0.00868456215063891,518.477,0.5419999957084656,-2.4211893056520726
519.051724,,0.012172301175540811,518.943,0.574999988079071,-2.349313479078651
519.517241,,0.011598632588453823,519.407,0.5389999747276306,-2.4277005774479306
519.982759,,0.007172959765254963,519.873,0.5540000200271606,-2.3949149042960913
520.448276,,0.002231133093050375,520.338,0.5450000166893005,-2.4143594688354373
520.9137929999999,,0.0010230163175362194,520.803,0.5630000233650208,-2.374928302911322
521.37931,,0.005188473342459414,521.271,0.5389999747276306,-2.4269554184375495
521.844828,,0.012027616816838607,521.737,0.5669999718666077,-2.3656560790916448
522.310345,,0.016502585311220043,522.197,0.5440000295639038,-2.415440501331518
522.7758620000001,,0.01535309350677336,522.662,0.5659999847412109,-2.367168958707737
523.241379,,0.009519189195570175,523.13,0.5669999718666077,-2.3646423691087994
523.7068969999999,,0.0030290217332135,523.592,0.574999988079071,-2.346868872448005
524.172414,,2.5898211708825846e-05,524.056,0.5419999957084656,-2.4184347540416633
524.637931,,0.0017570476987697884,524.525,0.5879999995231628,-2.3179125399794245
525.103448,,0.005813803814065802,524.986,0.5709999799728394,-2.3546790521888803
525.568966,,0.007237440159366793,525.455,0.5669999718666077,-2.3631650033902023
526.034483,,0.003178782195719549,525.921,0.5630000233650208,-2.371700214338235
526.5,,0.004185409767139892,526.384,0.5709999799728394,-2.354146671701245
526.9655170000001,,0.009941992016394587,526.85,0.5960000157356262,-2.299613683182769
527.4310340000001,,0.011293311973166829,527.315,0.574999988079071,-2.3453575882319075
527.8965519999999,,0.009099747096974586,527.781,0.5920000076293945,-2.3083716140274917
528.362069,,0.005338840372408956,528.241,0.5920000076293945,-2.308479570501663
528.827586,,0.001054784930192662,528.707,0.6060000061988831,-2.2781391845890946
529.293103,,0.002663046346687331,529.174,0.5960000157356262,-2.300133657645432
529.7586210000001,,0.0035453380610605276,529.64,0.5830000042915344,-2.328705277158726
530.224138,,2.9140219964253174e-06,530.1,0.5860000252723694,-2.322452490142163
530.689655,,0.006017635140550386,530.57,0.6150000095367432,-2.259579815380233
531.155172,,0.009648233152096047,531.03,0.5929999947547913,-2.3078329865992004
531.62069,,0.007336287802205039,531.5,0.6060000061988831,-2.279838318095086
532.086207,,5.444632069233433e-05,531.96,0.6029999852180481,-2.2866971084320133
532.5517239999999,,0.007862821285330971,532.429,0.5849999785423279,-2.326221102805269
533.017241,,0.01270379190073255,532.895,0.5820000171661377,-2.3330423225195656
533.482759,,0.014174489321446559,533.36,0.5879999995231628,-2.3202247216042977
533.9482760000001,,0.014692442449003572,533.826,0.625,-2.2398294497439863
534.413793,,0.016520317229349175,534.29,0.5830000042915344,-2.3315009252193213
534.87931,,0.01990706033453215,534.755,0.6420000195503235,-2.203077181228406
535.344828,,0.023393619079196827,535.215,0.5929999947547913,-2.30989226102625
535.810345,,0.024904390572037714,535.681,0.6069999933242798,-2.2793959479987396
536.275862,,0.022820048033565868,536.156,0.6650000214576721,-2.152982087104924
536.7413789999999,,0.017366007572665668,536.614,0.6620000004768372,-2.1594086272590656
537.206897,,0.01131321064477984,537.078,0.6240000128746033,-2.242034058329545
537.672414,,0.00815471659550476,537.54,0.628000020980835,-2.2331094009782197
538.137931,,0.008598811494126318,538.011,0.6259999871253967,-2.237217478438222
538.6034480000001,,0.009228705841033708,538.474,0.6499999761581421,-2.184649090027495
539.0689659999999,,0.005698241825313456,538.939,0.6420000195503235,-2.2017742219843237
539.5344829999999,,0.0024715978238198794,539.403,0.6629999876022339,-2.1557048132843764
540.0,,0.011045847014824941,539.869,0.6269999742507935,-2.233814742813887
540.465517,,0.015245289305621372,540.333,0.6330000162124634,-2.220428788709663
540.931034,,0.013877794114634273,540.799,0.6460000276565552,-2.1918100617845258
541.396552,,0.00926757309820481,541.263,0.6430000066757202,-2.198076325101437
541.862069,,0.004689922642685265,541.729,0.6240000128746033,-2.239236148756231
542.327586,,0.0027569356879235604,542.193,0.6240000128746033,-2.2390449522334763
542.7931030000001,,0.004985154453821354,542.658,0.6320000290870667,-2.2214738944004426
543.258621,,0.0111951470166684,543.126,0.621999979019165,-2.2431721475245774
543.7241379999999,,0.018995056513864753,543.589,0.6990000009536743,-2.075382497434614
544.189655,,0.024569885713526824,544.052,0.6420000195503235,-2.1995856873860347
544.655172,,0.024888847146252245,544.522,0.675000011920929,-2.1277634699402155
545.12069,,0.019954708111101945,544.982,0.6320000290870667,-2.2215695705887804
545.5862070000001,,0.013297682638159074,545.451,0.6859999895095825,-2.1040936816098985
546.051724,,0.009880996789325183,545.917,0.640999972820282,-2.2023449191977855
546.517241,,0.012567061476761404,546.381,0.6700000166893005,-2.139410190860946
546.982759,,0.019970169281781434,546.847,0.6460000276565552,-2.1919705116958625
547.448276,,0.027800689286033582,547.311,0.621999979019165,-2.244549698149699
547.9137929999999,,0.03248917983719115,547.777,0.6499999761581421,-2.183849383312881
548.3793099999999,,0.03353995275788994,548.242,0.6169999837875366,-2.2560475051561255
548.844828,,0.03273135648108621,548.7,0.6320000290870667,-2.223662119439713
549.310345,,0.03161909068286583,549.167,0.6370000243186951,-2.213045737620596
549.775862,,0.029689692293271317,549.633,0.640999972820282,-2.2045812145923445
550.241379,,0.024082929648112632,550.1,0.6909999847412109,-2.095862721282189
550.706897,,0.01095130887589916,550.563,0.7200000286102295,-2.032850620263896
551.172414,,0.011463080420123804,551.026,0.6790000200271606,-2.12229247175832
551.637931,,0.03949048863236957,551.496,0.6700000166893005,-2.1419636704998575
552.103448,,0.0643401161969343,551.959,0.6470000147819519,-2.192082007378514
552.568966,,0.07801273531151881,552.422,0.6779999732971191,-2.12450000744797
553.034483,,0.07968526442668902,552.887,0.6439999938011169,-2.198478454631272
553.5,,0.07483112225519518,553.352,0.640999972820282,-2.2048714693434204
553.965517,,0.06775597669515245,553.818,0.6430000066757202,-2.200329374317886
554.4310340000001,,0.05730866093579215,554.285,0.5849999785423279,-2.32647188685443
554.896552,,0.041408635055168244,554.751,0.6449999809265137,-2.195507431666517
555.3620689999999,,0.02353716053584976,555.215,0.6650000214576721,-2.1516689149200277
555.827586,,0.011200646762734717,555.68,0.640999972820282,-2.203678196242759
556.293103,,0.007417133143636796,556.141,0.6489999890327454,-2.18596672469757
556.758621,,0.006405227623823614,556.611,0.6949999928474426,-2.0854708726606765
557.224138,,0.00013722914588477995,557.074,0.6470000147819519,-2.1897799345759066
557.689655,,0.013375799157863088,557.537,0.6620000004768372,-2.1568549969366106
558.155172,,0.02602890300494282,558.0,0.6309999823570251,-2.2241772349139604
558.6206900000001,,0.030836492585765467,558.47,0.6700000166893005,-2.1390299593575977
559.0862070000001,,0.028632142790566174,558.936,0.6389999985694885,-2.2064294095971677
559.5517239999999,,0.027018560380240076,559.398,0.6269999742507935,-2.232480446453452
560.017241,,0.03187192699263596,559.864,0.6460000276565552,-2.1910423736804145
560.482759,,0.04137497805010866,560.33,0.652999997138977,-2.175797853231966
560.948276,,0.04844538267328377,560.795,0.6269999742507935,-2.2324976153566465
561.413793,,0.04794451625887386,561.259,0.6230000257492065,-2.241314602307119
561.87931,,0.040844033582691286,561.725,0.6449999809265137,-2.1935311733532457
562.344828,,0.0321805241653032,562.19,0.6570000052452087,-2.1675723231104587
562.8103450000001,,0.026227898508347447,562.656,0.6349999904632568,-2.2157191959498745
563.275862,,0.023548740360567085,563.119,0.6190000176429749,-2.250819372346562
563.7413789999999,,0.0213929155916523,563.581,0.6539999842643738,-2.174826284325891
564.206897,,0.016166684176973384,564.048,0.6309999823570251,-2.2252034658858717
564.672414,,0.0060883914291674,564.51,0.6539999842643738,-2.1753625634257845
565.137931,,0.0073732159673896135,564.978,0.6200000047683716,-2.2496960297890665
565.603448,,0.020082268122576807,565.44,0.597000002861023,-2.300048822350085
566.068966,,0.027888220455291976,565.906,0.6460000276565552,-2.1935160810816847
566.534483,,0.02971477399199182,566.37,0.6169999837875366,-2.256887547343957
567.0,,0.0280216890800659,566.835,0.6370000243186951,-2.2134682413333633
567.465517,,0.025662860891201924,567.3,0.6449999809265137,-2.1961509978361202
567.931034,,0.022719999353644334,567.766,0.6620000004768372,-2.1591794707849403
568.396552,,0.017439346355674432,568.231,0.5960000157356262,-2.3029881210752348
568.862069,,0.010023780395460376,568.696,0.6169999837875366,-2.257208127639133
569.327586,,0.0038093498983939227,569.163,0.5929999947547913,-2.309423051845757
569.793103,,0.0015881842211450856,569.629,0.5989999771118164,-2.2962372722569304
570.2586210000001,,0.0017724760817569418,570.096,0.6060000061988831,-2.280835319904073
570.724138,,9.796378112720525e-05,570.559,0.5040000081062317,-2.5028751946668115
571.189655,,0.004729802626412292,571.022,0.5249999761581421,-2.4569193315058278
571.655172,,0.008879283046304181,571.485,0.5879999995231628,-2.3194443162271425
572.12069,,0.00788216015742974,571.952,0.6050000190734863,-2.2821748988451147
572.586207,,0.0022221516740030135,572.415,0.5540000200271606,-2.393047374074194
573.051724,,0.002828211148936669,572.88,0.6100000143051147,-2.270805620174594
573.517241,,0.002676196434762388,573.346,0.5989999771118164,-2.2945406133445174
573.982759,,0.002319253691204939,573.811,0.5920000076293945,-2.3095741904082017
574.4482760000001,,0.007946039025871656,574.278,0.6159999966621399,-2.257089335446795
574.913793,,0.010205053288109642,574.744,0.5929999947547913,-2.3070259244640963
575.37931,,0.007871070792405097,575.207,0.5889999866485596,-2.3155985890091912
575.844828,,0.0025708804404902244,575.673,0.5809999704360962,-2.3329210662722875
576.310345,,0.0020816257764956925,576.137,0.6119999885559082,-2.265314164498216
576.775862,,0.0018749151937862223,576.607,0.5709999799728394,-2.3546097397874988
577.241379,,0.0057687701553345875,577.067,0.5669999718666077,-2.3633367316512257
577.706897,,0.019909571111383736,577.537,0.5789999961853027,-2.337246893743568
578.172414,,0.0364827076099209,577.997,0.5669999718666077,-2.3634844584680197
578.6379310000001,,0.0510995563283883,578.467,0.6079999804496765,-2.2742897541689446
579.1034480000001,,0.061792727997538904,578.925,0.5960000157356262,-2.300594499288208
579.5689659999999,,0.06877055049106097,579.395,0.5960000157356262,-2.300781399046575
580.034483,,0.07143642486638309,579.861,0.5979999899864197,-2.2966314886558474
580.5,,0.06664817333914938,580.326,0.6079999804496765,-2.275066344614161
580.965517,,0.05100850350892425,580.792,0.5669999718666077,-2.3646201304077166
581.431034,,0.024710479973328356,581.251,0.5920000076293945,-2.3103849549192232
581.896552,,0.007842611070165467,581.717,0.5830000042915344,-2.3302191708384874
582.362069,,0.04143564974588829,582.182,0.5929999947547913,-2.308647382768589
582.827586,,0.07293115273543273,582.648,0.5830000042915344,-2.330630606628985
583.2931030000001,,0.09993189756801302,583.111,0.6019999980926514,-2.2894092549242218
583.758621,,0.11823450732117095,583.581,0.5809999704360962,-2.3353050454016184
584.2241379999999,,0.12356924230769593,584.041,0.5889999866485596,-2.317987227120262
584.689655,,0.11614882745033592,584.511,0.5709999799728394,-2.357278960280418
585.155172,,0.1011280906476281,584.974,0.6399999856948853,-2.206989946839815
585.6206900000001,,0.0839206366248745,585.436,0.5929999947547913,-2.3093836806228336
586.0862070000001,,0.06684101998070359,585.902,0.5799999833106995,-2.337663815671397
586.551724,,0.05049622540114823,586.367,0.5529999732971191,-2.3964087926619597
587.017241,,0.03589464835778382,586.832,0.5889999866485596,-2.3178656286251162
587.482759,,0.02356163340861174,587.296,0.5730000138282776,-2.352581848046585
587.948276,,0.012031942275255813,587.761,0.5929999947547913,-2.308840218327301
588.4137929999999,,0.0005291185243646709,588.226,0.5789999961853027,-2.339150808482976
588.87931,,0.012991526747764789,588.691,0.5830000042915344,-2.330229520977419
589.344828,,0.021074549898677436,589.156,0.5839999914169312,-2.327834139142932
589.810345,,0.02148476973450233,589.621,0.5709999799728394,-2.3559361410414628
590.2758620000001,,0.015858185845378615,590.089,0.5929999947547913,-2.3077880420950923
590.741379,,0.009947120846116738,590.552,0.5669999718666077,-2.3642239886966308
591.2068969999999,,0.008784268524286872,591.015,0.6060000061988831,-2.279062173413517
591.672414,,0.012775670482793561,591.485,0.5820000171661377,-2.331174843714831
592.137931,,0.018525648000615267,591.951,0.5799999833106995,-2.3353819965860203
592.603448,,0.022968779194164363,592.415,0.5400000214576721,-2.422407818343967
593.068966,,0.025855210891115064,592.88,0.5889999866485596,-2.315568099213689
593.534483,,0.028392800686081326,593.345,0.5839999914169312,-2.3264107249387735
594.0,,0.031077747133765578,593.811,0.5920000076293945,-2.3089666272188203
594.4655170000001,,0.0336482263150814,594.271,0.5920000076293945,-2.308987533316179
594.9310340000001,,0.035762945121534315,594.738,0.5669999718666077,-2.363510082462791
595.3965519999999,,0.036450228751130825,595.205,0.5680000185966492,-2.361422073969422
595.862069,,0.03387576012829549,595.67,0.5849999785423279,-2.324507745401509
596.327586,,0.02730887881822327,596.13,0.593999981880188,-2.3050499245585785
596.793103,,0.01935033841027948,596.6,0.5730000138282776,-2.3509742600136425
597.2586210000001,,0.014977376616095517,597.063,0.6010000109672546,-2.2901626766824426
597.724138,,0.017411912947100046,597.525,0.574999988079071,-2.347010357800369
598.189655,,0.02475571697350602,597.993,0.5740000009536743,-2.3493985657626695
598.655172,,0.031047176430576796,598.456,0.5770000219345093,-2.343073500135373
599.12069,,0.031167056676962533,598.922,0.6019999980926514,-2.2888130412223595
599.586207,,0.025156784462335515,599.385,0.5860000252723694,-2.3238653772544735
600.0517239999999,,0.01789214568766235,599.85,0.5709999799728394,-2.3567224838708047
600.517241,,0.014506549845385278,600.315,0.574999988079071,-2.3481642530248066
600.982759,,0.01614721266474919,600.781,0.6039999723434448,-2.285114209491929
601.448276,,0.019922956855951957,601.249,0.6190000176429749,-2.2525344516916905
601.913793,,0.022055141709525685,601.714,0.5860000252723694,-2.32449610491965
602.37931,,0.020516257489362616,602.178,0.5350000262260437,-2.4356398690463332
602.844828,,0.015618796896731587,602.643,0.5889999866485596,-2.3179927593282676
603.310345,,0.009467853571303673,603.111,0.5929999947547913,-2.3092442308182175
603.775862,,0.004712176806463708,603.573,0.5649999976158142,-2.37017915675184
604.2413789999999,,0.002650841616498828,604.041,0.5759999752044678,-2.346116257394619
604.706897,,0.002135245481206409,604.503,0.6019999980926514,-2.28934541942765
605.172414,,0.0008215303359920022,604.971,0.5419999957084656,-2.41991390993381
605.637931,,0.0021096212976303686,605.433,0.5789999961853027,-2.339134182141135
606.1034480000001,,0.004754284448949542,605.899,0.5799999833106995,-2.3367710838741993
606.5689659999999,,0.0046234787122611575,606.363,0.5630000233650208,-2.3736134850727524
607.0344829999999,,0.0019312488671402992,606.829,0.5950000286102295,-2.303697459994686
607.5,,0.00030755280868139745,607.293,0.6050000190734863,-2.281711467431279
607.965517,,3.516332069241311e-05,607.759,0.5669999718666077,-2.364305668788598
608.431034,,0.0016195811340101937,608.226,0.5929999947547913,-2.30747724297559
608.896552,,0.0020110851167917877,608.685,0.5889999866485596,-2.3160243323353518
609.362069,,0.0018702402911021485,609.156,0.5849999785423279,-2.3245917816781243
609.827586,,0.004695898363438651,609.621,0.5669999718666077,-2.363685345714812
610.293103,,0.011666969228587665,610.082,0.597000002861023,-2.298232299453267
610.758621,,0.018503831624260437,610.545,0.5860000252723694,-2.3221345729806533
611.2241379999999,,0.019584742233464875,611.015,0.5759999752044678,-2.343890867233212
611.689655,,0.014943594961794517,611.477,0.5009999871253967,-2.5072946216369205
612.155172,,0.011184987998870011,611.943,0.5659999847412109,-2.3657245522233565
612.62069,,0.014527264946482165,612.407,0.6240000128746033,-2.239438625382736
613.0862070000001,,0.02374862452046632,612.873,0.546999990940094,-2.4072999405333007
613.551724,,0.030960436473102055,613.338,0.5540000200271606,-2.3921827263492053
614.017241,,0.029544295240929663,613.803,0.5709999799728394,-2.3553043157894886
614.4827590000001,,0.020943792970757415,614.27,0.5540000200271606,-2.392519926709425
614.948276,,0.01305006273227647,614.736,0.5799999833106995,-2.3360685785505506
615.4137929999999,,0.011987425950921785,615.201,0.5669999718666077,-2.364593284569443
615.8793099999999,,0.016433728491634842,615.667,0.5789999961853027,-2.338654412717656
616.344828,,0.020157392343527897,616.13,0.5649999976158142,-2.369357362140395
616.810345,,0.018686031528413576,616.592,0.5680000185966492,-2.3630145736202266
617.275862,,0.012595927275848995,617.06,0.5669999718666077,-2.3653725011925064
617.741379,,0.005607993260586627,617.522,0.5239999890327454,-2.4592151757369693
618.206897,,0.0012668756589973773,617.985,0.5669999718666077,-2.3656718924196225
618.672414,,0.0011495884960863424,618.455,0.5519999861717224,-2.3984634217217726
619.137931,,0.004182721593113481,618.921,0.5429999828338623,-2.4181529230090706
619.603448,,0.0066972833265282515,619.384,0.550000011920929,-2.4029517931836115
620.068966,,0.004750254878190811,619.85,0.5339999794960022,-2.4378261572947952
620.534483,,0.00188083079281693,620.315,0.5239999890327454,-2.4595949302219826
621.0,,0.008784347850933178,620.781,0.5669999718666077,-2.3658618402531246
621.465517,,0.01142319001790941,621.241,0.5389999747276306,-2.4267795381800044
621.9310340000001,,0.0097953328327962,621.707,0.5669999718666077,-2.3656614410414916
622.396552,,0.00719476450533388,622.171,0.5419999957084656,-2.4199832029794415
622.862069,,0.005284025380404761,622.637,0.5339999794960022,-2.4372439437595106
623.327586,,0.002604099907834579,623.1,0.5339999794960022,-2.4370567226304205
623.793103,,0.0018579968888779736,623.569,0.550000011920929,-2.4019972794920212
624.258621,,0.005776985440176798,624.03,0.5329999923706055,-2.4388248649100097
624.724138,,0.0058178999277838424,624.5,0.5649999976158142,-2.368895629321355
625.189655,,0.0022596801685315754,624.96,0.5339999794960022,-2.436224049194287
625.655172,,0.0003192521790613117,625.429,0.5419999957084656,-2.4185941341248554
626.1206900000001,,0.002330763374907357,625.895,0.515999972820282,-2.4750539498879105
626.5862070000001,,0.009206163603168992,626.36,0.6230000257492065,-2.2417729854692667
627.0517239999999,,0.014353021339357754,626.826,0.515999972820282,-2.4747462569613803
627.5172409999999,,0.012482394576650254,627.285,0.5419999957084656,-2.4179878977190907
627.982759,,0.004285423122935788,627.751,0.5090000033378601,-2.4898039417855484
628.448276,,0.004100553601215744,628.215,0.5210000276565552,-2.463617888179105
628.913793,,0.006727232264334965,628.68,0.5170000195503235,-2.47232916806616
629.37931,,0.00261423578743879,629.153,0.5400000214576721,-2.4222555919427444
629.844828,,0.0042153655907548595,629.611,0.5370000004768372,-2.4288640968892503
630.3103450000001,,0.008110340790458678,630.081,0.5210000276565552,-2.46383017302638
630.7758620000001,,0.005703426019419693,630.544,0.5289999842643738,-2.4465416341704453
631.2413789999999,,0.001586707898558752,631.011,0.5249999761581421,-2.455425787474892
631.706897,,0.00833327718505842,631.474,0.5019999742507935,-2.5057288802822684
632.172414,,0.009586158599532234,631.94,0.49300000071525574,-2.5255509775126512
632.637931,,0.005510974642732974,632.403,0.5230000019073486,-2.460419926768115
633.103448,,0.0011638209774158291,632.869,0.5139999985694885,-2.4802627839799176
633.568966,,0.00108096452801802,633.333,0.5440000295639038,-2.4151370188928523
634.034483,,0.004591049497888641,633.799,0.5170000195503235,-2.4741856447674815
634.5,,0.007393702177433983,634.264,0.5099999904632568,-2.4896464005404337
634.9655170000001,,0.007218012944471852,634.729,0.5139999985694885,-2.481121296672345
635.431034,,0.006051505285314863,635.196,0.5170000195503235,-2.474748254950319
635.8965519999999,,0.006407703695245882,635.655,0.515999972820282,-2.477058120562985
636.362069,,0.0075032513293734155,636.123,0.5130000114440918,-2.483689096018614
636.827586,,0.00672269325570058,636.585,0.515999972820282,-2.4772092529546423
637.293103,,0.0037309536067960886,637.055,0.5139999985694885,-2.48158138197248
637.7586210000001,,0.0012523376300305337,637.518,0.5230000019073486,-2.4619463233924925
638.224138,,0.0017667678035319168,637.986,0.5090000033378601,-2.492378514486901
638.689655,,0.004749340107945361,638.449,0.5460000038146973,-2.4116592768151093
639.155172,,0.007562330619173085,638.914,0.515999972820282,-2.4768716690727812
639.62069,,0.008048822797481137,639.38,0.5299999713897705,-2.446189797610134
640.086207,,0.005714058179944758,639.846,0.5199999809265137,-2.467767281709266
640.551724,,0.0015113586159270563,640.311,0.5339999794960022,-2.437034970692274
641.017241,,0.0023851715279328374,640.776,0.515999972820282,-2.476004061553233
641.482759,,0.003359584355328624,641.241,0.5080000162124634,-2.493179112765986
641.9482760000001,,0.0005105419953848045,641.707,0.5339999794960022,-2.4362806433593156
642.413793,,0.0037418193581137548,642.171,0.5130000114440918,-2.4817861966841215
642.87931,,0.005384696996773923,642.636,0.5189999938011169,-2.4684837136391997
643.344828,,0.0029674151967010176,643.1,0.5080000162124634,-2.4922410687269916
643.810345,,0.0005001224403555598,643.563,0.5249999761581421,-2.455025728501178
644.275862,,0.0007360580896051201,644.026,0.5299999713897705,-2.4439885514854773
644.7413789999999,,0.0028218344905450604,644.496,0.5170000195503235,-2.4722057591312487
645.206897,,0.006150427705694151,644.956,0.5009999871253967,-2.5070020882725115
645.672414,,0.0051337531725377,645.426,0.4749999940395355,-2.56363135220619
646.1379310000001,,0.0003241565327603124,645.892,0.5180000066757202,-2.4699815602396242
646.6034480000001,,0.0034307820195050003,646.352,0.5040000081062317,-2.500560948323139
647.0689659999999,,0.002098001550204652,646.817,0.5270000100135803,-2.4505735680546747
647.534483,,0.003408716548426458,647.286,0.5180000066757202,-2.4703422792303575
648.0,,0.008638383505840317,647.752,0.5210000276565552,-2.4640015733514478
648.465517,,0.010535358203299735,648.212,0.5370000004768372,-2.429366928737864
648.931034,,0.009801383469891817,648.677,0.5189999938011169,-2.468827731542694
649.396552,,0.008368675987002507,649.14,0.503000020980835,-2.5039459336502263
649.862069,,0.006175188064120182,649.611,0.5370000004768372,-2.4301390507394482
650.327586,,0.0018909644507312938,650.074,0.5339999794960022,-2.436940489299597
650.7931030000001,,0.003686349328881043,650.537,0.49900001287460327,-2.51344898820769
651.258621,,0.0069335539509936105,651.0,0.527999997138977,-2.450507509618645
651.7241379999999,,0.005234907544960932,651.47,0.5180000066757202,-2.4725092176056904
652.189655,,0.000611976641645482,651.935,0.5130000114440918,-2.4835869248341114
652.655172,,0.001909962978673442,652.398,0.5149999856948853,-2.47937801138453
653.12069,,0.0004137546203901925,652.864,0.5429999828338623,-2.4184828637719296
653.5862070000001,,0.005230449011082828,653.33,0.5130000114440918,-2.4839040507567915
654.051724,,0.0076741191161847355,653.795,0.5,-2.5122418209513824
654.517241,,0.005314187858361125,654.259,0.5540000200271606,-2.3945629301665123
654.982759,,0.00042207231229056733,654.725,0.5199999809265137,-2.468557820222265
655.448276,,0.0024429750687668594,655.19,0.5170000195503235,-2.47496946772101
655.9137929999999,,0.000790807461468417,655.656,0.5210000276565552,-2.466089964928286
656.37931,,0.0039424051870665215,656.118,0.5170000195503235,-2.474603845509176
656.844828,,0.00827833270143446,656.581,0.5419999957084656,-2.419906640588959
657.310345,,0.009539422143591393,657.045,0.5170000195503235,-2.474118004619187
657.7758620000001,,0.006982039112382935,657.515,0.5189999938011169,-2.4694902489571113
658.241379,,0.0015586834963266531,657.978,0.5199999809265137,-2.467033962227205
658.7068969999999,,0.00430800744893197,658.44,0.515999972820282,-2.475472174054681
659.172414,,0.007415785991809033,658.906,0.515999972820282,-2.4752055666239885
659.637931,,0.006117933323672849,659.37,0.5260000228881836,-2.4531701673225372
660.103448,,0.0025416553879688353,659.836,0.5149999856948853,-2.476911843473381
660.568966,,0.0009551016050289138,660.301,0.5149999856948853,-2.476720642870795
661.034483,,0.0029594556898171055,660.766,0.515999972820282,-2.4743892608289118
661.5,,0.005698511609047048,661.23,0.5090000033378601,-2.489530261392768
661.965517,,0.005940241023515166,661.696,0.5149999856948853,-2.4763957803988994
662.4310340000001,,0.004253859648855625,662.163,0.5139999985694885,-2.47856057014744
662.8965519999999,,0.0032345686100307258,662.629,0.5270000100135803,-2.450273276569758
663.362069,,0.00281122829597631,663.097,0.5249999761581421,-2.4547134354266626
663.827586,,0.00011344628530692161,663.559,0.515999972820282,-2.4744492945556154
664.293103,,0.005590306342177065,664.026,0.5170000195503235,-2.4724403701118867
664.7586210000001,,0.01035108692083507,664.489,0.5339999794960022,-2.435609842910012
665.224138,,0.009944277589032841,664.959,0.49799999594688416,-2.5142780646021103
665.689655,,0.005584947190332947,665.422,0.5210000276565552,-2.464429919916914
666.155172,,0.0027003474060093503,665.88,0.5170000195503235,-2.4734214044735383
666.62069,,0.004129959264031148,666.345,0.5239999890327454,-2.4584550349425367
667.086207,,0.007030305942108313,666.81,0.5099999904632568,-2.489238938975354
667.5517239999999,,0.00714931829319378,667.275,0.5049999952316284,-2.5004055982066142
668.017241,,0.003919052181717154,667.741,0.5210000276565552,-2.465802976212592
668.482759,,0.00010216486181036388,668.207,0.5270000100135803,-2.452960903358776
668.948276,,0.003245071923257805,668.673,0.5210000276565552,-2.466229001852477
669.413793,,0.006007597991677074,669.137,0.5210000276565552,-2.4663857454501805
669.87931,,0.008664407926686879,669.6,0.5419999957084656,-2.4207462735540606
670.3448279999999,,0.00997199706315776,670.071,0.5210000276565552,-2.4665613763367045
670.810345,,0.00937039899813706,670.533,0.5040000081062317,-2.503612133119471
671.275862,,0.00882963712560366,671.001,0.5090000033378601,-2.492683146027616
671.7413789999999,,0.01056045013682981,671.463,0.5339999794960022,-2.4381324292332986
672.206897,,0.013340365187916122,671.929,0.5099999904632568,-2.4902885334202844
672.672414,,0.013132419338897163,672.391,0.5239999890327454,-2.4596131301385102
673.137931,,0.008206278443940958,672.857,0.515999972820282,-2.476830449208326
673.6034480000001,,0.0023126380937098633,673.322,0.5210000276565552,-2.4656938723057196
674.068966,,0.0009717140750682597,673.788,0.5120000243186951,-2.485034654488261
674.5344829999999,,0.00475165943655712,674.252,0.5249999761581421,-2.45642944586959
675.0,,0.008155552119726251,674.717,0.5170000195503235,-2.473568246262261
675.465517,,0.005925797501836407,675.182,0.5170000195503235,-2.473279373319846
675.931034,,0.001292153160438106,675.647,0.5210000276565552,-2.464286160531207
676.396552,,0.008962556691423049,676.115,0.5419999957084656,-2.4182742140974245
676.862069,,0.014817442844395769,676.577,0.5080000162124634,-2.492113818926222
677.327586,,0.02053317268258401,677.041,0.515999972820282,-2.474484197979101
677.793103,,0.027270246530676685,677.511,0.5130000114440918,-2.480860039677611
678.2586210000001,,0.03214208118396925,677.971,0.515999972820282,-2.4742095369236066
678.7241379999999,,0.0312113492191527,678.441,0.5230000019073486,-2.458893084218222
