Trial: ,31
Threshold: ,0.0
Maximum EMG: ,0.0
Success: ,True

EMG Time,Raw EMG,Filtered EMG,Force Time,Raw Force (V),Filtered Force (N)
0.0,samples,0.0,0.466,0.5789999961853027,-2.3402590611027407
0.46551699999999996,time,0.0,0.933,0.5429999828338623,-2.4183003018633706
0.9310339999999999,value,0.0,1.399,0.5720000267028809,-2.3546899846052267
1.396552,,0.0,1.864,0.578000009059906,-2.3411622568241235
1.862069,,0.0,2.33,0.5170000195503235,-2.4735919382041858
2.327586,,0.0,2.792,0.5329999923706055,-2.4382699625883015
2.793103,,0.0,3.255,0.5910000205039978,-2.3114625092297887
3.258621,,0.0,3.719,0.5540000200271606,-2.391656516130851
3.724138,,0.0,4.189,0.5619999766349792,-2.37385392787512
4.189654999999999,,0.0,4.654,0.5920000076293945,-2.3081745942590963
4.655172,,0.0,5.118,0.5669999718666077,-2.362383702673771
5.12069,,0.0,5.584,0.5490000247955322,-2.4014131658145996
5.586207,,0.0,6.048,0.5659999847412109,-2.3642676428032456
6.051723999999999,,0.0,6.513,0.578000009059906,-2.338095466159756
6.517241,,0.0,6.978,0.5540000200271606,-2.3904353848754365
6.982759,,0.0,7.444,0.5989999771118164,-2.292527461046578
7.448276,,0.0,7.911,0.5540000200271606,-2.3907721449467965
7.913793000000001,,0.0,8.369,0.5989999771118164,-2.2930066219962915
8.379309999999998,,0.0,8.837,0.5630000233650208,-2.371770988192128
8.844828000000001,,0.0,9.299,0.5529999732971191,-2.3939407120125833
9.310345,,0.0,9.767,0.5669999718666077,-2.363861886693614
9.775862,,0.0,10.229,0.5419999957084656,-2.418776714920019
10.241379,,0.0,10.7,0.550000011920929,-2.4018093407128878
10.706897,,0.0,11.162,0.5529999732971191,-2.39573450749534
11.172414,,0.0,11.628,0.574999988079071,-2.348249572271587
11.637931,,0.0,12.092,0.574999988079071,-2.348664735019278
12.103447999999998,,0.0,12.557,0.5709999799728394,-2.3577512056452115
12.568966000000001,,0.0,13.022,0.5669999718666077,-2.3667831889145234
13.034483,,0.0,13.488,0.5789999961853027,-2.3408925070885522
13.5,,0.0,13.955,0.656000018119812,-2.173315878173579
13.965517,,0.0,14.414,0.5540000200271606,-2.3956371541097226
14.431034,,0.0,14.879,0.5649999976158142,-2.3716900875463773
14.896552,,0.0,15.344,0.5509999990463257,-2.4021295926518005
15.362069,,0.0,15.815,0.5669999718666077,-2.3671321755927774
15.827586000000002,,0.0,16.277,0.5529999732971191,-2.3974210111687313
16.293103,,0.0,16.745,0.5540000200271606,-2.39496367507808
16.758621,,0.0,17.208,0.5680000185966492,-2.36412623875874
17.224138,,0.0,17.67,0.5519999861717224,-2.3986006669530235
17.689655,,0.0,18.14,0.5989999771118164,-2.2957836675975956
18.155172,,0.0,18.606,0.5540000200271606,-2.3933780341787436
18.62069,,0.0,19.064,0.578000009059906,-2.3406354028072207
19.086207,,0.0,19.53,0.5699999928474426,-2.357613215749312
19.551724,,0.0,19.996,0.5929999947547913,-2.3070696990940145
20.017241000000002,,0.0,20.462,0.5789999961853027,-2.33716584250608
20.482758999999998,,0.0,20.926,0.5799999833106995,-2.3346243543545047
20.948276,,0.0,21.391,0.5379999876022339,-2.425818926492416
21.413793000000002,,0.0,21.864,0.5490000247955322,-2.4016099711419483
21.87931,,0.0,22.322,0.5389999747276306,-2.423225746886086
22.344828,,0.0,22.785,0.5830000042915344,-2.3272716433236185
22.810344999999998,,0.0,23.255,0.5109999775886536,-2.4841209062255816
23.275862,,0.0,23.719,0.5519999861717224,-2.3948639743178535
23.741379,,0.0,24.181,0.5540000200271606,-2.390652998166607
24.206897,,0.0,24.647,0.597000002861023,-2.2971897805462445
24.672414,,0.0,25.11,0.5820000171661377,-2.3301520754505423
25.137931,,0.0,25.575,0.5839999914169312,-2.326132196181902
25.603448,,0.0,26.04,0.5440000295639038,-2.413660706941283
26.068966,,0.0,26.506,0.5659999847412109,-2.366147656754006
26.534483,,0.0,26.97,0.5180000066757202,-2.4711624147334725
27.0,,0.0,27.436,0.5690000057220459,-2.3605003729166136
27.465517,,0.0,27.903,0.5630000233650208,-2.3740160180634295
27.931034,,0.0,28.369,0.5690000057220459,-2.3613682031133525
28.396552,,0.0,28.83,0.5659999847412109,-2.3682954588087095
28.862069,,0.0,29.299,0.5680000185966492,-2.364284604726734
29.327586,,0.0,29.759,0.5920000076293945,-2.3122878439200263
29.793103000000002,,0.0,30.229,0.5669999718666077,-2.366980014713337
30.258620999999998,,0.0,30.689,0.5899999737739563,-2.317025367533741
30.724138,,0.0,31.159,0.5419999957084656,-2.4216792589451317
31.189655000000002,,0.0,31.625,0.5509999990463257,-2.402073764618329
31.655172000000004,,0.0,32.084,0.5799999833106995,-2.338819153470364
32.12069,,0.0,32.549,0.5630000233650208,-2.375707716698686
32.586207,,0.0,33.016,0.5720000267028809,-2.35588165327867
33.051724,,0.0,33.481,0.5630000233650208,-2.3752085596524934
33.517241000000006,,0.0,33.948,0.5519999861717224,-2.3988393258110072
33.982759,,0.0,34.413,0.6140000224113464,-2.2633848915336574
34.448276,,0.0,34.878,0.5830000042915344,-2.3305115325301324
34.913793,,0.0,35.344,0.5440000295639038,-2.415047367457821
35.37931,,0.0,35.807,0.5419999957084656,-2.4189688586308247
35.844828,,0.0,36.27,0.5879999995231628,-2.318324036801982
36.310345,,0.0,36.741,0.5830000042915344,-2.3288107544044405
36.775862,,0.0,37.203,0.47200000286102295,-2.570268555863392
37.241378999999995,,0.0,37.667,0.5640000104904175,-2.369508607970039
37.706897000000005,,0.0,38.129,0.5730000138282776,-2.3496327690417083
38.172414,,0.0,38.595,0.5619999766349792,-2.3733922302909467
38.637931,,0.0,39.059,0.574999988079071,-2.344932158177678
39.103448,,0.0,39.525,0.5669999718666077,-2.3622956289395205
39.568965999999996,,0.0,39.99,0.5519999861717224,-2.3949833875481037
40.034483,,0.0,40.456,0.5830000042915344,-2.3275265808728016
40.5,,0.0,40.923,0.5720000267028809,-2.351642802972894
40.965517,,0.0,41.389,0.5920000076293945,-2.30828525792074
41.431034,,0.0,41.852,0.6029999852180481,-2.2845922269094214
41.896552,,0.0,42.315,0.6000000238418579,-2.2914475942452412
42.362069000000005,,0.0,42.785,0.5519999861717224,-2.3963807669049433
42.827586000000004,,0.0,43.248,0.5809999704360962,-2.333586735369961
43.293103,,0.0,43.711,0.5419999957084656,-2.41895842237858
43.758621,,0.0,44.174,0.5669999718666077,-2.3649025555087664
44.224138,,0.0,44.639,0.5720000267028809,-2.3544127171836755
44.689655,,0.0,45.11,0.5709999799728394,-2.3569754311954285
45.155172,,0.0,45.575,0.5640000104904175,-2.3725788717998193
45.620689999999996,,0.0,46.034,0.5540000200271606,-2.394677235503985
46.086206999999995,,0.0,46.499,0.550000011920929,-2.4036539741157315
46.551724,,0.0,46.967,0.5669999718666077,-2.366821623111458
47.017241,,0.0,47.433,0.5429999828338623,-2.4192500956988465
47.482759,,0.0,47.897,0.550000011920929,-2.4040730329202966
47.948276,,0.0,48.363,0.6019999980926514,-2.290786569823494
48.413793,,0.0,48.826,0.574999988079071,-2.3495415349909887
48.879310000000004,,0.0,49.296,0.5839999914169312,-2.3297953158310323
49.344828,,0.0,49.759,0.5709999799728394,-2.357914388239966
49.810345,,0.0,50.222,0.5540000200271606,-2.3946898901543463
50.275862,,0.0,50.685,0.5690000057220459,-2.36169936108876
50.741379,,0.0,51.155,0.5929999947547913,-2.309060466708361
51.206897,,0.0,51.621,0.5450000166893005,-2.4132542129478702
51.672414,,0.0,52.084,0.5630000233650208,-2.373639779330757
52.137931,,0.0,52.55,0.5529999732971191,-2.3950228403064897
52.603448,,0.0,53.014,0.5669999718666077,-2.3641254160681746
53.068966,,0.0,53.48,0.5950000286102295,-2.3027450860611065
53.534483,,0.0,53.945,0.5789999961853027,-2.337254209267589
54.0,,0.0,54.404,0.5680000185966492,-2.360909470512454
54.465517,,0.0,54.87,0.5699999928474426,-2.356291911483056
54.931034,,0.0,55.336,0.5839999914169312,-2.325587719274552
55.396552,,0.0,55.804,0.5699999928474426,-2.355948697388456
55.862069,,0.0,56.266,0.5460000038146973,-2.408164034479921
56.327586,,0.0,56.73,0.5720000267028809,-2.351517550841216
56.793102999999995,,0.0,57.199,0.5440000295639038,-2.412588770411946
57.258621000000005,,0.0,57.667,0.5460000038146973,-2.408369462096407
57.724138,,0.0,58.129,0.6039999723434448,-2.2822096968480183
58.189655,,0.0,58.595,0.5659999847412109,-2.3652562416243605
58.655172,,0.0,59.059,0.6010000109672546,-2.2893091425700414
59.120689999999996,,0.0,59.524,0.5529999732971191,-2.3942287697473565
59.586207,,0.0,59.989,0.5630000233650208,-2.3728156942405607
60.051724,,0.0,60.455,0.5680000185966492,-2.362314184165304
60.517241,,0.0,60.918,0.5929999947547913,-2.3082451716990837
60.982758999999994,,0.0,61.384,0.5770000219345093,-2.343493327425853
61.448276,,0.0,61.844,0.546999990940094,-2.409224273312991
61.913793,,0.0,62.314,0.5680000185966492,-2.363815393221954
62.379310000000004,,0.0,62.774,0.5920000076293945,-2.311831068142593
62.84482800000001,,0.0,63.244,0.5759999752044678,-2.3469430814829946
63.310345000000005,,0.0,63.707,0.5540000200271606,-2.3950701436390522
63.775862000000004,,0.0,64.17,0.5789999961853027,-2.3407389948786754
64.241379,,0.0,64.636,0.5630000233650208,-2.375666333936334
64.706897,,0.0,65.106,0.5680000185966492,-2.3647741760534466
65.172414,,0.0,65.564,0.5669999718666077,-2.366886304827929
65.637931,,0.0,66.032,0.5820000171661377,-2.33407394811376
66.103448,,0.0,66.498,0.546999990940094,-2.4101325511394855
66.56896599999999,,0.0,66.962,0.5540000200271606,-2.3946329834711944
67.03448300000001,,0.0,67.428,0.5920000076293945,-2.3115478762555575
67.5,,0.0,67.893,0.5630000233650208,-2.3743926945967044
67.965517,,0.0,68.359,0.5669999718666077,-2.3653132106043744
68.431034,,0.0,68.822,0.5669999718666077,-2.3649306333776328
68.896552,,0.0,69.284,0.5789999961853027,-2.3383978968747106
69.362069,,0.0,69.752,0.5799999833106995,-2.3358353380947707
69.827586,,0.0,70.214,0.5540000200271606,-2.39211296672081
70.293103,,0.0,70.685,0.5709999799728394,-2.3547373202560076
70.75862099999999,,0.0,71.147,0.5730000138282776,-2.3500797300545306
71.22413800000001,,0.0,71.613,0.5410000085830688,-2.4195439937791248
71.689655,,0.0,72.077,0.578000009059906,-2.3387371572536315
72.15517200000001,,0.0,72.543,0.574999988079071,-2.3451371526041997
72.62069,,0.0,73.007,0.5690000057220459,-2.3581373505171324
73.086207,,0.0,73.473,0.597000002861023,-2.297129673445952
73.551724,,0.0,73.94,0.5529999732971191,-2.3930509244854914
74.017241,,0.0,74.406,0.5659999847412109,-2.3648541944270054
74.482759,,0.0,74.864,0.4129999876022339,-2.6983777091026537
74.94827599999999,,0.0,75.33,0.5680000185966492,-2.3609383309172722
75.41379300000001,,0.0,75.8,0.5419999957084656,-2.4178853646360587
75.87931,,0.0,76.262,0.5759999752044678,-2.3441521396184517
76.344828,,0.0,76.73,0.5929999947547913,-2.3074827751929954
76.810345,,0.0,77.192,0.5659999847412109,-2.3666887383523685
77.275862,,0.0,77.658,0.5540000200271606,-2.3932186678932728
77.741379,,0.0,78.124,0.5860000252723694,-2.323880398984687
78.206897,,0.0,78.589,0.5669999718666077,-2.365633494080294
78.67241399999999,,0.0,79.055,0.5490000247955322,-2.405177402093322
79.137931,,0.0,79.521,0.550000011920929,-2.4032879253851402
79.603448,,0.0,79.985,0.574999988079071,-2.349062858943773
80.068966,,0.0,80.45,0.5260000228881836,-2.4560024588844014
80.53448300000001,,0.0,80.911,0.5630000233650208,-2.3755182477207892
81.0,,0.0,81.377,0.5659999847412109,-2.369043975703169
81.465517,,0.0,81.844,0.5519999861717224,-2.399540209818276
81.931034,,0.0,82.307,0.5680000185966492,-2.3646109826655373
82.396552,,0.0,82.774,0.550000011920929,-2.4036923717810716
82.86206899999999,,0.0,83.237,0.5809999704360962,-2.3359605850817395
83.327586,,0.0,83.7,0.5669999718666077,-2.366214041494072
83.79310299999999,,0.0,84.17,0.5709999799728394,-2.3572055582939497
84.258621,,0.0,84.636,0.5759999752044678,-2.3459814206480596
84.72413800000001,,0.0,85.099,0.5849999785423279,-2.326015521443525
85.189655,,0.0,85.565,0.5709999799728394,-2.35614239257513
85.65517200000001,,0.0,86.029,0.5669999718666077,-2.3644787000207557
86.12069,,0.0,86.495,0.5249999761581421,-2.4556125066055032
86.586207,,0.0,86.96,0.5669999718666077,-2.3637609334116165
87.051724,,0.0,87.425,0.5260000228881836,-2.4527689351954742
87.517241,,0.0,87.89,0.5789999961853027,-2.337025272921396
87.98275899999999,,0.0,88.355,0.5759999752044678,-2.343334284002685
88.448276,,0.0,88.818,0.5649999976158142,-2.367126823906797
88.913793,,0.0,89.281,0.5289999842643738,-2.4454463335380683
89.37931,,0.0,89.744,0.5540000200271606,-2.390933071474368
89.844828,,0.0,90.214,0.6019999980926514,-2.2863759276867226
90.310345,,0.0,90.678,0.5540000200271606,-2.391031711833258
90.775862,,0.0,91.14,0.5820000171661377,-2.3301705203937426
91.241379,,0.0,91.606,0.578000009059906,-2.3390817774089183
91.706897,,0.0,92.071,0.5669999718666077,-2.363292892879101
92.17241399999999,,0.0,92.536,0.550000011920929,-2.400618085577963
92.63793100000001,,0.0,93.004,0.5529999732971191,-2.394404629052476
93.103448,,0.0,93.469,0.5540000200271606,-2.3925726302616273
93.568966,,0.0,93.934,0.5540000200271606,-2.392932891509094
94.03448300000001,,0.0,94.4,0.5540000200271606,-2.3932955005668513
94.5,,0.0,94.866,0.5440000295639038,-2.4154359187631376
94.965517,,0.0,95.324,0.5730000138282776,-2.352589324586832
95.431034,,0.0,95.793,0.5540000200271606,-2.394287267699143
95.896552,,0.0,96.255,0.5540000200271606,-2.394551163819248
96.36206899999999,,0.0,96.719,0.5649999976158142,-2.370802328095537
96.827586,,0.0,97.189,0.5669999718666077,-2.3666066812764077
97.293103,,0.0,97.654,0.574999988079071,-2.349279097599102
97.758621,,0.0,98.118,0.5529999732971191,-2.397248210918197
98.224138,,0.0,98.584,0.574999988079071,-2.3492931040523244
98.689655,,0.0,99.048,0.5820000171661377,-2.3339545504662955
99.155172,,0.0,99.514,0.5820000171661377,-2.3338057306649618
99.62069,,0.0,99.974,0.574999988079071,-2.3488515137697137
100.086207,,0.0,100.44,0.5680000185966492,-2.3638481820868362
100.551724,,0.0,100.905,0.531000018119812,-2.444164641869655
101.017241,,0.0,101.37,0.574999988079071,-2.3479808593497795
101.482759,,0.0,101.841,0.5830000042915344,-2.3302077305184867
101.948276,,0.0,102.303,0.5730000138282776,-2.3516395541268325
102.413793,,0.0,102.767,0.5889999866485596,-2.3164268764454423
102.87931,,0.0,103.229,0.5820000171661377,-2.331334122989286
103.344828,,0.0,103.697,0.5540000200271606,-2.3920154105606692
103.810345,,0.0,104.16,0.5360000133514404,-2.4309441087348067
104.275862,,0.0,104.626,0.5699999928474426,-2.356626418845
104.741379,,0.0,105.091,0.5910000205039978,-2.310680548637528
105.206897,,0.0,105.557,0.5540000200271606,-2.391151036904531
105.672414,,0.0,106.022,0.5519999861717224,-2.3954287097774243
106.13793100000001,,0.0,106.488,0.5740000009536743,-2.3474811502014634
106.603448,,0.0,106.955,0.5759999752044678,-2.3431685761389938
107.068966,,0.0,107.414,0.5709999799728394,-2.354166339983143
107.534483,,0.0,107.885,0.5849999785423279,-2.3238260136142124
108.0,,0.0,108.344,0.5789999961853027,-2.337109298540088
108.46551699999999,,0.0,108.811,0.5860000252723694,-2.3221138312249177
108.931034,,0.0,109.281,0.5529999732971191,-2.3943005881045814
109.396552,,0.0,109.741,0.5789999961853027,-2.3379743842551095
109.862069,,0.0,110.211,0.5669999718666077,-2.364454311595364
110.32758600000001,,0.0,110.674,0.5640000104904175,-2.3713331038550742
110.793103,,0.0,111.137,0.5669999718666077,-2.365136580164316
111.258621,,0.0,111.603,0.550000011920929,-2.402498962564518
111.724138,,0.0,112.067,0.5630000233650208,-2.3744782266610565
112.189655,,0.0,112.533,0.5540000200271606,-2.394354712887069
112.655172,,0.0,113.0,0.5519999861717224,-2.3989394022127617
113.12069,,0.0,113.466,0.5879999995231628,-2.3206864997109213
113.586207,,0.0,113.93,0.5789999961853027,-2.3404173551065175
114.051724,,0.0,114.389,0.5950000286102295,-2.305622007571489
114.51724100000001,,0.0,114.863,0.5920000076293945,-2.312159005918393
114.982759,,0.0,115.321,0.5460000038146973,-2.412316613437487
115.448276,,0.0,115.789,0.5649999976158142,-2.370804287144963
115.913793,,0.0,116.251,0.5830000042915344,-2.331416563386806
116.37931,,0.0,116.715,0.5669999718666077,-2.3660538335105166
116.84482799999999,,0.0,117.184,0.5720000267028809,-2.354897400522657
117.310345,,0.0,117.65,0.5699999928474426,-2.358958393734996
117.77586199999999,,0.0,118.113,0.5540000200271606,-2.393496751194321
118.241379,,0.0,118.579,0.5540000200271606,-2.393163966367671
118.70689700000001,,0.0,119.044,0.5669999718666077,-2.36450657790785
119.172414,,0.0,119.51,0.5640000104904175,-2.370715191482876
119.63793100000001,,0.0,119.975,0.5479999780654907,-2.4052645805153254
120.103448,,0.0,120.44,0.5730000138282776,-2.3505171593105487
120.568966,,0.0,120.9,0.5540000200271606,-2.391666708354479
121.034483,,0.0,121.366,0.5540000200271606,-2.391466001550348
121.5,,0.0,121.83,0.5720000267028809,-2.35209974214745
121.96551699999999,,0.0,122.3,0.5809999704360962,-2.332395230705104
122.431034,,0.0,122.763,0.5450000166893005,-2.4107862524007935
122.896552,,0.0,123.225,0.5649999976158142,-2.3672314104554157
123.362069,,0.0,123.693,0.5669999718666077,-2.3629496803736765
123.827586,,0.0,124.155,0.5989999771118164,-2.293362147602188
124.293103,,0.0,124.621,0.5720000267028809,-2.35236357034864
124.758621,,0.0,125.084,0.5839999914169312,-2.3264410655548584
125.22413800000001,,0.0,125.55,0.5830000042915344,-2.3288771668076746
125.68965500000002,,0.0,126.015,0.5849999785423279,-2.3248053716514137
126.15517200000001,,0.0,126.48,0.5419999957084656,-2.418792529847643
126.62069000000001,,0.0,126.945,0.5649999976158142,-2.3690003868428704
127.086207,,0.0,127.41,0.5669999718666077,-2.364961558148362
127.55172400000001,,0.0,127.875,0.5649999976158142,-2.369628526069273
128.017241,,0.0,128.341,0.5540000200271606,-2.393885348719973
128.48275900000002,,0.0,128.804,0.5820000171661377,-2.333147857565517
128.948276,,0.0,129.273,0.5669999718666077,-2.3660566419932274
129.413793,,0.0,129.737,0.5799999833106995,-2.3379201944498
129.87931,,0.0,130.2,0.531000018119812,-2.4448120983338972
130.344828,,0.0,130.67,0.5699999928474426,-2.359931866344889
130.81034499999998,,0.0,131.133,0.5540000200271606,-2.394823270240352
131.275862,,0.0,131.599,0.6539999842643738,-2.1769346160575926
131.741379,,0.0,132.059,0.5540000200271606,-2.394718071926666
132.206897,,0.0,132.525,0.593999981880188,-2.307437064793601
132.67241399999997,,0.0,132.989,0.5889999866485596,-2.318146352167074
133.13793099999998,,0.0,133.454,0.5720000267028809,-2.354956251695715
133.60344800000001,,0.0,133.926,0.5789999961853027,-2.339443539337948
134.06896600000002,,0.0,134.384,0.5540000200271606,-2.3936212247260134
134.53448300000002,,0.0,134.852,0.5440000295639038,-2.4151031145006905
135.0,,0.0,135.315,0.5709999799728394,-2.355968970160734
135.465517,,0.0,135.785,0.5659999847412109,-2.3665543312858768
135.931034,,0.0,136.248,0.5669999718666077,-2.364079910817311
136.396552,,0.0,136.711,0.5690000057220459,-2.3594479661129966
136.862069,,0.0,137.174,0.5709999799728394,-2.3548456676872918
137.327586,,0.0,137.639,0.574999988079071,-2.345922784551011
137.793103,,0.0,138.109,0.5730000138282776,-2.350114676502898
138.258621,,0.0,138.574,0.5540000200271606,-2.3913918423749623
138.724138,,0.0,139.034,0.5230000019073486,-2.4588657662642275
139.189655,,0.0,139.499,0.5929999947547913,-2.3063509039201513
139.655172,,0.0,139.967,0.5989999771118164,-2.293322213120074
140.12069,,0.0,140.432,0.5630000233650208,-2.3718467057547645
140.586207,,0.0,140.896,0.593999981880188,-2.304449411925367
141.05172399999998,,0.0,141.362,0.5630000233650208,-2.372171185795646
141.51724099999998,,0.0,141.83,0.5889999866485596,-2.3157473058241105
141.982759,,0.0,142.292,0.5509999990463257,-2.398787358376612
142.44827600000002,,0.0,142.759,0.5460000038146973,-2.409955603721866
142.913793,,0.0,143.222,0.593999981880188,-2.305670469998095
143.37931,,0.0,143.685,0.5960000157356262,-2.3016072439186623
143.844828,,0.0,144.155,0.5490000247955322,-2.4042928254589446
144.310345,,0.0,144.621,0.550000011920929,-2.402391031727083
144.77586200000002,,0.0,145.084,0.5720000267028809,-2.3547172182485046
145.241379,,0.0,145.55,0.550000011920929,-2.402875423212977
145.706897,,0.0,146.014,0.550000011920929,-2.4030681555554105
146.172414,,0.0,146.48,0.5960000157356262,-2.3030015452535206
146.637931,,0.0,146.94,0.5540000200271606,-2.394609096304397
147.103448,,0.0,147.406,0.5640000104904175,-2.3728773904436236
147.568966,,0.0,147.87,0.5540000200271606,-2.3946681688698384
148.034483,,0.0,148.336,0.5960000157356262,-2.3031181878350075
148.5,,0.0,148.8,0.5540000200271606,-2.3945247103919307
148.965517,,0.0,149.27,0.5339999794960022,-2.437955369268885
149.43103399999998,,0.0,149.73,0.5879999995231628,-2.3201252689598957
149.89655199999999,,0.0,150.2,0.5759999752044678,-2.3460499012208578
150.362069,,0.0,150.659,0.5690000057220459,-2.361051430706322
150.82758600000003,,0.0,151.124,0.5419999957084656,-2.4196051172935986
151.293103,,0.0,151.589,0.5979999899864197,-2.2973185392976037
151.758621,,0.0,152.056,0.5630000233650208,-2.373284461206747
152.224138,,0.0,152.522,0.5199999809265137,-2.4666852481136807
152.68965500000002,,0.0,152.989,0.5759999752044678,-2.3444151272167155
153.155172,,0.0,153.455,0.5630000233650208,-2.3724942633162556
153.62069,,0.0,153.919,0.5690000057220459,-2.359208545554588
154.086207,,0.0,154.385,0.5929999947547913,-2.3067425413747173
154.551724,,0.0,154.848,0.5759999752044678,-2.3436413053634446
155.017241,,0.0,155.31,0.5759999752044678,-2.3435474929453854
155.482759,,0.0,155.774,0.5799999833106995,-2.3347866395885033
155.948276,,0.0,156.244,0.5680000185966492,-2.3609331331797456
156.413793,,0.0,156.704,0.5419999957084656,-2.4176305857853073
156.87931,,0.0,157.174,0.5770000219345093,-2.3414789283479243
157.34482799999998,,0.0,157.639,0.5669999718666077,-2.3634114067383756
157.81034499999998,,0.0,158.102,0.5830000042915344,-2.3287383997387927
158.275862,,0.0,158.568,0.5709999799728394,-2.3551012731441356
158.741379,,0.0,159.033,0.5540000200271606,-2.3923844714720905
159.20689700000003,,0.0,159.499,0.5669999718666077,-2.364328562383848
159.672414,,0.0,159.964,0.5690000057220459,-2.3602493005950427
160.137931,,0.0,160.429,0.5509999990463257,-2.3997461654320444
160.60344800000001,,0.0,160.889,0.5820000171661377,-2.3324835298458355
161.06896600000002,,0.0,161.354,0.5789999961853027,-2.339280086473563
161.534483,,0.0,161.822,0.5630000233650208,-2.374375761865417
162.0,,0.0,162.284,0.5540000200271606,-2.3941912293998664
162.465517,,0.0,162.755,0.5699999928474426,-2.3595047143109986
162.931034,,0.0,163.218,0.5519999861717224,-2.3988510233528335
163.396552,,0.0,163.682,0.5540000200271606,-2.3945793517967924
163.862069,,0.0,164.144,0.5519999861717224,-2.39897515230142
164.327586,,0.0,164.61,0.5649999976158142,-2.370642413990342
164.793103,,0.0,165.074,0.5920000076293945,-2.3117592036152703
165.258621,,0.0,165.54,0.5649999976158142,-2.3704747728541684
165.72413799999998,,0.0,166.007,0.6079999804496765,-2.2766396319091426
166.189655,,0.0,166.473,0.578000009059906,-2.3418047560696844
166.655172,,0.0,166.938,0.5540000200271606,-2.393863880277377
167.12069,,0.0,167.404,0.5929999947547913,-2.3086419802093583
167.58620699999997,,0.0,167.864,0.5540000200271606,-2.393336164672969
168.051724,,0.0,168.33,0.5460000038146973,-2.4104833628869993
168.517241,,0.0,168.8,0.5630000233650208,-2.3731648888476577
168.98275900000002,,0.0,169.262,0.550000011920929,-2.4012151686957757
169.44827600000002,,0.0,169.726,0.5540000200271606,-2.39224616198349
169.913793,,0.0,170.189,0.5669999718666077,-2.3636949746897153
170.37931,,0.0,170.655,0.5809999704360962,-2.3329968218984805
170.844828,,0.0,171.125,0.515999972820282,-2.474450251555085
171.310345,,0.0,171.591,0.574999988079071,-2.345795367460771
171.775862,,0.0,172.055,0.5860000252723694,-2.321762056324092
172.241379,,0.0,172.514,0.5879999995231628,-2.3173836114158517
172.706897,,0.0,172.985,0.5839999914169312,-2.3261242634282677
173.172414,,0.0,173.451,0.656000018119812,-2.1693326476013843
173.637931,,0.0,173.916,0.5730000138282776,-2.350273644241899
174.103448,,0.0,174.374,0.5460000038146973,-2.409251107283829
174.568966,,0.0,174.844,0.5709999799728394,-2.3549771593682673
175.034483,,0.0,175.306,0.550000011920929,-2.400953442432143
175.5,,0.0,175.774,0.5699999928474426,-2.3576308173604414
175.96551699999998,,0.0,176.236,0.574999988079071,-2.3470053925414236
176.43103399999998,,0.0,176.7,0.5789999961853027,-2.3385672233791426
176.896552,,0.0,177.17,0.5460000038146973,-2.4107395856124234
177.36206900000002,,0.0,177.636,0.6079999804496765,-2.2759323115806533
177.827586,,0.0,178.099,0.5929999947547913,-2.3088631956176977
178.293103,,0.0,178.564,0.546999990940094,-2.4093070172209363
178.758621,,0.0,179.029,0.5479999780654907,-2.4073241461760007
179.224138,,0.0,179.495,0.5950000286102295,-2.30508695599456
179.68965500000002,,0.0,179.96,0.5929999947547913,-2.3095607257290434
180.155172,,0.0,180.425,0.6290000081062317,-2.231197562675741
180.62069,,0.0,180.885,0.5419999957084656,-2.420758362255369
181.086207,,0.0,181.351,0.5709999799728394,-2.3575474196831827
181.551724,,0.0,181.82,0.5540000200271606,-2.394507597395496
182.01724099999998,,0.0,182.282,0.5490000247955322,-2.4052799761425554
182.482759,,0.0,182.745,0.6110000014305115,-2.2700418425205706
182.948276,,0.0,183.214,0.5669999718666077,-2.3657029716270976
183.413793,,0.0,183.678,0.6110000014305115,-2.2696110142867005
183.87931,,0.0,184.14,0.5649999976158142,-2.369572867685532
184.34482799999998,,0.0,184.606,0.5770000219345093,-2.343156869581952
184.81034499999998,,0.0,185.073,0.5789999961853027,-2.338520108908365
185.27586200000002,,0.0,185.539,0.5419999957084656,-2.4188522665022494
185.74137900000002,,0.0,186.004,0.5809999704360962,-2.333617968042189
186.206897,,0.0,186.47,0.5680000185966492,-2.3616917803815967
186.672414,,0.0,186.929,0.5630000233650208,-2.372362472288922
187.137931,,0.0,187.395,0.5339999794960022,-2.435354610915728
187.60344800000001,,0.0,187.867,0.5540000200271606,-2.3916330498276026
188.06896600000002,,0.0,188.325,0.550000011920929,-2.4002437809498742
188.534483,,0.0,188.793,0.574999988079071,-2.3457206492135083
189.0,,0.0,189.255,0.5669999718666077,-2.3631406968973314
189.465517,,0.0,189.719,0.5540000200271606,-2.3915017801833494
189.931034,,0.0,190.189,0.5680000185966492,-2.361086362463848
190.39655199999999,,0.0,190.654,0.5910000205039978,-2.3111064835784756
190.862069,,0.0,191.118,0.546999990940094,-2.407135135792493
191.327586,,0.0,191.584,0.5669999718666077,-2.3637647344533868
191.793103,,0.0,192.049,0.5720000267028809,-2.353102090128419
192.25862099999998,,0.0,192.514,0.5669999718666077,-2.3642467260189317
192.72413799999998,,0.0,192.974,0.550000011920929,-2.401548149199482
193.189655,,0.0,193.44,0.5540000200271606,-2.3931037304072946
193.655172,,0.0,193.908,0.550000011920929,-2.4020862047619325
194.12069000000002,,0.0,194.374,0.5979999899864197,-2.297767564006713
194.586207,,0.0,194.837,0.5669999718666077,-2.3655418292098034
195.051724,,0.0,195.299,0.5519999861717224,-2.3984306327912743
195.517241,,0.0,195.767,0.5479999780654907,-2.4073222531469356
195.98275900000002,,0.0,196.229,0.574999988079071,-2.348638228066755
196.448276,,0.0,196.7,0.5529999732971191,-2.3966659017498233
196.913793,,0.0,197.162,0.5669999718666077,-2.3662171999784114
197.37931,,0.0,197.628,0.5830000042915344,-2.331364265090546
197.844828,,0.0,198.092,0.5929999947547913,-2.3095353866268193
198.310345,,0.0,198.558,0.5699999928474426,-2.3595552298269924
198.775862,,0.0,199.023,0.5759999752044678,-2.3463511137886135
199.241379,,0.0,199.489,0.5130000114440918,-2.483436196581442
199.706897,,0.0,199.956,0.578000009059906,-2.3416232293034853
200.172414,,0.0,200.414,0.5669999718666077,-2.365361911416506
200.63793099999998,,0.0,200.881,0.5490000247955322,-2.4043317640639637
201.103448,,0.0,201.347,0.5680000185966492,-2.362680683252405
201.568966,,0.0,201.815,0.5540000200271606,-2.392921764419817
202.034483,,0.0,202.277,0.5649999976158142,-2.3687013436551494
202.5,,0.0,202.741,0.5540000200271606,-2.392423615337427
202.965517,,0.0,203.211,0.5910000205039978,-2.3115901409567576
203.431034,,0.0,203.674,0.5709999799728394,-2.35496505898555
203.896552,,0.0,204.137,0.5799999833106995,-2.3351901949588085
204.36206900000002,,0.0,204.602,0.5720000267028809,-2.352488621493919
204.827586,,0.0,205.066,0.5889999866485596,-2.315361060813302
205.293103,,0.0,205.532,0.5680000185966492,-2.3610646799532113
205.758621,,0.0,205.997,0.5649999976158142,-2.367597327746211
206.224138,,0.0,206.462,0.5379999876022339,-2.4264631931093215
206.689655,,0.0,206.93,0.5540000200271606,-2.391692105942717
207.155172,,0.0,207.389,0.5789999961853027,-2.337355005814725
207.62069,,0.0,207.863,0.5849999785423279,-2.3244485026527086
208.086207,,0.0,208.321,0.5989999771118164,-2.2941429157353257
208.551724,,0.0,208.789,0.5630000233650208,-2.372793822795671
209.01724099999998,,0.0,209.251,0.5669999718666077,-2.364317385737774
209.482759,,0.0,209.715,0.5619999766349792,-2.375460427309356
209.948276,,0.0,210.185,0.5669999718666077,-2.3648211491652926
210.413793,,0.0,210.65,0.5659999847412109,-2.3672500564780488
210.87930999999998,,0.0,211.113,0.5649999976158142,-2.3696676228651152
211.344828,,0.0,211.579,0.5419999957084656,-2.419997367807667
211.810345,,0.0,212.044,0.5690000057220459,-2.3613701235256075
212.27586200000002,,0.0,212.51,0.574999988079071,-2.3484633707509963
212.741379,,0.0,212.975,0.5709999799728394,-2.3573061747476265
213.206897,,0.0,213.44,0.5789999961853027,-2.3399641955291473
213.672414,,0.0,213.9,0.550000011920929,-2.403188977038203
214.137931,,0.0,214.365,0.5929999947547913,-2.309506647274058
214.60344800000001,,0.0,214.833,0.5849999785423279,-2.326890133053021
215.068966,,0.0,215.295,0.5709999799728394,-2.3573014148251636
215.534483,,0.0,215.763,0.5879999995231628,-2.3201336833115374
216.0,,0.0,216.225,0.5929999947547913,-2.3090726134275132
216.465517,,0.0,216.693,0.5699999928474426,-2.358981760644604
216.93103399999998,,0.0,217.156,0.5669999718666077,-2.3652931386305753
217.39655199999999,,0.0,217.622,0.5789999961853027,-2.3389072376273856
217.862069,,0.0,218.085,0.5680000185966492,-2.3626202293569207
218.327586,,0.0,218.55,0.5419999957084656,-2.419011560860627
218.793103,,0.0,219.017,0.5540000200271606,-2.3926214511865194
219.25862099999998,,0.0,219.483,0.5680000185966492,-2.361888788810469
219.724138,,0.0,219.948,0.5249999761581421,-2.4553610304715145
220.18965500000002,,0.0,220.414,0.5879999995231628,-2.3179246113945022
220.65517200000002,,0.0,220.879,0.5540000200271606,-2.3918499513172833
221.12069,,0.0,221.344,0.578000009059906,-2.3394504739370974
221.586207,,0.0,221.807,0.5270000100135803,-2.4504903245199525
222.051724,,0.0,222.27,0.5540000200271606,-2.3916390489502777
222.517241,,0.0,222.741,0.5820000171661377,-2.330652642275283
222.98275900000002,,0.0,223.203,0.550000011920929,-2.400426908748493
223.448276,,0.0,223.671,0.5540000200271606,-2.3918099928650447
223.913793,,0.0,224.133,0.5490000247955322,-2.4028383685349852
224.37931,,0.0,224.599,0.5419999957084656,-2.4182573317870992
224.844828,,0.0,225.063,0.5509999990463257,-2.3988457527874356
225.31034499999998,,0.0,225.529,0.5979999899864197,-2.296666028257126
225.775862,,0.0,225.989,0.574999988079071,-2.347003824788276
226.241379,,0.0,226.455,0.546999990940094,-2.40824026447365
226.706897,,0.0,226.926,0.546999990940094,-2.4084741513105667
227.172414,,0.0,227.384,0.5519999861717224,-2.3978076500179935
227.63793099999998,,0.0,227.852,0.5789999961853027,-2.339196045498603
228.103448,,0.0,228.315,0.5839999914169312,-2.3284923396455834
228.56896600000002,,0.0,228.785,0.5419999957084656,-2.420157147045681
229.03448300000002,,0.0,229.247,0.5730000138282776,-2.352748727103903
229.5,,0.0,229.715,0.5640000104904175,-2.3724506222782726
229.965517,,0.0,230.177,0.5759999752044678,-2.346362232951546
230.431034,,0.0,230.643,0.5519999861717224,-2.3986652469986876
230.896552,,0.0,231.106,0.550000011920929,-2.402998724707691
231.362069,,0.0,231.571,0.5830000042915344,-2.331041377642162
231.827586,,0.0,232.04,0.5540000200271606,-2.394123704659694
232.293103,,0.0,232.499,0.4740000069141388,-2.5682860505078513
232.758621,,0.0,232.971,0.5540000200271606,-2.3938396325814306
233.224138,,0.0,233.429,0.5529999732971191,-2.395842539624229
233.689655,,0.0,233.896,0.5540000200271606,-2.393470533910429
234.155172,,0.0,234.362,0.5699999928474426,-2.3584071481134377
234.62069,,0.0,234.829,0.5540000200271606,-2.3930545324295114
235.086207,,0.0,235.292,0.546999990940094,-2.4080951079346287
235.55172399999998,,0.0,235.759,0.5709999799728394,-2.355604830454351
236.01724099999998,,0.0,236.222,0.5720000267028809,-2.3532359032666608
236.482759,,0.0,236.685,0.5720000267028809,-2.3530633940941885
236.94827600000002,,0.0,237.155,0.5709999799728394,-2.3550923704186366
237.413793,,0.0,237.62,0.5490000247955322,-2.402900341590807
237.87931,,0.0,238.084,0.6060000061988831,-2.27862603225706
238.344828,,0.0,238.55,0.5789999961853027,-2.337390502046506
238.810345,,0.0,239.014,0.515999972820282,-2.474621425190603
239.27586200000002,,0.0,239.48,0.5709999799728394,-2.3548091750481275
239.741379,,0.0,239.944,0.6190000176429749,-2.2502825853701793
240.206897,,0.0,240.41,0.5659999847412109,-2.3658314830843694
240.672414,,0.0,240.875,0.5759999752044678,-2.3441556080736516
241.137931,,0.0,241.341,0.5619999766349792,-2.3747950124392485
241.603448,,0.0,241.804,0.5669999718666077,-2.3640639111613373
242.068966,,0.0,242.266,0.5540000200271606,-2.3925676630120463
242.534483,,0.0,242.729,0.5630000233650208,-2.373155305914073
243.0,,0.0,243.199,0.5139999985694885,-2.480113703797315
243.465517,,0.0,243.667,0.5490000247955322,-2.4040693354104574
243.93103399999998,,0.0,244.129,0.5669999718666077,-2.3650589854507116
244.39655199999999,,0.0,244.595,0.5630000233650208,-2.3739679627187398
244.862069,,0.0,245.06,0.5669999718666077,-2.365431018198107
245.327586,,0.0,245.526,0.578000009059906,-2.341620665321415
245.793103,,0.0,245.985,0.5490000247955322,-2.4049289834335053
246.258621,,0.0,246.45,0.5920000076293945,-2.3113434754652014
246.724138,,0.0,246.915,0.5920000076293945,-2.311404712296788
247.18965500000002,,0.0,247.381,0.5540000200271606,-2.394217560944488
247.655172,,0.0,247.844,0.5889999866485596,-2.317952217627262
248.12069,,0.0,248.314,0.574999988079071,-2.3484038921055492
248.586207,,0.0,248.774,0.5860000252723694,-2.324353861487999
249.051724,,0.0,249.244,0.5519999861717224,-2.3983110693332614
249.517241,,0.0,249.704,0.5540000200271606,-2.393809385753775
249.982759,,0.0,250.174,0.5680000185966492,-2.3631414914775752
250.44827600000002,,0.0,250.64,0.5649999976158142,-2.369492886001975
250.913793,,0.0,251.103,0.5669999718666077,-2.364938789430798
251.37931000000003,,0.0,251.569,0.5490000247955322,-2.4039516367826366
251.844828,,0.0,252.034,0.5830000042915344,-2.3296752239946015
252.31034499999998,,0.0,252.499,0.550000011920929,-2.4013744324502717
252.77586200000002,,0.0,252.96,0.47699999809265137,-2.560233741311559
253.241379,,0.0,253.425,0.5709999799728394,-2.3552797315697176
253.706897,,0.0,253.889,0.4699999988079071,-2.575187726562572
254.172414,,0.0,254.355,0.5809999704360962,-2.3332513709392515
254.63793099999998,,0.0,254.826,0.5709999799728394,-2.3549613702856904
255.10344800000001,,0.0,255.288,0.5540000200271606,-2.391952177333205
255.56896600000002,,0.0,255.756,0.5649999976158142,-2.3679728252924725
256.03448299999997,,0.0,256.218,0.5669999718666077,-2.3636330731198987
256.5,,0.0,256.682,0.5860000252723694,-2.322286302981488
256.965517,,0.0,257.144,0.6830000281333923,-2.1110308745005497
257.431034,,0.0,257.61,0.5410000085830688,-2.4204948243887694
257.896552,,0.0,258.077,0.550000011920929,-2.4010053201087143
258.362069,,0.0,258.543,0.5789999961853027,-2.3379638428244904
258.827586,,0.0,259.007,0.5659999847412109,-2.366441564762168
259.29310300000003,,0.0,259.472,0.5440000295639038,-2.414538864854553
259.758621,,0.0,259.938,0.5720000267028809,-2.353711457936634
260.224138,,0.0,260.403,0.5540000200271606,-2.3931043202796785
260.689655,,0.0,260.864,0.5210000276565552,-2.465175041974382
261.155172,,0.0,261.329,0.578000009059906,-2.3411610780503365
261.62068999999997,,0.0,261.8,0.5669999718666077,-2.365282870164041
262.086207,,0.0,262.262,0.5540000200271606,-2.3937444824632554
262.551724,,0.0,262.726,0.5249999761581421,-2.4570446888807296
263.017241,,0.0,263.189,0.5929999947547913,-2.3089924645708164
263.482759,,0.0,263.654,0.5329999923706055,-2.4397804566809427
263.94827599999996,,0.0,264.125,0.5009999871253967,-2.5095389483883648
264.413793,,0.0,264.591,0.5690000057220459,-2.3614049520519647
264.87931,,0.0,265.055,0.550000011920929,-2.4027838470449323
265.34482799999995,,0.0,265.514,0.5640000104904175,-2.372237193659432
265.810345,,0.0,265.979,0.5540000200271606,-2.3939491443740435
266.27586199999996,,0.0,266.444,0.5789999961853027,-2.3393811429713676
266.741379,,0.0,266.911,0.5640000104904175,-2.371934074194936
267.206897,,0.0,267.377,0.5490000247955322,-2.404465997654918
267.672414,,0.0,267.844,0.550000011920929,-2.4021236148630045
268.137931,,0.0,268.307,0.5509999990463257,-2.3997701552478965
268.603448,,0.0,268.775,0.5509999990463257,-2.3995891821021105
269.06896600000005,,0.0,269.237,0.5799999833106995,-2.33622590182386
269.53448299999997,,0.0,269.7,0.5669999718666077,-2.364368777645728
270.0,,0.0,270.17,0.5630000233650208,-2.3729118099983197
270.465517,,0.0,270.635,0.5479999780654907,-2.405434041988628
270.931034,,0.0,271.098,0.5379999876022339,-2.4270822446428455
271.396552,,0.0,271.564,0.578000009059906,-2.3398213128838963
271.86206899999996,,0.0,272.025,0.5910000205039978,-2.311409174029571
272.327586,,0.0,272.491,0.49000000953674316,-2.531391744408374
272.793103,,0.0,272.956,0.5730000138282776,-2.3505353915899665
273.258621,,0.0,273.422,0.5529999732971191,-2.3941126950462603
273.724138,,0.0,273.889,0.5419999957084656,-2.4181140947163837
274.18965499999996,,0.0,274.354,0.5320000052452087,-2.439968967963481
274.655172,,0.0,274.815,0.5529999732971191,-2.394316163001191
275.12069,,0.0,275.284,0.5540000200271606,-2.3922630603410635
275.586207,,0.0,275.745,0.5709999799728394,-2.355374238206716
276.051724,,0.0,276.214,0.5450000166893005,-2.412185155257155
276.517241,,0.0,276.675,0.5460000038146973,-2.4101864294568616
276.98275900000004,,0.0,277.145,0.5460000038146973,-2.4103752857460488
277.448276,,0.0,277.611,0.5669999718666077,-2.364815568982562
277.913793,,0.0,278.07,0.5460000038146973,-2.4107559152919156
278.37931,,0.0,278.536,0.5669999718666077,-2.36518448638537
278.844828,,0.0,279.0,0.5879999995231628,-2.319598166793619
279.31034500000004,,0.0,279.465,0.5540000200271606,-2.3938173927755737
279.77586199999996,,0.0,279.93,0.550000011920929,-2.4026537313669825
280.241379,,0.0,280.396,0.5680000185966492,-2.363533180730844
280.706897,,0.0,280.867,0.550000011920929,-2.402814420555209
281.172414,,0.0,281.325,0.5889999866485596,-2.317880784237974
281.637931,,0.0,281.793,0.5690000057220459,-2.3614537413059598
282.10344799999996,,0.0,282.255,0.5460000038146973,-2.4115295861656154
282.568966,,0.0,282.726,0.5820000171661377,-2.3330335982801427
283.034483,,0.0,283.188,0.5099999904632568,-2.4898027236641225
283.5,,0.0,283.654,0.5529999732971191,-2.3960020957175083
283.965517,,0.0,284.118,0.5509999990463257,-2.40021878276107
284.431034,,0.0,284.583,0.5630000233650208,-2.373915701170102
284.89655200000004,,0.0,285.048,0.5849999785423279,-2.325811380205255
285.362069,,0.0,285.514,0.5419999957084656,-2.4193090370797603
285.827586,,0.0,285.978,0.5490000247955322,-2.4038705499441826
286.293103,,0.0,286.444,0.5669999718666077,-2.364469112875762
286.758621,,0.0,286.904,0.5339999794960022,-2.436185870147829
287.22413800000004,,0.0,287.369,0.5830000042915344,-2.3292657181036063
287.689655,,0.0,287.837,0.5860000252723694,-2.3225793390283456
288.155172,,0.0,288.299,0.550000011920929,-2.400880275068907
288.62069,,0.0,288.77,0.5680000185966492,-2.3615588217056316
289.086207,,0.0,289.233,0.5669999718666077,-2.3636596907249467
289.55172400000004,,0.0,289.696,0.5649999976158142,-2.36796900190182
290.01724099999996,,0.0,290.159,0.5540000200271606,-2.3919179020968935
290.482759,,0.0,290.624,0.5490000247955322,-2.402827797711855
290.948276,,0.0,291.091,0.5540000200271606,-2.3919839761507826
291.413793,,0.0,291.557,0.5540000200271606,-2.3920646761988293
291.87931,,0.0,292.022,0.546999990940094,-2.407424996367843
292.344828,,0.0,292.488,0.5929999947547913,-2.307342067676223
292.81034500000004,,0.0,292.953,0.574999988079071,-2.346712769722997
293.275862,,0.0,293.418,0.5460000038146973,-2.4100644955995696
293.74137900000005,,0.0,293.885,0.5920000076293945,-2.310029119052429
294.206897,,0.0,294.344,0.5920000076293945,-2.310216740624019
294.672414,,0.0,294.812,0.5720000267028809,-2.35397656446521
295.13793100000004,,0.0,295.274,0.5659999847412109,-2.3672302345364487
295.603448,,0.0,295.744,0.5789999961853027,-2.3390794599028326
296.068966,,0.0,296.207,0.5619999766349792,-2.3762733189417107
296.534483,,0.0,296.67,0.5799999833106995,-2.3371951076400657
297.0,,0.0,297.14,0.5490000247955322,-2.4048476804121064
297.46551700000003,,0.0,297.599,0.5669999718666077,-2.3657209351361437
297.931034,,0.0,298.064,0.5540000200271606,-2.3941039957018244
298.396552,,0.0,298.529,0.5830000042915344,-2.330953665070155
298.862069,,0.0,298.997,0.5929999947547913,-2.3091654411476155
299.327586,,0.0,299.463,0.5830000042915344,-2.3309172247994994
299.79310300000003,,0.0,299.93,0.5709999799728394,-2.3569948420522735
300.258621,,0.0,300.395,0.5879999995231628,-2.3198622281075467
300.724138,,0.0,300.855,0.5540000200271606,-2.3938144057743016
301.189655,,0.0,301.325,0.5690000057220459,-2.3609907260924037
301.65517200000005,,0.0,301.789,0.5419999957084656,-2.4196529045864903
302.12069,,0.0,302.251,0.5740000009536743,-2.3497620795393326
302.586207,,0.0,302.715,0.5440000295639038,-2.414939589186084
303.05172400000004,,0.0,303.185,0.5669999718666077,-2.3646462256134417
303.517241,,0.0,303.644,0.5630000233650208,-2.373178445442556
303.982759,,0.0,304.113,0.5680000185966492,-2.3621099466480575
304.448276,,0.0,304.579,0.5740000009536743,-2.348874486172661
304.913793,,0.0,305.04,0.5690000057220459,-2.3596201133789796
305.37931000000003,,0.0,305.506,0.6010000109672546,-2.2897753157679706
305.844828,,0.0,305.97,0.5460000038146973,-2.409496161393862
306.310345,,0.0,306.436,0.5389999747276306,-2.4246696054550454
306.775862,,0.0,306.903,0.5540000200271606,-2.3919435273099814
307.241379,,0.0,307.369,0.5540000200271606,-2.391929064329611
307.70689699999997,,0.0,307.833,0.5690000057220459,-2.3592664685604317
308.172414,,0.0,308.295,0.5270000100135803,-2.450818091562487
308.637931,,0.0,308.759,0.5669999718666077,-2.3637509194628263
309.103448,,0.0,309.229,0.574999988079071,-2.3464275653835114
309.568966,,0.0,309.692,0.5540000200271606,-2.3923084152074923
310.034483,,0.0,310.155,0.5669999718666077,-2.36413543301211
310.5,,0.0,310.621,0.5640000104904175,-2.3708363926380036
310.96551700000003,,0.0,311.085,0.5659999847412109,-2.3666551061885825
311.431034,,0.0,311.55,0.5720000267028809,-2.3537648049403663
311.896552,,0.0,312.014,0.5889999866485596,-2.3169095575562695
312.362069,,0.0,312.48,0.5619999766349792,-2.3759094947043957
312.827586,,0.0,312.945,0.6060000061988831,-2.280214911968975
313.29310300000003,,0.0,313.411,0.5770000219345093,-2.3435462704856276
313.758621,,0.0,313.878,0.656000018119812,-2.1715628113672523
314.224138,,0.0,314.343,0.5419999957084656,-2.420034307817496
314.689655,,0.0,314.804,0.5709999799728394,-2.3569342158205275
315.155172,,0.0,315.274,0.5460000038146973,-2.4114559963635402
315.62068999999997,,0.0,315.737,0.5540000200271606,-2.394056285328508
316.086207,,0.0,316.199,0.5809999704360962,-2.335235396930781
316.551724,,0.0,316.671,0.550000011920929,-2.4027485233472907
317.017241,,0.0,317.133,0.5709999799728394,-2.3569457009769126
317.482759,,0.0,317.598,0.640999972820282,-2.2043626555656677
317.94827599999996,,0.0,318.063,0.5669999718666077,-2.3654793284085445
318.413793,,0.0,318.529,0.5460000038146973,-2.411106581144074
318.87931000000003,,0.0,318.989,0.5669999718666077,-2.365215067193382
319.344828,,0.0,319.455,0.5669999718666077,-2.3650629658788165
319.810345,,0.0,319.923,0.550000011920929,-2.401939731362128
320.275862,,0.0,320.389,0.5860000252723694,-2.3233443279055805
320.741379,,0.0,320.852,0.5450000166893005,-2.4125052363786463
321.20689699999997,,0.0,321.314,0.574999988079071,-2.346986967364323
321.672414,,0.0,321.785,0.546999990940094,-2.4078394558732463
322.137931,,0.0,322.247,0.5320000052452087,-2.4403832521075906
322.603448,,0.0,322.711,0.5730000138282776,-2.35094020025185
323.068966,,0.0,323.174,0.5669999718666077,-2.363913007923443
323.53448299999997,,0.0,323.64,0.5920000076293945,-2.3093680977108697
324.0,,0.0,324.11,0.5519999861717224,-2.3964578497943223
324.465517,,0.0,324.576,0.5910000205039978,-2.3114581108698373
324.931034,,0.0,325.041,0.5929999947547913,-2.307092390867254
325.396552,,0.0,325.499,0.5960000157356262,-2.300571060770569
325.86206899999996,,0.0,325.964,0.5669999718666077,-2.3637898053831905
326.327586,,0.0,326.429,0.5669999718666077,-2.3638509133400096
326.793103,,0.0,326.896,0.5070000290870667,-2.4946543351509063
327.258621,,0.0,327.362,0.578000009059906,-2.3400771760674544
327.724138,,0.0,327.83,0.5759999752044678,-2.34455951192003
328.189655,,0.0,328.292,0.5529999732971191,-2.3948074398679267
328.655172,,0.0,328.755,0.5450000166893005,-2.412387026581232
329.12068999999997,,0.0,329.226,0.5669999718666077,-2.3646152368425426
329.586207,,0.0,329.689,0.5540000200271606,-2.3930992925702075
330.051724,,0.0,330.152,0.5669999718666077,-2.3649375613777233
330.517241,,0.0,330.617,0.5529999732971191,-2.3955938815886406
330.982759,,0.0,331.081,0.5419999957084656,-2.4197051622323666
331.44827599999996,,0.0,331.546,0.5410000085830688,-2.422017644397421
331.913793,,0.0,332.012,0.5410000085830688,-2.422135704228774
332.37931,,0.0,332.477,0.5759999752044678,-2.345981302782195
332.844828,,0.0,332.944,0.5460000038146973,-2.4114155103200394
333.310345,,0.0,333.41,0.5820000171661377,-2.3330329467555706
333.77586199999996,,0.0,333.874,0.5440000295639038,-2.4158427960470124
334.241379,,0.0,334.34,0.5950000286102295,-2.304724197502449
334.706897,,0.0,334.8,0.5419999957084656,-2.4201562243000376
335.17241399999995,,0.0,335.27,0.6060000061988831,-2.2806578134182742
335.637931,,0.0,335.73,0.5809999704360962,-2.335031535491791
336.103448,,0.0,336.2,0.546999990940094,-2.4089880019766015
336.56896600000005,,0.0,336.659,0.5419999957084656,-2.4197436801055403
337.034483,,0.0,337.124,0.5450000166893005,-2.41305461165345
337.5,,0.0,337.589,0.5509999990463257,-2.3998181583219655
337.965517,,0.0,338.056,0.5820000171661377,-2.3321074563827064
338.431034,,0.0,338.522,0.5799999833106995,-2.336287809438056
338.89655200000004,,0.0,338.989,0.5419999957084656,-2.4189000418154136
339.36206899999996,,0.0,339.454,0.574999988079071,-2.3468346069409396
339.827586,,0.0,339.919,0.5699999928474426,-2.357568575565284
340.293103,,0.0,340.385,0.5669999718666077,-2.3639602482837363
340.758621,,0.0,340.848,0.5540000200271606,-2.3921578661850473
341.224138,,0.0,341.31,0.5720000267028809,-2.3528409661624026
341.68965499999996,,0.0,341.774,0.5630000233650208,-2.372373961297831
342.155172,,0.0,342.244,0.5799999833106995,-2.3352905694127477
342.62069,,0.0,342.704,0.5210000276565552,-2.46381501167678
343.086207,,0.0,343.174,0.5540000200271606,-2.3919365576744194
343.551724,,0.0,343.64,0.5509999990463257,-2.398521964882739
344.01724099999996,,0.0,344.102,0.5830000042915344,-2.328884802226038
344.48275900000004,,0.0,344.568,0.5709999799728394,-2.3551355469857653
344.948276,,0.0,345.034,0.5669999718666077,-2.3639814775078474
345.413793,,0.0,345.499,0.550000011920929,-2.401171369313617
345.87931,,0.0,345.96,0.5490000247955322,-2.403521162799112
346.344828,,0.0,346.425,0.5540000200271606,-2.392812887567299
346.81034500000004,,0.0,346.892,0.5950000286102295,-2.3036808950317704
347.275862,,0.0,347.358,0.5659999847412109,-2.367055626053944
347.741379,,0.0,347.82,0.5460000038146973,-2.410818738822217
348.206897,,0.0,348.29,0.5690000057220459,-2.360891762865354
348.672414,,0.0,348.752,0.5540000200271606,-2.3937397516602705
349.13793100000004,,0.0,349.214,0.5429999828338623,-2.417854974044827
349.60344799999996,,0.0,349.682,0.5540000200271606,-2.394017467367341
350.068966,,0.0,350.144,0.5669999718666077,-2.3657961855300584
350.534483,,0.0,350.61,0.5680000185966492,-2.363687889019708
351.0,,0.0,351.075,0.5529999732971191,-2.3964052042990067
351.465517,,0.0,351.54,0.5720000267028809,-2.3550139922095066
351.93103399999995,,0.0,352.007,0.5849999785423279,-2.326659510989053
352.396552,,0.0,352.473,0.5989999771118164,-2.2960903556440284
352.862069,,0.0,352.938,0.6060000061988831,-2.2807365256418337
353.32758600000005,,0.0,353.403,0.5540000200271606,-2.3938911128915925
353.793103,,0.0,353.87,0.5929999947547913,-2.308761667706167
354.258621,,0.0,354.336,0.5730000138282776,-2.352149930798695
354.72413800000004,,0.0,354.796,0.5740000009536743,-2.3497694985627713
355.189655,,0.0,355.266,0.5630000233650208,-2.373522124157281
355.655172,,0.0,355.726,0.6610000133514404,-2.1597962540299758
356.12069,,0.0,356.196,0.550000011920929,-2.4014074291175866
356.586207,,0.0,356.654,0.5669999718666077,-2.3641596546733705
357.05172400000004,,0.0,357.125,0.5669999718666077,-2.3639648560384297
357.517241,,0.0,357.584,0.574999988079071,-2.346362441541634
357.982759,,0.0,358.056,0.5809999704360962,-2.3331440280819806
358.448276,,0.0,358.514,0.5830000042915344,-2.328670971281302
358.913793,,0.0,358.982,0.5830000042915344,-2.328589730840255
359.37931000000003,,0.0,359.448,0.5130000114440918,-2.481052387069309
359.844828,,0.0,359.912,0.5540000200271606,-2.391726864794042
360.310345,,0.0,360.378,0.5540000200271606,-2.3917678800633593
360.775862,,0.0,360.841,0.5669999718666077,-2.3635263427000863
361.241379,,0.0,361.31,0.5680000185966492,-2.3614653042939224
361.706897,,0.0,361.77,0.574999988079071,-2.346365525528811
362.172414,,0.0,362.241,0.5440000295639038,-2.4140830045364297
362.63793100000004,,0.0,362.704,0.5540000200271606,-2.3925001119047167
363.103448,,0.0,363.166,0.5720000267028809,-2.353505757402567
363.568966,,0.0,363.632,0.5040000081062317,-2.5018866391594172
364.034483,,0.0,364.095,0.5720000267028809,-2.3539761845337335
364.5,,0.0,364.56,0.574999988079071,-2.347674294866801
364.96551700000003,,0.0,365.026,0.5759999752044678,-2.3457170882713285
365.431034,,0.0,365.491,0.5830000042915344,-2.3306681068018102
365.896552,,0.0,365.955,0.5540000200271606,-2.394024625850922
366.362069,,0.0,366.421,0.5699999928474426,-2.359311216034289
366.827586,,0.0,366.885,0.550000011920929,-2.4029939816593324
367.29310300000003,,0.0,367.351,0.5799999833106995,-2.337705652633545
367.758621,,0.0,367.815,0.5540000200271606,-2.394380210452433
368.224138,,0.0,368.285,0.6150000095367432,-2.261469291862371
368.689655,,0.0,368.748,0.5699999928474426,-2.35945148968813
369.155172,,0.0,369.21,0.5540000200271606,-2.394211637933748
369.62068999999997,,0.0,369.678,0.574999988079071,-2.3483248782888118
370.086207,,0.0,370.14,0.5630000233650208,-2.374300344544755
370.55172400000004,,0.0,370.606,0.5680000185966492,-2.3632110351933995
371.017241,,0.0,371.071,0.5540000200271606,-2.3934946624739117
371.482759,,0.0,371.537,0.5540000200271606,-2.3932630569627484
371.948276,,0.0,372.004,0.5879999995231628,-2.318950141214181
372.413793,,0.0,372.47,0.5910000205039978,-2.3121741211597193
372.87931000000003,,0.0,372.93,0.5529999732971191,-2.394729228842841
373.344828,,0.0,373.395,0.5419999957084656,-2.4184759596333785
373.810345,,0.0,373.867,0.5799999833106995,-2.335491556916908
374.275862,,0.0,374.325,0.5669999718666077,-2.363646055135423
374.741379,,0.0,374.789,0.5730000138282776,-2.3504388509457566
375.20689699999997,,0.0,375.259,0.5540000200271606,-2.3917353602206433
375.672414,,0.0,375.722,0.5329999923706055,-2.437430747644174
376.137931,,0.0,376.185,0.5989999771118164,-2.293626821820706
376.603448,,0.0,376.65,0.5849999785423279,-2.324156593225718
377.068966,,0.0,377.12,0.5540000200271606,-2.3917641031304684
377.53448299999997,,0.0,377.579,0.5540000200271606,-2.391873661091974
378.0,,0.0,378.048,0.5669999718666077,-2.363697913637965
378.465517,,0.0,378.514,0.5669999718666077,-2.363876472341365
378.931034,,0.0,378.977,0.5419999957084656,-2.418547818740161
379.396552,,0.0,379.443,0.5669999718666077,-2.364307444743166
379.862069,,0.0,379.908,0.5529999732971191,-2.3950476532129508
380.327586,,0.0,380.374,0.550000011920929,-2.401828511186393
380.79310300000003,,0.0,380.837,0.6060000061988831,-2.2800665946543264
381.258621,,0.0,381.299,0.550000011920929,-2.4023021232895876
381.724138,,0.0,381.767,0.5669999718666077,-2.365478530375802
382.189655,,0.0,382.229,0.5460000038146973,-2.411419683725278
382.655172,,0.0,382.7,0.5490000247955322,-2.405043909339447
383.12068999999997,,0.0,383.163,0.5849999785423279,-2.326737978504813
383.586207,,0.0,383.628,0.5540000200271606,-2.394361622923949
384.051724,,0.0,384.092,0.5820000171661377,-2.333402517289941
384.517241,,0.0,384.558,0.550000011920929,-2.4031185420938854
384.982759,,0.0,385.022,0.5519999861717224,-2.398717316902013
385.44827599999996,,0.0,385.488,0.550000011920929,-2.402989245503808
385.913793,,0.0,385.955,0.5669999718666077,-2.3658279830118243
386.37931,,0.0,386.421,0.5649999976158142,-2.370025184685524
386.84482799999995,,0.0,386.885,0.5659999847412109,-2.3676554990734875
387.310345,,0.0,387.35,0.550000011920929,-2.402298000225199
387.775862,,0.0,387.813,0.5419999957084656,-2.419494121537352
388.241379,,0.0,388.275,0.5789999961853027,-2.338640909890089
388.70689699999997,,0.0,388.745,0.5540000200271606,-2.3928606627660916
389.172414,,0.0,389.208,0.5789999961853027,-2.3381523290056414
389.637931,,0.0,389.671,0.5649999976158142,-2.36842295499055
390.103448,,0.0,390.14,0.5540000200271606,-2.392176839930513
390.56896600000005,,0.0,390.606,0.5419999957084656,-2.418136341932795
391.03448299999997,,0.0,391.066,0.5419999957084656,-2.4179853911953604
391.5,,0.0,391.532,0.5540000200271606,-2.3917287873923843
391.965517,,0.0,392.0,0.5960000157356262,-2.3001533036685995
392.431034,,0.0,392.465,0.5519999861717224,-2.3959835866518966
392.896552,,0.0,392.931,0.5669999718666077,-2.3633170212199075
393.36206899999996,,0.0,393.389,0.5299999713897705,-2.4439843139078055
393.827586,,0.0,393.863,0.5410000085830688,-2.420119672177976
394.293103,,0.0,394.321,0.5540000200271606,-2.391938021882541
394.75862099999995,,0.0,394.785,0.5789999961853027,-2.337647312284117
395.224138,,0.0,395.255,0.5540000200271606,-2.3923173844850036
395.68965499999996,,0.0,395.718,0.5540000200271606,-2.392543762974374
396.155172,,0.0,396.181,0.5509999990463257,-2.3993220277107574
396.62069,,0.0,396.647,0.578000009059906,-2.3407486160459325
397.086207,,0.0,397.11,0.5699999928474426,-2.35842716383532
397.551724,,0.0,397.575,0.5529999732971191,-2.3957050082058937
398.017241,,0.0,398.041,0.5419999957084656,-2.41989573775336
398.48275900000004,,0.0,398.506,0.5419999957084656,-2.4200998703982135
398.94827599999996,,0.0,398.97,0.5540000200271606,-2.3941321708768633
399.413793,,0.0,399.436,0.5699999928474426,-2.3594156301415468
399.87931,,0.0,399.904,0.5849999785423279,-2.3268376997511355
400.344828,,0.0,400.369,0.5669999718666077,-2.3661113715927513
400.810345,,0.0,400.833,0.5759999752044678,-2.3465160551022155
401.27586199999996,,0.0,401.295,0.5899999737739563,-2.315981413706626
401.741379,,0.0,401.763,0.5709999799728394,-2.3572968568645916
402.206897,,0.0,402.225,0.5460000038146973,-2.4116423244640584
402.672414,,0.0,402.689,0.5669999718666077,-2.365733025350032
403.137931,,0.0,403.159,0.5630000233650208,-2.3742575794318723
403.60344799999996,,0.0,403.624,0.550000011920929,-2.4023639953318057
404.068966,,0.0,404.084,0.5929999947547913,-2.308446596900485
404.534483,,0.0,404.549,0.5419999957084656,-2.419309808394267
405.0,,0.0,405.018,0.5759999752044678,-2.344983865530408
405.465517,,0.0,405.484,0.5429999828338623,-2.4166316562510497
405.931034,,0.0,405.948,0.546999990940094,-2.4076820996939983
406.39655200000004,,0.0,406.414,0.5419999957084656,-2.4183610490695404
406.862069,,0.0,406.878,0.5540000200271606,-2.3920301780192683
407.327586,,0.0,407.343,0.5910000205039978,-2.311265150303211
407.793103,,0.0,407.804,0.5730000138282776,-2.3503613835336465
408.258621,,0.0,408.273,0.5879999995231628,-2.3176011361950395
408.72413800000004,,0.0,408.737,0.5429999828338623,-2.4156018902898935
409.18965499999996,,0.0,409.199,0.5960000157356262,-2.3001385576695217
409.655172,,0.0,409.671,0.5920000076293945,-2.3089007325580084
410.12069,,0.0,410.133,0.5419999957084656,-2.4179218172296735
410.586207,,0.0,410.598,0.574999988079071,-2.34615464131394
411.05172400000004,,0.0,411.063,0.5460000038146973,-2.4094995664655734
411.51724099999996,,0.0,411.529,0.5239999890327454,-2.457625664760625
411.982759,,0.0,411.989,0.5619999766349792,-2.37505894372913
412.448276,,0.0,412.454,0.5730000138282776,-2.351333522893992
412.913793,,0.0,412.919,0.5799999833106995,-2.3363318387309486
413.37931,,0.0,413.385,0.546999990940094,-2.4084772760168542
413.844828,,0.0,413.856,0.5540000200271606,-2.39347096809805
414.31034500000004,,0.0,414.318,0.5709999799728394,-2.356664857948834
414.775862,,0.0,414.781,0.5680000185966492,-2.3634100322273515
415.241379,,0.0,415.244,0.550000011920929,-2.402806971695429
415.706897,,0.0,415.715,0.5460000038146973,-2.411669771486856
416.172414,,0.0,416.177,0.5789999961853027,-2.3398846069929764
416.63793100000004,,0.0,416.643,0.5540000200271606,-2.3944188268110964
417.103448,,0.0,417.105,0.5680000185966492,-2.3639414062114756
417.568966,,0.0,417.571,0.5329999923706055,-2.4401732579768955
418.034483,,0.0,418.038,0.5419999957084656,-2.420501348891031
418.5,,0.0,418.503,0.5540000200271606,-2.394252331313649
418.96551700000003,,0.0,418.97,0.550000011920929,-2.4028233085162314
419.43103399999995,,0.0,419.435,0.5649999976158142,-2.369965544621913
419.896552,,0.0,419.901,0.5540000200271606,-2.393723374900912
420.362069,,0.0,420.359,0.5709999799728394,-2.3564562047676967
420.827586,,0.0,420.829,0.550000011920929,-2.4019617420145143
421.293103,,0.0,421.292,0.5669999718666077,-2.3646708277561848
421.758621,,0.0,421.76,0.5669999718666077,-2.3644166847536723
422.22413800000004,,0.0,422.222,0.527999997138977,-2.449138083838047
422.689655,,0.0,422.685,0.5540000200271606,-2.3922643439496913
423.15517200000005,,0.0,423.155,0.5540000200271606,-2.3920596156893943
423.62069,,0.0,423.621,0.5669999718666077,-2.3635624166729596
424.086207,,0.0,424.084,0.574999988079071,-2.3459931443201922
424.55172400000004,,0.0,424.55,0.5830000042915344,-2.3284625340474037
425.017241,,0.0,425.014,0.5920000076293945,-2.3087947178396098
425.482759,,0.0,425.48,0.5329999923706055,-2.437319252939519
425.948276,,0.0,425.945,0.5649999976158142,-2.3676330447706113
426.413793,,0.0,426.404,0.5249999761581421,-2.4548559886668615
426.87931000000003,,0.0,426.87,0.5830000042915344,-2.3286151794784558
427.344828,,0.0,427.336,0.5460000038146973,-2.4093857576208686
427.810345,,0.0,427.8,0.5669999718666077,-2.3638294253637815
428.275862,,0.0,428.27,0.5540000200271606,-2.392375823223434
428.741379,,0.0,428.73,0.578000009059906,-2.3403338659219632
429.20689699999997,,0.0,429.199,0.5699999928474426,-2.358022084727001
429.672414,,0.0,429.67,0.5460000038146973,-2.410574235840938
430.137931,,0.0,430.126,0.5540000200271606,-2.393407810261424
430.603448,,0.0,430.592,0.5920000076293945,-2.3108713325043686
431.068966,,0.0,431.059,0.550000011920929,-2.4026073436027784
431.534483,,0.0,431.524,0.5910000205039978,-2.313488740598562
432.0,,0.0,431.989,0.5720000267028809,-2.355055414903166
432.46551700000003,,0.0,432.455,0.5509999990463257,-2.400940600299323
432.931034,,0.0,432.915,0.546999990940094,-2.4097467554995076
433.396552,,0.0,433.38,0.5720000267028809,-2.3553270872556267
433.862069,,0.0,433.848,0.5540000200271606,-2.394542354622204
434.327586,,0.0,434.311,0.6039999723434448,-2.285561571354795
434.79310300000003,,0.0,434.774,0.5120000243186951,-2.485902284671473
435.258621,,0.0,435.244,0.5419999957084656,-2.420406225578123
435.724138,,0.0,435.707,0.5680000185966492,-2.3635870899054043
436.189655,,0.0,436.17,0.5540000200271606,-2.393880351182362
436.655172,,0.0,436.635,0.5540000200271606,-2.393645218096123
437.12068999999997,,0.0,437.106,0.574999988079071,-2.3476382286190396
437.586207,,0.0,437.564,0.5630000233650208,-2.373513476726837
438.051724,,0.0,438.029,0.5659999847412109,-2.366704376639086
438.517241,,0.0,438.495,0.5540000200271606,-2.392578894250348
438.982759,,0.0,438.96,0.5130000114440918,-2.4816479285030457
439.448276,,0.0,439.426,0.5839999914169312,-2.326730281656666
439.913793,,0.0,439.893,0.5540000200271606,-2.391884087314189
440.37931000000003,,0.0,440.359,0.5809999704360962,-2.332888801671434
440.844828,,0.0,440.822,0.5450000166893005,-2.4111876531719614
441.310345,,0.0,441.284,0.5640000104904175,-2.369705134887959
441.775862,,0.0,441.752,0.5419999957084656,-2.417594797535313
442.241379,,0.0,442.215,0.5839999914169312,-2.3260995901036785
442.70689699999997,,0.0,442.685,0.5540000200271606,-2.391515138746442
443.172414,,0.0,443.148,0.5529999732971191,-2.393796964097004
443.637931,,0.0,443.613,0.5410000085830688,-2.4200885622162205
444.103448,,0.0,444.077,0.5619999766349792,-2.3745253946356133
444.568966,,0.0,444.543,0.5519999861717224,-2.3965347345179926
445.03448299999997,,0.0,445.007,0.5519999861717224,-2.3967852838823984
445.5,,0.0,445.473,0.5460000038146973,-2.4101280010454706
445.965517,,0.0,445.94,0.5669999718666077,-2.3646590906964144
446.431034,,0.0,446.399,0.574999988079071,-2.347514726690149
446.896552,,0.0,446.864,0.5659999847412109,-2.3674002775131187
447.36206899999996,,0.0,447.329,0.5540000200271606,-2.3938062985445723
447.827586,,0.0,447.8,0.5649999976158142,-2.370080349458697
448.29310300000003,,0.0,448.262,0.5669999718666077,-2.3659313717402037
448.758621,,0.0,448.73,0.578000009059906,-2.3421364942859935
449.224138,,0.0,449.192,0.6019999980926514,-2.289975083683371
449.689655,,0.0,449.658,0.5669999718666077,-2.3663053790497086
450.155172,,0.0,450.124,0.5659999847412109,-2.3685113221968264
450.62068999999997,,0.0,450.589,0.5899999737739563,-2.316200271644105
451.086207,,0.0,451.049,0.5649999976158142,-2.370592454114245
451.551724,,0.0,451.515,0.5490000247955322,-2.405329374610775
452.017241,,0.0,451.981,0.550000011920929,-2.4029867551270847
452.482759,,0.0,452.447,0.550000011920929,-2.4027854916991394
452.94827599999996,,0.0,452.911,0.5540000200271606,-2.393838433852649
453.413793,,0.0,453.377,0.5460000038146973,-2.411011149264542
453.87931,,0.0,453.84,0.5849999785423279,-2.325770619104593
454.344828,,0.0,454.31,0.5419999957084656,-2.419170308372117
454.810345,,0.0,454.77,0.5709999799728394,-2.3557073465640106
455.27586199999996,,0.0,455.24,0.5690000057220459,-2.3597908134539707
455.741379,,0.0,455.704,0.5730000138282776,-2.35081864082208
456.206897,,0.0,456.166,0.5410000085830688,-2.4203024678558362
456.672414,,0.0,456.632,0.5709999799728394,-2.35474240519532
457.137931,,0.0,457.095,0.5540000200271606,-2.3916169741297275
457.603448,,0.0,457.56,0.5479999780654907,-2.4045700223515047
458.06896600000005,,0.0,458.026,0.546999990940094,-2.406677359411477
458.53448299999997,,0.0,458.491,0.5830000042915344,-2.3282239770423896
459.0,,0.0,458.956,0.5960000157356262,-2.2999279235183074
459.465517,,0.0,459.421,0.5450000166893005,-2.4111128465203406
459.931034,,0.0,459.886,0.5509999990463257,-2.3981615649628565
460.39655200000004,,0.0,460.352,0.5659999847412109,-2.365646019701729
460.86206899999996,,0.0,460.815,0.574999988079071,-2.34624010437272
461.327586,,0.0,461.284,0.5839999914169312,-2.326865053505917
461.793103,,0.0,461.746,0.5460000038146973,-2.4099105240608933
462.258621,,0.0,462.209,0.5440000295639038,-2.414542146903917
462.724138,,0.0,462.678,0.5759999752044678,-2.345109289471122
463.18965499999996,,0.0,463.14,0.5669999718666077,-2.365000728659749
463.655172,,0.0,463.606,0.5239999890327454,-2.4589578870706466
464.12069,,0.0,464.071,0.5540000200271606,-2.3938581148072626
464.58620699999994,,0.0,464.537,0.5540000200271606,-2.3940940705130487
465.051724,,0.0,465.004,0.5929999947547913,-2.3093303438441155
465.517241,,0.0,465.47,0.5540000200271606,-2.394461673964607
465.98275900000004,,0.0,465.93,0.5849999785423279,-2.3270432750370253
466.448276,,0.0,466.395,0.5889999866485596,-2.3183996383262517
466.913793,,0.0,466.868,0.550000011920929,-2.4033870166591274
467.37931,,0.0,467.326,0.5630000233650208,-2.375034322330449
467.844828,,0.0,467.789,0.515999972820282,-2.477352418289508
468.31034500000004,,0.0,468.259,0.503000020980835,-2.505552046141241
468.77586199999996,,0.0,468.722,0.550000011920929,-2.4029927816865055
469.241379,,0.0,469.185,0.546999990940094,-2.4093292468038916
469.706897,,0.0,469.65,0.5460000038146973,-2.4112766718702288
470.172414,,0.0,470.114,0.5669999718666077,-2.365268734749992
470.63793100000004,,0.0,470.579,0.5669999718666077,-2.3649939834948603
471.10344799999996,,0.0,471.044,0.578000009059906,-2.3407431943938874
471.568966,,0.0,471.51,0.5419999957084656,-2.418887027508783
472.034483,,0.0,471.975,0.5379999876022339,-2.4273219560171535
472.5,,0.0,472.44,0.5910000205039978,-2.311589961097784
472.965517,,0.0,472.907,0.5419999957084656,-2.4181034962676775
473.43103399999995,,0.0,473.373,0.5759999752044678,-2.3438198784961557
473.89655200000004,,0.0,473.841,0.5540000200271606,-2.3915777513246184
474.362069,,0.0,474.303,0.5540000200271606,-2.391448294546965
474.827586,,0.0,474.766,0.5540000200271606,-2.391366235063806
475.293103,,0.0,475.229,0.593999981880188,-2.3041876526223692
475.758621,,0.0,475.7,0.5540000200271606,-2.3913507098328224
476.22413800000004,,0.0,476.163,0.5529999732971191,-2.393597049233828
476.689655,,0.0,476.628,0.5600000023841858,-2.3784633731252973
477.155172,,0.0,477.092,0.5540000200271606,-2.391698138065452
477.62069,,0.0,477.558,0.5540000200271606,-2.3919024640174755
478.086207,,0.0,478.023,0.5540000200271606,-2.3921423805393567
478.55172400000004,,0.0,478.488,0.5690000057220459,-2.359730838299358
479.01724099999996,,0.0,478.955,0.5720000267028809,-2.3534826825753097
479.482759,,0.0,479.414,0.5709999799728394,-2.3559599850582904
479.948276,,0.0,479.886,0.5540000200271606,-2.3932975657393922
480.413793,,0.0,480.344,0.5450000166893005,-2.413199916104539
480.87931000000003,,0.0,480.815,0.5419999957084656,-2.4200160785852787
481.344828,,0.0,481.277,0.5759999752044678,-2.3461989727474015
481.810345,,0.0,481.741,0.5540000200271606,-2.394354105328469
482.275862,,0.0,482.211,0.574999988079071,-2.3487883014869957
482.74137900000005,,0.0,482.671,0.5529999732971191,-2.3968593784866186
483.206897,,0.0,483.14,0.5849999785423279,-2.327233673181887
483.672414,,0.0,483.606,0.5910000205039978,-2.3141991715881165
484.13793100000004,,0.0,484.064,0.5669999718666077,-2.366468999215101
484.603448,,0.0,484.529,0.5669999718666077,-2.3663969187181597
485.068966,,0.0,484.996,0.5429999828338623,-2.418561077877983
485.534483,,0.0,485.462,0.5299999713897705,-2.4467135261905617
486.0,,0.0,485.927,0.550000011920929,-2.40292932383129
486.46551700000003,,0.0,486.392,0.5419999957084656,-2.4201121088100503
486.931034,,0.0,486.855,0.5799999833106995,-2.3370481234095815
487.396552,,0.0,487.325,0.546999990940094,-2.4086467287532187
487.862069,,0.0,487.785,0.5540000200271606,-2.3930870265931135
488.327586,,0.0,488.256,0.578000009059906,-2.340487176575146
488.79310300000003,,0.0,488.719,0.5540000200271606,-2.3924679935235265
489.258621,,0.0,489.181,0.5389999747276306,-2.424856594039973
489.724138,,0.0,489.647,0.5879999995231628,-2.3178358904329124
490.189655,,0.0,490.109,0.5419999957084656,-2.4178187445388697
490.655172,,0.0,490.575,0.5189999938011169,-2.4677329196052074
491.12069,,0.0,491.04,0.5540000200271606,-2.3913327123248247
491.586207,,0.0,491.506,0.5659999847412109,-2.3650923753198807
492.05172400000004,,0.0,491.97,0.5950000286102295,-2.3018670415885656
492.517241,,0.0,492.436,0.5509999990463257,-2.397736524850088
492.982759,,0.0,492.9,0.5630000233650208,-2.3716556694574074
493.448276,,0.0,493.366,0.5460000038146973,-2.408808961124878
493.913793,,0.0,493.833,0.5640000104904175,-2.3697595655231614
494.37931000000003,,0.0,494.295,0.5419999957084656,-2.417901610033904
494.844828,,0.0,494.763,0.5460000038146973,-2.4094384427666418
495.310345,,0.0,495.226,0.5460000038146973,-2.4097225136940463
495.775862,,0.0,495.689,0.5540000200271606,-2.392601358037961
496.241379,,0.0,496.159,0.5509999990463257,-2.399460007783702
496.70689699999997,,0.0,496.625,0.5770000219345093,-2.343142124733499
497.172414,,0.0,497.084,0.5669999718666077,-2.3652495954665365
497.637931,,0.0,497.549,0.5519999861717224,-2.3982344899515566
498.103448,,0.0,498.014,0.5669999718666077,-2.3658355311616703
498.568966,,0.0,498.48,0.546999990940094,-2.4096563549451258
499.03448299999997,,0.0,498.945,0.5669999718666077,-2.366290947051851
499.5,,0.0,499.411,0.5630000233650208,-2.3751659305612174
499.96551700000003,,0.0,499.878,0.5400000214576721,-2.4253835339721714
500.431034,,0.0,500.343,0.5879999995231628,-2.320861825518318
500.89655200000004,,0.0,500.805,0.550000011920929,-2.4036461430862848
501.362069,,0.0,501.275,0.5820000171661377,-2.333867144905361
501.827586,,0.0,501.737,0.5640000104904175,-2.3729642825221178
502.293103,,0.0,502.2,0.5440000295639038,-2.4163661625946795
502.758621,,0.0,502.67,0.5540000200271606,-2.3943620257575473
503.224138,,0.0,503.133,0.6830000281333923,-2.113055984881444
503.68965499999996,,0.0,503.598,0.5680000185966492,-2.36330269603898
504.15517200000005,,0.0,504.063,0.5419999957084656,-2.4196233814729817
504.62068999999997,,0.0,504.528,0.550000011920929,-2.401856540638718
505.08620699999994,,0.0,504.992,0.5460000038146973,-2.410230774204811
505.55172400000004,,0.0,505.458,0.5659999847412109,-2.366324707097063
506.017241,,0.0,505.923,0.5360000133514404,-2.4313683109935185
506.48275899999993,,0.0,506.388,0.5540000200271606,-2.391864155369296
506.948276,,0.0,506.852,0.5690000057220459,-2.3589317372919885
507.413793,,0.0,507.315,0.5680000185966492,-2.360900198975241
507.87931,,0.0,507.785,0.5519999861717224,-2.3955975124248803
508.344828,,0.0,508.248,0.5540000200271606,-2.3911335206588435
508.810345,,0.0,508.711,0.5509999990463257,-2.397620972000743
509.27586199999996,,0.0,509.181,0.5540000200271606,-2.3910960267705232
509.74137900000005,,0.0,509.639,0.5460000038146973,-2.408595656570511
510.20689699999997,,0.0,510.109,0.5519999861717224,-2.3956515308546913
510.67241399999995,,0.0,510.575,0.574999988079071,-2.3457232373017147
511.13793100000004,,0.0,511.04,0.5649999976158142,-2.3677369526525354
511.603448,,0.0,511.499,0.5699999928474426,-2.3571104884988303
512.0689659999999,,0.0,511.97,0.5669999718666077,-2.363944738069543
512.534483,,0.0,512.429,0.5690000057220459,-2.3599080550359433
513.0,,0.0,512.896,0.5669999718666077,-2.3645988762009553
513.465517,,0.0,513.362,0.550000011920929,-2.401972329069009
513.931034,,0.0,513.825,0.6430000066757202,-2.199686309837353
514.396552,,0.0,514.295,0.5379999876022339,-2.4287536599903725
514.862069,,0.0,514.756,0.5540000200271606,-2.3941778044545963
515.327586,,0.0,515.226,0.5450000166893005,-2.414034853148203
515.793103,,0.0,515.689,0.5540000200271606,-2.3946352348298734
516.258621,,0.0,516.151,0.5920000076293945,-2.3120067450298825
516.724138,,0.0,516.617,0.5450000166893005,-2.4145098076271507
517.189655,,0.0,517.081,0.5789999961853027,-2.3404859935433673
517.655172,,0.0,517.546,0.5690000057220459,-2.362264637784835
518.1206900000001,,0.0,518.011,0.5669999718666077,-2.3665561800737756
518.5862070000001,,0.0,518.477,0.5540000200271606,-2.394757203287224
519.051724,,0.0,518.944,0.5529999732971191,-2.3967633790654093
519.517241,,0.0,519.41,0.5690000057220459,-2.3616862577159066
519.982759,,0.0,519.875,0.5649999976158142,-2.3701421740642035
520.448276,,0.0,520.34,0.5830000042915344,-2.330635006559308
520.9137929999999,,0.0,520.803,0.5730000138282776,-2.352105578458922
521.37931,,0.0,521.266,0.5540000200271606,-2.393169461898065
521.844828,,0.0,521.73,0.5720000267028809,-2.35361929325571
522.310345,,0.0,522.199,0.5929999947547913,-2.307538587954691
522.7758620000001,,0.0,522.671,0.5709999799728394,-2.355154300842599
523.241379,,0.0,523.126,0.5419999957084656,-2.4180455197934907
523.7068969999999,,0.0,523.591,0.5860000252723694,-2.321929786473778
524.172414,,0.0,524.056,0.5920000076293945,-2.308643807109228
524.637931,,0.0,524.522,0.5709999799728394,-2.354228213728697
525.103448,,0.0,524.989,0.5879999995231628,-2.3170761726491844
525.568966,,0.0,525.454,0.5540000200271606,-2.3910915462299758
526.034483,,0.0,525.918,0.597000002861023,-2.2974093682170063
526.5,,0.0,526.384,0.5709999799728394,-2.3541120200867187
526.9655170000001,,0.0,526.845,0.5820000171661377,-2.330260914356971
527.4310340000001,,0.0,527.314,0.5669999718666077,-2.363108340686201
527.8965519999999,,0.0,527.778,0.5889999866485596,-2.3153941357936954
528.362069,,0.0,528.24,0.6290000081062317,-2.2285050986740202
528.827586,,0.0,528.708,0.5669999718666077,-2.3638709599830534
529.293103,,0.0,529.171,0.5740000009536743,-2.3489353575184926
529.7586210000001,,0.0,529.637,0.6060000061988831,-2.279550063899992
530.224138,,0.0,530.099,0.5669999718666077,-2.36485503556741
530.689655,,0.0,530.566,0.5680000185966492,-2.3630107794269257
531.155172,,0.0,531.029,0.5879999995231628,-2.319759611086221
531.62069,,0.0,531.495,0.5799999833106995,-2.3374876493800203
532.086207,,0.0,531.96,0.6119999885559082,-2.2680370541779027
532.5517239999999,,0.0,532.425,0.5860000252723694,-2.3249068501767183
533.017241,,0.0,532.892,0.5860000252723694,-2.3250842397484086
533.482759,,0.0,533.358,0.5929999947547913,-2.309958533751972
533.9482760000001,,0.0,533.819,0.6140000224113464,-2.2642745345352497
534.413793,,0.0,534.289,0.5879999995231628,-2.320927560528934
534.87931,,0.0,534.752,0.6079999804496765,-2.277303031246271
535.344828,,0.0,535.214,0.6050000190734863,-2.2837289361727944
535.810345,,0.0,535.682,0.6169999837875366,-2.2574196917296496
536.275862,,0.0,536.144,0.5929999947547913,-2.3094911912114546
536.7413789999999,,0.0,536.61,0.6190000176429749,-2.2525863985928334
537.206897,,0.0,537.075,0.625,-2.2392181182967494
537.672414,,0.0,537.54,0.597000002861023,-2.299896138206448
538.137931,,0.0,538.007,0.6359999775886536,-2.21458709234909
538.6034480000001,,0.0,538.473,0.652999997138977,-2.177199814594082
539.0689659999999,,0.0,538.937,0.6240000128746033,-2.2400319526879526
539.5344829999999,,0.0,539.403,0.6589999794960022,-2.163443120899276
540.0,,0.0,539.867,0.6129999756813049,-2.2633478975984764
540.465517,,0.0,540.332,0.6700000166893005,-2.13888466999558
540.931034,,0.0,540.8,0.6650000214576721,-2.1495384963830864
541.396552,,0.0,541.262,0.6660000085830688,-2.14716806502227
541.862069,,0.0,541.726,0.6190000176429749,-2.249427695770674
542.327586,,0.0,542.189,0.6700000166893005,-2.1382402409737273
542.7931030000001,,0.0,542.654,0.6190000176429749,-2.249338396368452
543.258621,,0.0,543.126,0.6700000166893005,-2.1382787304703275
543.7241379999999,,0.0,543.584,0.6230000257492065,-2.2407900012808386
544.189655,,0.0,544.049,0.6660000085830688,-2.1472832653045013
544.655172,,0.0,544.514,0.6700000166893005,-2.1387984915307205
545.12069,,0.0,544.981,0.6700000166893005,-2.1390754896503603
545.5862070000001,,0.0,545.447,0.6759999990463257,-2.1263195386030147
546.051724,,0.0,545.911,0.6320000290870667,-2.222526157953113
546.517241,,0.0,546.377,0.6700000166893005,-2.1401043799071036
546.982759,,0.0,546.845,0.6819999814033508,-2.1143364357277483
547.448276,,0.0,547.307,0.699999988079071,-2.0754925361739045
547.9137929999999,,0.0,547.77,0.6449999809265137,-2.195674920383479
548.3793099999999,,0.0,548.24,0.7049999833106995,-2.065287188204062
548.844828,,0.0,548.701,0.6480000019073486,-2.1897656188748797
549.310345,,0.0,549.17,0.6499999761581421,-2.1856598983835394
549.775862,,0.0,549.636,0.6309999823570251,-2.227255246317407
550.241379,,0.0,550.098,0.6190000176429749,-2.253543908822522
550.706897,,0.0,550.564,0.6919999718666077,-2.094586022037796
551.172414,,0.0,551.029,0.7139999866485596,-2.0466715324255715
551.637931,,0.0,551.495,0.7070000171661377,-2.0618671337963335
552.103448,,0.0,551.96,0.6209999918937683,-2.249108067737534
552.568966,,0.0,552.425,0.6320000290870667,-2.2249582429800503
553.034483,,0.0,552.89,0.6830000281333923,-2.113606279532432
553.5,,0.0,553.356,0.7179999947547913,-2.0370606097343944
553.965517,,0.0,553.819,0.7609999775886536,-1.9430390060359637
554.4310340000001,,0.0,554.281,0.6660000085830688,-2.149633832310511
554.896552,,0.0,554.744,0.6700000166893005,-2.1405195098179792
555.3620689999999,,0.0,555.214,0.6579999923706055,-2.166254865203895
555.827586,,0.0,555.678,0.6710000038146973,-2.137527896438599
556.293103,,0.0,556.14,0.6499999761581421,-2.182891775267049
556.758621,,0.0,556.606,0.7120000123977661,-2.04745581450152
557.224138,,0.0,557.071,0.6949999928474426,-2.084171161319024
557.689655,,0.0,557.536,0.6449999809265137,-2.1928304790009188
558.155172,,0.0,558.004,0.6970000267028809,-2.079326071132489
558.6206900000001,,0.0,558.47,0.6660000085830688,-2.146714962626197
559.0862070000001,,0.0,558.929,0.6729999780654907,-2.1313856451760276
559.5517239999999,,0.0,559.395,0.6420000195503235,-2.1989191272349613
560.017241,,0.0,559.867,0.6330000162124634,-2.2185985453665182
560.482759,,0.0,560.325,0.6269999742507935,-2.2318174693610744
560.948276,,0.0,560.793,0.6330000162124634,-2.2189638491171193
561.413793,,0.0,561.255,0.5929999947547913,-2.306393736801053
561.87931,,0.0,561.723,0.6449999809265137,-2.1934450534325274
562.344828,,0.0,562.185,0.6399999856948853,-2.204724734582223
562.8103450000001,,0.0,562.651,0.6690000295639038,-2.1419621181553676
563.275862,,0.0,563.114,0.6439999938011169,-2.196864790870674
563.7413789999999,,0.0,563.58,0.656000018119812,-2.17116163593194
564.206897,,0.0,564.044,0.6370000243186951,-2.212987259844608
564.672414,,0.0,564.51,0.6430000066757202,-2.200323846602573
565.137931,,0.0,564.978,0.6060000061988831,-2.281307092266484
565.603448,,0.0,565.443,0.6620000004768372,-2.1596288248050963
566.068966,,0.0,565.904,0.6190000176429749,-2.2535783064692323
566.534483,,0.0,566.37,0.6819999814033508,-2.116523063865513
567.0,,0.0,566.84,0.625,-2.2408303098157134
567.465517,,0.0,567.302,0.6629999876022339,-2.1580864883063615
567.931034,,0.0,567.77,0.6539999842643738,-2.177657651113078
568.396552,,0.0,568.233,0.5929999947547913,-2.3104385488600805
568.862069,,0.0,568.696,0.6129999756813049,-2.2666743056235528
569.327586,,0.0,569.159,0.5989999771118164,-2.2969157742234945
569.793103,,0.0,569.625,0.6119999885559082,-2.26827305988331
570.2586210000001,,0.0,570.091,0.6370000243186951,-2.213434864299852
570.724138,,0.0,570.557,0.6190000176429749,-2.2522375410502797
571.189655,,0.0,571.022,0.5910000205039978,-2.3127989791432957
571.655172,,0.0,571.488,0.5879999995231628,-2.318881589826019
572.12069,,0.0,571.953,0.5540000200271606,-2.392504899537993
572.586207,,0.0,572.419,0.6000000238418579,-2.2918533845727334
573.051724,,0.0,572.879,0.5849999785423279,-2.3241292505603823
573.517241,,0.0,573.344,0.6230000257492065,-2.240977644543846
573.982759,,0.0,573.815,0.593999981880188,-2.303847511962303
574.4482760000001,,0.0,574.277,0.6060000061988831,-2.2774542182866497
574.913793,,0.0,574.745,0.6079999804496765,-2.2729170065239734
575.37931,,0.0,575.207,0.6179999709129333,-2.2510252688994306
575.844828,,0.0,575.67,0.6019999980926514,-2.2858563689265043
576.310345,,0.0,576.14,0.5889999866485596,-2.314231374258533
576.775862,,0.0,576.606,0.5870000123977661,-2.318720377344392
577.241379,,0.0,577.07,0.625,-2.236138490696585
577.706897,,0.0,577.535,0.5929999947547913,-2.3061300879896103
578.172414,,0.0,578.0,0.5789999961853027,-2.336966524958026
578.6379310000001,,0.0,578.466,0.5820000171661377,-2.330817331978937
579.1034480000001,,0.0,578.931,0.5879999995231628,-2.3181719554470437
579.5689659999999,,0.0,579.389,0.5730000138282776,-2.351304720485542
580.034483,,0.0,579.863,0.5770000219345093,-2.343056116956746
580.5,,0.0,580.321,0.5789999961853027,-2.339163450992359
580.965517,,0.0,580.789,0.5789999961853027,-2.339611921282188
581.431034,,0.0,581.251,0.5699999928474426,-2.3596381655182888
581.896552,,0.0,581.715,0.5879999995231628,-2.3207975373528917
582.362069,,0.0,582.185,0.6060000061988831,-2.2819007790128025
582.827586,,0.0,582.65,0.5830000042915344,-2.3322616870987765
583.2931030000001,,0.0,583.113,0.5920000076293945,-2.3128310002888686
583.758621,,0.0,583.579,0.5899999737739563,-2.3172849830276174
584.2241379999999,,0.0,584.04,0.574999988079071,-2.3499775594687256
584.689655,,0.0,584.506,0.5989999771118164,-2.2976185091475783
585.155172,,0.0,584.97,0.6019999980926514,-2.2909278527983625
585.6206900000001,,0.0,585.436,0.574999988079071,-2.349518002828916
586.0862070000001,,0.0,585.9,0.6019999980926514,-2.2903897472172168
586.551724,,0.0,586.365,0.5839999914169312,-2.3292385236958735
587.017241,,0.0,586.833,0.5820000171661377,-2.3331780709535925
587.482759,,0.0,587.296,0.5799999833106995,-2.337080305146111
587.948276,,0.0,587.759,0.578000009059906,-2.3409592082566357
588.4137929999999,,0.0,588.229,0.5460000038146973,-2.4101900228430235
588.87931,,0.0,588.692,0.5799999833106995,-2.3356381065661753
589.344828,,0.0,589.155,0.5699999928474426,-2.3569691703102564
589.810345,,0.0,589.621,0.5709999799728394,-2.354371541878103
590.2758620000001,,0.0,590.084,0.5170000195503235,-2.4716501628234058
590.741379,,0.0,590.55,0.5540000200271606,-2.3907352661069656
591.2068969999999,,0.0,591.014,0.5759999752044678,-2.3425723970168093
591.672414,,0.0,591.48,0.5849999785423279,-2.3228096022925877
592.137931,,0.0,591.945,0.5669999718666077,-2.3619525243520934
592.603448,,0.0,592.41,0.5540000200271606,-2.390287312755153
593.068966,,0.0,592.878,0.5789999961853027,-2.335918858658485
593.534483,,0.0,593.343,0.5669999718666077,-2.36224226896488
594.0,,0.0,593.804,0.5509999990463257,-2.3973567900934065
594.4655170000001,,0.0,594.273,0.49000000953674316,-2.530581271281331
594.9310340000001,,0.0,594.737,0.5640000104904175,-2.3697498931544487
595.3965519999999,,0.0,595.199,0.5519999861717224,-2.3963306210815616
595.862069,,0.0,595.667,0.5669999718666077,-2.364121097513233
596.327586,,0.0,596.129,0.5419999957084656,-2.4190761362664355
596.793103,,0.0,596.595,0.5460000038146973,-2.4108542860537403
597.2586210000001,,0.0,597.06,0.5460000038146973,-2.4113357736213334
597.724138,,0.0,597.525,0.5910000205039978,-2.313750638505137
598.189655,,0.0,597.992,0.5669999718666077,-2.3664495136366477
598.655172,,0.0,598.458,0.5669999718666077,-2.3668048778456843
599.12069,,0.0,598.923,0.5730000138282776,-2.354021600241898
599.586207,,0.0,599.388,0.550000011920929,-2.404343741162388
600.0517239999999,,0.0,599.852,0.5699999928474426,-2.3609021983536134
600.517241,,0.0,600.315,0.5920000076293945,-2.313016649359551
600.982759,,0.0,600.785,0.5419999957084656,-2.4219056470927467
601.448276,,0.0,601.248,0.5630000233650208,-2.376024705944645
601.913793,,0.0,601.711,0.5630000233650208,-2.3758139748743194
602.37931,,0.0,602.174,0.574999988079071,-2.3493840999190767
602.844828,,0.0,602.64,0.5540000200271606,-2.3947830599466666
603.310345,,0.0,603.11,0.574999988079071,-2.3486237493293474
603.775862,,0.0,603.575,0.6060000061988831,-2.2806345897683955
604.2413789999999,,0.0,604.04,0.5730000138282776,-2.3520490728957535
604.706897,,0.0,604.499,0.550000011920929,-2.4016634748598378
605.172414,,0.0,604.964,0.550000011920929,-2.4011724878794136
605.637931,,0.0,605.429,0.5429999828338623,-2.415951757493221
606.1034480000001,,0.0,605.896,0.5410000085830688,-2.4198724816614976
606.5689659999999,,0.0,606.362,0.5139999985694885,-2.4783087615754074
607.0344829999999,,0.0,606.83,0.5360000133514404,-2.4300531448177196
607.5,,0.0,607.292,0.5669999718666077,-2.36226092713712
607.965517,,0.0,607.755,0.5490000247955322,-2.401299950444937
608.431034,,0.0,608.225,0.5460000038146973,-2.4077424643476903
608.896552,,0.0,608.689,0.5360000133514404,-2.429521816442104
609.362069,,0.0,609.152,0.5699999928474426,-2.3555267397467747
609.827586,,0.0,609.618,0.5540000200271606,-2.39054651113392
610.293103,,0.0,610.081,0.5630000233650208,-2.3711770184429404
610.758621,,0.0,610.547,0.609000027179718,-2.2712657719654428
611.2241379999999,,0.0,611.012,0.5419999957084656,-2.417599775366102
611.689655,,0.0,611.478,0.5210000276565552,-2.463764068690131
612.155172,,0.0,611.945,0.43799999356269836,-2.6450436011110714
612.62069,,0.0,612.41,0.5540000200271606,-2.392797648828179
613.0862070000001,,0.0,612.874,0.5509999990463257,-2.399818943509203
613.551724,,0.0,613.34,0.5339999794960022,-2.437331969091619
614.017241,,0.0,613.8,0.5410000085830688,-2.4225333391314345
614.4827590000001,,0.0,614.27,0.5339999794960022,-2.4381977542389315
614.948276,,0.0,614.73,0.5630000233650208,-2.3753788951100008
615.4137929999999,,0.0,615.199,0.5170000195503235,-2.475895505884777
615.8793099999999,,0.0,615.667,0.5730000138282776,-2.3541172518819846
616.344828,,0.0,616.129,0.5389999747276306,-2.4283371391290043
616.810345,,0.0,616.595,0.5199999809265137,-2.4697928758387984
617.275862,,0.0,617.06,0.5260000228881836,-2.456697388746881
617.741379,,0.0,617.525,0.5270000100135803,-2.4544113074868736
618.206897,,0.0,617.985,0.527999997138977,-2.4520445807237166
618.672414,,0.0,618.45,0.5289999842643738,-2.4496031526997095
619.137931,,0.0,618.916,0.5299999713897705,-2.447095316873735
619.603448,,0.0,619.381,0.5440000295639038,-2.4162086174462463
620.068966,,0.0,619.844,0.5260000228881836,-2.454994593152365
620.534483,,0.0,620.314,0.527999997138977,-2.4501773900838875
621.0,,0.0,620.774,0.5210000276565552,-2.4649526435748537
621.465517,,0.0,621.244,0.5130000114440918,-2.4819067985585224
621.9310340000001,,0.0,621.707,0.5239999890327454,-2.457482010714946
622.396552,,0.0,622.17,0.5400000214576721,-2.4221931587983705
622.862069,,0.0,622.636,0.4950000047683716,-2.5198448934154563
623.327586,,0.0,623.106,0.5320000052452087,-2.43890308426555
623.793103,,0.0,623.564,0.5249999761581421,-2.4538875967410188
624.258621,,0.0,624.03,0.5170000195503235,-2.471124287459424
624.724138,,0.0,624.496,0.5329999923706055,-2.4361533095039367
625.189655,,0.0,624.962,0.5139999985694885,-2.477518064875536
625.655172,,0.0,625.428,0.5239999890327454,-2.4557861267782517
626.1206900000001,,0.0,625.893,0.5130000114440918,-2.4798881757716558
626.5862070000001,,0.0,626.359,0.5239999890327454,-2.456138010694332
627.0517239999999,,0.0,626.822,0.5189999938011169,-2.4673171020857043
627.5172409999999,,0.0,627.285,0.5139999985694885,-2.4785580319354805
627.982759,,0.0,627.755,0.5230000019073486,-2.459348718047951
628.448276,,0.0,628.218,0.5289999842643738,-2.4467131812772736
628.913793,,0.0,628.685,0.5199999809265137,-2.466781036354364
629.37931,,0.0,629.148,0.48899999260902405,-2.5347890354933043
629.844828,,0.0,629.613,0.503000020980835,-2.504753842027778
630.3103450000001,,0.0,630.078,0.5109999775886536,-2.4877718717051476
630.7758620000001,,0.0,630.543,0.515999972820282,-2.4772920653153987
631.2413789999999,,0.0,631.007,0.5149999856948853,-2.479836948363372
631.706897,,0.0,631.473,0.4779999852180481,-2.560755052696744
632.172414,,0.0,631.938,0.4729999899864197,-2.5718898693596817
632.637931,,0.0,632.403,0.5249999761581421,-2.458767369683305
633.103448,,0.0,632.871,0.5220000147819519,-2.465388876602128
633.568966,,0.0,633.329,0.5090000033378601,-2.4937119311185185
634.034483,,0.0,633.8,0.47999998927116394,-2.5568092828561575
634.5,,0.0,634.263,0.5059999823570251,-2.5000001983573403
634.9655170000001,,0.0,634.726,0.5049999952316284,-2.501938561767627
635.431034,,0.0,635.189,0.5090000033378601,-2.4929146207919803
635.8965519999999,,0.0,635.654,0.5,-2.5121538115037723
636.362069,,0.0,636.125,0.5149999856948853,-2.4790576907218944
636.827586,,0.0,636.591,0.503000020980835,-2.5047502052952186
637.293103,,0.0,637.055,0.47200000286102295,-2.571817400676496
637.7586210000001,,0.0,637.521,0.5009999871253967,-2.508161611357551
638.224138,,0.0,637.985,0.5239999890327454,-2.457587743806034
638.689655,,0.0,638.451,0.5040000081062317,-2.500719515925623
639.155172,,0.0,638.915,0.5080000162124634,-2.491601748867194
639.62069,,0.0,639.38,0.4350000023841858,-2.6502924772972825
640.086207,,0.0,639.841,0.5180000066757202,-2.469178625422522
640.551724,,0.0,640.31,0.5199999809265137,-2.4646074877777164
641.017241,,0.0,640.771,0.5270000100135803,-2.4492201116976133
641.482759,,0.0,641.234,0.515999972820282,-2.473130037746834
641.9482760000001,,0.0,641.704,0.503000020980835,-2.501480987931685
642.413793,,0.0,642.166,0.5170000195503235,-2.4710921584115875
642.87931,,0.0,642.631,0.5149999856948853,-2.4756418606095285
643.344828,,0.0,643.094,0.515999972820282,-2.473729597400995
643.810345,,0.0,643.56,0.4959999918937683,-2.5176351347777035
644.275862,,0.0,644.026,0.5210000276565552,-2.463557655293946
644.7413789999999,,0.0,644.491,0.5249999761581421,-2.455275542174399
645.206897,,0.0,644.955,0.5180000066757202,-2.470988005841343
645.672414,,0.0,645.421,0.5339999794960022,-2.436606783667261
646.1379310000001,,0.0,645.889,0.515999972820282,-2.476299716840828
646.6034480000001,,0.0,646.355,0.5049999952316284,-2.5007278684727963
647.0689659999999,,0.0,646.818,0.5080000162124634,-2.494626987617595
647.534483,,0.0,647.28,0.5299999713897705,-2.4470900124793245
648.0,,0.0,647.749,0.5249999761581421,-2.45832140460225
648.465517,,0.0,648.211,0.5180000066757202,-2.473844229217353
648.931034,,0.0,648.674,0.5170000195503235,-2.4762211450336786
649.396552,,0.0,649.144,0.5130000114440918,-2.4850539269342895
649.862069,,0.0,649.609,0.5180000066757202,-2.4741949706193918
650.327586,,0.0,650.074,0.5339999794960022,-2.439285390793549
650.7931030000001,,0.0,650.54,0.5199999809265137,-2.469650704246363
651.258621,,0.0,651.0,0.5070000290870667,-2.4977573063207306
651.7241379999999,,0.0,651.465,0.5379999876022339,-2.429930345049034
652.189655,,0.0,651.929,0.5210000276565552,-2.4666134743514556
652.655172,,0.0,652.395,0.5260000228881836,-2.4553124355593874
653.12069,,0.0,652.867,0.5130000114440918,-2.4831861580228507
653.5862070000001,,0.0,653.325,0.5270000100135803,-2.452209494431817
654.051724,,0.0,653.789,0.5410000085830688,-2.421220291135444
654.517241,,0.0,654.259,0.5149999856948853,-2.477379534336693
654.982759,,0.0,654.722,0.5210000276565552,-2.4638401295503125
655.448276,,0.0,655.184,0.5170000195503235,-2.4721206324250686
655.9137929999999,,0.0,655.65,0.5109999775886536,-2.4848056420048543
656.37931,,0.0,656.12,0.527999997138977,-2.447440917978716
656.844828,,0.0,656.586,0.5289999842643738,-2.4450038157408
657.310345,,0.0,657.044,0.5419999957084656,-2.416499667171249
657.7758620000001,,0.0,657.51,0.5180000066757202,-2.468688148443678
658.241379,,0.0,657.974,0.5180000066757202,-2.46867564629857
658.7068969999999,,0.0,658.44,0.5239999890327454,-2.4556788113620445
659.172414,,0.0,658.904,0.5049999952316284,-2.4972336771780954
659.637931,,0.0,659.37,0.5210000276565552,-2.4626167546142774
660.103448,,0.0,659.841,0.5419999957084656,-2.417179688016948
660.568966,,0.0,660.303,0.5289999842643738,-2.4458790742875967
661.034483,,0.0,660.77,0.5360000133514404,-2.4310561212285635
661.5,,0.0,661.233,0.5270000100135803,-2.451129266231573
661.965517,,0.0,661.696,0.5199999809265137,-2.4668687104869607
662.4310340000001,,0.0,662.159,0.515999972820282,-2.476081009021313
662.8965519999999,,0.0,662.624,0.5419999957084656,-2.4199268855518534
663.362069,,0.0,663.091,0.5220000147819519,-2.4639678891989023
663.827586,,0.0,663.556,0.5379999876022339,-2.429540175329181
664.293103,,0.0,664.025,0.5419999957084656,-2.421204914487254
664.7586210000001,,0.0,664.484,0.550000011920929,-2.404091251967974
665.224138,,0.0,664.955,0.5360000133514404,-2.434834074911996
665.689655,,0.0,665.421,0.5289999842643738,-2.4502454794224917
666.155172,,0.0,665.885,0.515999972820282,-2.478643477264878
666.62069,,0.0,666.351,0.550000011920929,-2.4045571204662326
667.086207,,0.0,666.811,0.5370000004768372,-2.4327791464048993
667.5517239999999,,0.0,667.281,0.5460000038146973,-2.4129853329715294
668.017241,,0.0,667.744,0.527999997138977,-2.451935514326563
668.482759,,0.0,668.207,0.5419999957084656,-2.4210978194256993
668.948276,,0.0,668.675,0.5410000085830688,-2.4228790301268655
669.413793,,0.0,669.138,0.5370000004768372,-2.4311476548280586
669.87931,,0.0,669.604,0.5849999785423279,-2.3260911551780263
670.3448279999999,,0.0,670.07,0.5199999809265137,-2.4672011332921686
670.810345,,0.0,670.536,0.5410000085830688,-2.4209433025475455
671.275862,,0.0,671.0,0.5289999842643738,-2.446593667067354
671.7413789999999,,0.0,671.465,0.5429999828338623,-2.4156270850731376
672.206897,,0.0,671.93,0.5239999890327454,-2.456598613991597
672.672414,,0.0,672.396,0.5270000100135803,-2.4496962522028296
673.137931,,0.0,672.863,0.5009999871253967,-2.506043519851077
673.6034480000001,,0.0,673.321,0.527999997138977,-2.4470007918286787
674.068966,,0.0,673.789,0.5410000085830688,-2.4185437364599043
674.5344829999999,,0.0,674.251,0.5210000276565552,-2.4620702536027252
675.0,,0.0,674.715,0.527999997138977,-2.446863314720402
675.465517,,0.0,675.184,0.5419999957084656,-2.4164941806362497
675.931034,,0.0,675.65,0.5320000052452087,-2.438496370415626
676.396552,,0.0,676.113,0.5329999923706055,-2.436610529412625
676.862069,,0.0,676.578,0.5109999775886536,-2.4849020405797897
677.327586,,0.0,677.045,0.4950000047683716,-2.520179720813799
677.793103,,0.0,677.504,0.5339999794960022,-2.4356770186287044
678.2586210000001,,0.0,677.97,0.5379999876022339,-2.4274562583383283
678.7241379999999,,0.0,678.436,0.5299999713897705,-2.445392290084266
679.1896549999999,,0.0,678.9,0.5540000200271606,-2.393608124531301
679.655172,,0.0,679.366,0.5669999718666077,-2.365769167553883
680.12069,,0.0,679.834,0.546999990940094,-2.4097896000240446
680.5862070000001,,0.0,680.296,0.5289999842643738,-2.44940375478729
681.051724,,0.0,680.759,0.5669999718666077,-2.36695246504144
681.517241,,0.0,681.229,0.5419999957084656,-2.4216838337479905
681.9827590000001,,0.0,681.689,0.5350000262260437,-2.4371195528503247
682.448276,,0.0,682.159,0.5419999957084656,-2.4219693639411597
682.9137929999999,,0.0,682.625,0.5460000038146973,-2.4132669538691585
683.3793099999999,,0.0,683.091,0.5419999957084656,-2.421905324368185
683.844828,,0.0,683.549,0.5540000200271606,-2.395599259750079
684.310345,,0.0,684.018,0.515999972820282,-2.4781454929493614
684.775862,,0.0,684.484,0.5379999876022339,-2.429900927008464
685.241379,,0.0,684.949,0.550000011920929,-2.403380820396251
685.706897,,0.0,685.414,0.5239999890327454,-2.45959904277435
686.172414,,0.0,685.874,0.5230000019073486,-2.4613147678300056
686.637931,,0.0,686.34,0.5400000214576721,-2.4237933798874094
687.103448,,0.0,686.807,0.5419999957084656,-2.4189449444112383
687.5689659999999,,0.0,687.27,0.531000018119812,-2.4424271263458652
688.034483,,0.0,687.741,0.5450000166893005,-2.4114665826387998
688.5,,0.0,688.204,0.5339999794960022,-2.435009978472361
688.965517,,0.0,688.667,0.5460000038146973,-2.4084949460982408
689.4310340000001,,0.0,689.129,0.5820000171661377,-2.329753555185897
689.896552,,0.0,689.596,0.5299999713897705,-2.4428035972597257
690.362069,,0.0,690.063,0.5260000228881836,-2.451357181719109
690.827586,,0.0,690.529,0.5490000247955322,-2.4011718814329406
691.293103,,0.0,690.993,0.5249999761581421,-2.4534696674085046
691.758621,,0.0,691.459,0.531000018119812,-2.440494141532019
692.224138,,0.0,691.925,0.5230000019073486,-2.458103395834266
692.689655,,0.0,692.384,0.5260000228881836,-2.4518253136784205
693.155172,,0.0,692.852,0.5339999794960022,-2.434723633222078
693.6206900000001,,0.0,693.315,0.5540000200271606,-2.391536305823155
694.0862070000001,,0.0,693.785,0.5419999957084656,-2.418111287503224
694.551724,,0.0,694.248,0.5210000276565552,-2.4643262051705506
695.0172409999999,,0.0,694.711,0.515999972820282,-2.4757016195152897
695.482759,,0.0,695.174,0.5540000200271606,-2.3933982551969644
695.948276,,0.0,695.64,0.5529999732971191,-2.3960491702556626
696.4137929999999,,0.0,696.11,0.5479999780654907,-2.4073859093666488
696.87931,,0.0,696.575,0.515999972820282,-2.4775044685474614
697.344828,,0.0,697.04,0.5379999876022339,-2.4299225475009893
697.8103450000001,,0.0,697.499,0.5419999957084656,-2.4214918137474823
698.2758620000001,,0.0,697.97,0.5509999990463257,-2.402093806462139
698.741379,,0.0,698.429,0.5460000038146973,-2.41311609081298
699.206897,,0.0,698.901,0.550000011920929,-2.404445808459483
699.672414,,0.0,699.359,0.5460000038146973,-2.4131188850395
700.137931,,0.0,699.83,0.5339999794960022,-2.439137168373468
700.603448,,0.0,700.292,0.5460000038146973,-2.412788237312806
701.068966,,0.0,700.759,0.5419999957084656,-2.4212247766358352
701.534483,,0.0,701.222,0.5519999861717224,-2.3990959508826952
702.0,,0.0,701.685,0.5419999957084656,-2.4204866577737407
702.4655170000001,,0.0,702.155,0.5440000295639038,-2.41569290527792
702.931034,,0.0,702.62,0.5329999923706055,-2.43919534836605
703.3965519999999,,0.0,703.084,0.5329999923706055,-2.4387212340458815
703.862069,,0.0,703.549,0.5669999718666077,-2.3641763225086856
704.327586,,0.0,704.015,0.5210000276565552,-2.4639408584742615
704.793103,,0.0,704.48,0.5540000200271606,-2.3916246507310817
705.2586210000001,,0.0,704.945,0.5540000200271606,-2.3912490908272828
705.724138,,0.0,705.411,0.5329999923706055,-2.4366819922909375
706.189655,,0.0,705.87,0.5490000247955322,-2.401571937273793
706.6551720000001,,0.0,706.336,0.5429999828338623,-2.4144672285567506
707.12069,,0.0,706.805,0.5339999794960022,-2.4339787935888073
707.586207,,0.0,707.267,0.5630000233650208,-2.370784764083538
708.051724,,0.0,707.73,0.5329999923706055,-2.436214257410653
708.517241,,0.0,708.2,0.5389999747276306,-2.4232934866885856
708.982759,,0.0,708.671,0.5429999828338623,-2.4148064126965934
709.4482760000001,,0.0,709.125,0.5379999876022339,-2.4259961154260203
709.913793,,0.0,709.591,0.5529999732971191,-2.3936721047207885
710.37931,,0.0,710.056,0.5540000200271606,-2.3918964138060517
710.844828,,0.0,710.522,0.4860000014305115,-2.540483135262348
711.310345,,0.0,710.989,0.550000011920929,-2.4015109386390456
711.775862,,0.0,711.455,0.5320000052452087,-2.4411953784918126
712.2413789999999,,0.0,711.915,0.5460000038146973,-2.4111546767403524
712.706897,,0.0,712.381,0.5690000057220459,-2.3614825111679827
713.172414,,0.0,712.844,0.5210000276565552,-2.4664567091462364
713.637931,,0.0,713.314,0.5680000185966492,-2.364409485746043
714.1034480000001,,0.0,713.774,0.5649999976158142,-2.3712331419047694
714.5689659999999,,0.0,714.244,0.5339999794960022,-2.438988187225181
715.034483,,0.0,714.704,0.5400000214576721,-2.4260567066402907
715.5,,0.0,715.174,0.5669999718666077,-2.367293016649338
715.965517,,0.0,715.64,0.5519999861717224,-2.399949164138586
716.431034,,0.0,716.102,0.5540000200271606,-2.3954859549722127
716.896552,,0.0,716.568,0.5059999823570251,-2.499877815061368
717.362069,,0.0,717.034,0.5419999957084656,-2.4211926321408908
717.827586,,0.0,717.5,0.5389999747276306,-2.4274123046758405
718.2931030000001,,0.0,717.959,0.5370000004768372,-2.431400345889696
718.758621,,0.0,718.425,0.5649999976158142,-2.3699875207539662
719.2241379999999,,0.0,718.889,0.5320000052452087,-2.44144353893756
719.689655,,0.0,719.355,0.5540000200271606,-2.3930593924883117
720.155172,,0.0,719.822,0.5540000200271606,-2.3926053425855685
720.62069,,0.0,720.285,0.5460000038146973,-2.4095944532753437
721.0862070000001,,0.0,720.756,0.5659999847412109,-2.365609203246669
721.551724,,0.0,721.218,0.5799999833106995,-2.3347358259425723
722.017241,,0.0,721.682,0.5519999861717224,-2.395417158090101
722.482759,,0.0,722.144,0.5429999828338623,-2.41476677322787
722.948276,,0.0,722.61,0.5370000004768372,-2.4276521861117337
723.4137929999999,,0.0,723.075,0.546999990940094,-2.405757176407377
723.87931,,0.0,723.54,0.5339999794960022,-2.4340523938702376
724.344828,,0.0,724.007,0.5540000200271606,-2.390534080460835
724.810345,,0.0,724.473,0.5210000276565552,-2.4625645283151107
725.2758620000001,,0.0,724.938,0.527999997138977,-2.447525681861365
725.741379,,0.0,725.404,0.5419999957084656,-2.4173060208582973
726.2068969999999,,0.0,725.87,0.4970000088214874,-2.515687462161053
726.672414,,0.0,726.329,0.527999997138977,-2.448542158149829
727.137931,,0.0,726.798,0.5419999957084656,-2.4184710429443315
727.603448,,0.0,727.26,0.5299999713897705,-2.445067149666147
728.068966,,0.0,727.73,0.5440000295639038,-2.4150257005116536
728.534483,,0.0,728.192,0.5460000038146973,-2.411120454238094
729.0,,0.0,728.659,0.5440000295639038,-2.4159069624718197
729.465517,,0.0,729.124,0.5239999890327454,-2.459873090242435
729.9310340000001,,0.0,729.59,0.5509999990463257,-2.4013939640727338
730.3965519999999,,0.0,730.056,0.5379999876022339,-2.430000719376345
730.8620689999999,,0.0,730.514,0.5379999876022339,-2.4302157085614335
731.327586,,0.0,730.981,0.628000020980835,-2.234274570001951
731.793103,,0.0,731.447,0.550000011920929,-2.4042627522680675
732.2586210000001,,0.0,731.911,0.5289999842643738,-2.449984249423593
732.724138,,0.0,732.377,0.5540000200271606,-2.395407060841707
733.189655,,0.0,732.845,0.531000018119812,-2.445328193616002
733.655172,,0.0,733.308,0.5460000038146973,-2.412390219233977
734.12069,,0.0,733.77,0.5709999799728394,-2.3576033219218977
734.586207,,0.0,734.24,0.5260000228881836,-2.4552695209488196
735.0517239999999,,0.0,734.7,0.5429999828338623,-2.4178206417397416
735.517241,,0.0,735.17,0.5440000295639038,-2.4152046710648114
735.982759,,0.0,735.635,0.527999997138977,-2.44961486580698
736.448276,,0.0,736.098,0.5389999747276306,-2.425205450321252
736.913793,,0.0,736.564,0.5419999957084656,-2.4182433327019313
737.37931,,0.0,737.03,0.5360000133514404,-2.430920841066677
737.844828,,0.0,737.495,0.515999972820282,-2.474144589087533
738.310345,,0.0,737.96,0.5379999876022339,-2.425921610938967
738.775862,,0.0,738.426,0.6449999809265137,-2.192577004811872
739.2413789999999,,0.0,738.885,0.5329999923706055,-2.436424985883253
739.706897,,0.0,739.351,0.5540000200271606,-2.3905879290125087
740.172414,,0.0,739.819,0.5339999794960022,-2.4341553715656215
740.637931,,0.0,740.281,0.5260000228881836,-2.4516591912320287
741.1034480000001,,0.0,740.744,0.5529999732971191,-2.3929884983379393
741.568966,,0.0,741.214,0.5320000052452087,-2.4389652705106655
742.034483,,0.0,741.675,0.5630000233650208,-2.3717170736546236
742.5,,0.0,742.144,0.5509999990463257,-2.3982055915776024
742.965517,,0.0,742.609,0.5379999876022339,-2.4269162804173314
743.431034,,0.0,743.074,0.5199999809265137,-2.466552139467788
743.896552,,0.0,743.539,0.5299999713897705,-2.4452047831434554
744.362069,,0.0,744.003,0.531000018119812,-2.4434696993233906
744.827586,,0.0,744.469,0.5490000247955322,-2.404687134667139
745.293103,,0.0,744.933,0.5529999732971191,-2.396380299842572
745.7586210000001,,0.0,745.399,0.5379999876022339,-2.4294286175097
746.2241379999999,,0.0,745.864,0.652999997138977,-2.1791997876211204
746.6896549999999,,0.0,746.33,0.5419999957084656,-2.4212807397282843
747.155172,,0.0,746.792,0.5529999732971191,-2.3974953132590686
747.62069,,0.0,747.255,0.5419999957084656,-2.421565065152118
748.086207,,0.0,747.719,0.5429999828338623,-2.419413074656669
748.551724,,0.0,748.188,0.5429999828338623,-2.4193611702778037
749.017241,,0.0,748.654,0.5009999871253967,-2.510736618494612
749.4827590000001,,0.0,749.118,0.5210000276565552,-2.466965313508943
749.9482760000001,,0.0,749.583,0.5299999713897705,-2.4470953109680624
750.4137929999999,,0.0,750.049,0.5419999957084656,-2.4206327113212556
750.8793099999999,,0.0,750.514,0.5419999957084656,-2.420267163466582
751.344828,,0.0,750.974,0.5339999794960022,-2.437295770133438
751.810345,,0.0,751.439,0.5289999842643738,-2.4477666124608013
752.275862,,0.0,751.904,0.5260000228881836,-2.4538722969522175
752.741379,,0.0,752.369,0.5180000066757202,-2.4708777308928402
753.206897,,0.0,752.837,0.5419999957084656,-2.418186240832675
753.672414,,0.0,753.299,0.5389999747276306,-2.424350377197057
754.1379310000001,,0.0,753.767,0.5389999747276306,-2.4240221224673655
754.603448,,0.0,754.23,0.5199999809265137,-2.4651426687312226
755.0689659999999,,0.0,754.7,0.550000011920929,-2.399572688741081
755.534483,,0.0,755.163,0.5289999842643738,-2.445183587455516
756.0,,0.0,755.628,0.5450000166893005,-2.4102583427106965
756.465517,,0.0,756.092,0.5419999957084656,-2.416803490192394
756.931034,,0.0,756.557,0.5529999732971191,-2.3929227613658095
757.396552,,0.0,757.022,0.5329999923706055,-2.43665257503397
757.862069,,0.0,757.488,0.5320000052452087,-2.4390561137794466
758.3275860000001,,0.0,757.953,0.5199999809265137,-2.465486366529674
758.793103,,0.0,758.418,0.5699999928474426,-2.356892142823968
759.258621,,0.0,758.885,0.5339999794960022,-2.435701865229993
759.724138,,0.0,759.351,0.5669999718666077,-2.364212546295346
760.189655,,0.0,759.811,0.5419999957084656,-2.4190995505188053
760.655172,,0.0,760.274,0.5419999957084656,-2.419522050007449
761.1206900000001,,0.0,760.744,0.5260000228881836,-2.454791903731435
761.5862070000001,,0.0,761.207,0.5460000038146973,-2.41160666577094
762.051724,,0.0,761.67,0.5460000038146973,-2.4119577785384023
762.517241,,0.0,762.14,0.5379999876022339,-2.4296901417260637
762.982759,,0.0,762.599,0.550000011920929,-2.403791895363517
763.448276,,0.0,763.064,0.5979999899864197,-2.299395846593794
763.9137929999999,,0.0,763.529,0.5339999794960022,-2.438935487296
764.37931,,0.0,763.997,0.5609999895095825,-2.3801427212227546
764.844828,,0.0,764.463,0.5170000195503235,-2.475958883223367
765.310345,,0.0,764.93,0.5429999828338623,-2.419196804313425
765.7758620000001,,0.0,765.395,0.492000013589859,-2.530122252500694
766.241379,,0.0,765.86,0.527999997138977,-2.451443685094569
766.706897,,0.0,766.326,0.5789999961853027,-2.3400301857230006
767.172414,,0.0,766.789,0.5260000228881836,-2.4551489362628858
767.637931,,0.0,767.251,0.5379999876022339,-2.428620259698313
768.103448,,0.0,767.715,0.5339999794960022,-2.436927328289947
768.568966,,0.0,768.184,0.531000018119812,-2.4430459014030887
769.034483,,0.0,768.65,0.5270000100135803,-2.45134689048342
769.5,,0.0,769.113,0.5299999713897705,-2.44441422493456
769.9655170000001,,0.0,769.579,0.5540000200271606,-2.391758527084179
770.4310340000001,,0.0,770.039,0.5460000038146973,-2.4088592722469335
770.8965519999999,,0.0,770.505,0.492000013589859,-2.5262285164256784
771.362069,,0.0,770.97,0.5339999794960022,-2.434508302196886
771.827586,,0.0,771.436,0.5370000004768372,-2.427822187101452
772.293103,,0.0,771.901,0.5540000200271606,-2.3907052814034153
772.7586210000001,,0.0,772.367,0.5220000147819519,-2.460414853548143
773.224138,,0.0,772.829,0.5630000233650208,-2.371155866535449
773.689655,,0.0,773.299,0.546999990940094,-2.406150073843057
774.155172,,0.0,773.759,0.5540000200271606,-2.391100714442154
774.62069,,0.0,774.229,0.5289999842643738,-2.445827961525354
775.086207,,0.0,774.692,0.5370000004768372,-2.428711852875338
775.551724,,0.0,775.155,0.5540000200271606,-2.392030135809124
776.017241,,0.0,775.621,0.5540000200271606,-2.392415849612051
776.482759,,0.0,776.084,0.550000011920929,-2.4015342573383855
776.9482760000001,,0.0,776.55,0.5070000290870667,-2.495626398508134
777.413793,,0.0,777.015,0.5180000066757202,-2.4720667459208268
777.87931,,0.0,777.48,0.5419999957084656,-2.420167094897706
778.344828,,0.0,777.945,0.5329999923706055,-2.4401322340076814
778.810345,,0.0,778.411,0.5460000038146973,-2.4121248739937933
779.275862,,0.0,778.878,0.5860000252723694,-2.3252408192454284
779.7413789999999,,0.0,779.343,0.5049999952316284,-2.5019118598092405
780.206897,,0.0,779.804,0.5239999890327454,-2.4606520230748568
780.672414,,0.0,780.273,0.5339999794960022,-2.438930540146527
781.137931,,0.0,780.734,0.5360000133514404,-2.434565816242339
781.6034480000001,,0.0,781.204,0.550000011920929,-2.4039846806718144
782.0689659999999,,0.0,781.667,0.5379999876022339,-2.4299778794417297
782.5344829999999,,0.0,782.129,0.5519999861717224,-2.399260134851101
783.0,,0.0,782.595,0.49000000953674316,-2.534061259609177
783.465517,,0.0,783.063,0.5419999957084656,-2.4204476702714572
783.931034,,0.0,783.528,0.5669999718666077,-2.365617642643085
784.396552,,0.0,783.992,0.5540000200271606,-2.3935457739186385
784.862069,,0.0,784.458,0.5389999747276306,-2.4258136473025855
785.327586,,0.0,784.923,0.5419999957084656,-2.4188615749128064
785.7931030000001,,0.0,785.389,0.5189999938011169,-2.46856396632459
786.258621,,0.0,785.852,0.5389999747276306,-2.4246072004095645
786.7241379999999,,0.0,786.314,0.5329999923706055,-2.437329793499642
787.189655,,0.0,786.782,0.5519999861717224,-2.395631221317209
787.655172,,0.0,787.245,0.5199999809265137,-2.4650983345557544
788.12069,,0.0,787.715,0.5410000085830688,-2.4191598573427773
788.5862070000001,,0.0,788.177,0.5419999957084656,-2.4168630353905045
789.051724,,0.0,788.642,0.5239999890327454,-2.4560327771036152
789.517241,,0.0,789.105,0.5199999809265137,-2.4647758969948703
789.982759,,0.0,789.571,0.5669999718666077,-2.3624811263866135
790.448276,,0.0,790.038,0.527999997138977,-2.4476192283591196
790.9137929999999,,0.0,790.503,0.5460000038146973,-2.408638420397049
791.3793099999999,,0.0,790.97,0.5360000133514404,-2.4307167890073775
791.844828,,0.0,791.436,0.5460000038146973,-2.4092699914729625
792.310345,,0.0,791.901,0.5239999890327454,-2.4575774111748014
792.7758620000001,,0.0,792.359,0.5260000228881836,-2.4536234216479063
793.241379,,0.0,792.829,0.546999990940094,-2.4082888653071777
793.7068969999999,,0.0,793.292,0.5199999809265137,-2.4675296832656985
794.172414,,0.0,793.76,0.5540000200271606,-2.3938599557361924
794.637931,,0.0,794.222,0.5540000200271606,-2.394238098056934
795.103448,,0.0,794.685,0.5329999923706055,-2.440329542230748
795.568966,,0.0,795.155,0.5429999828338623,-2.4188343798833194
796.034483,,0.0,795.62,0.5419999957084656,-2.421246774293558
796.5,,0.0,796.084,0.5400000214576721,-2.4257728051808516
796.965517,,0.0,796.55,0.5460000038146973,-2.412799429095743
797.4310340000001,,0.0,797.014,0.5379999876022339,-2.4302536902190686
797.8965519999999,,0.0,797.481,0.5230000019073486,-2.4628846425630404
798.3620689999999,,0.0,797.94,0.5540000200271606,-2.395225558447993
798.827586,,0.0,798.406,0.5419999957084656,-2.421179405098344
799.293103,,0.0,798.871,0.5540000200271606,-2.3947820360297776
799.758621,,0.0,799.337,0.5400000214576721,-2.4249740179805546
800.224138,,0.0,799.8,0.5419999957084656,-2.4202620229111345
800.689655,,0.0,800.27,0.5540000200271606,-2.3937288500238725
801.155172,,0.0,800.73,0.5460000038146973,-2.4107460422798916
801.62069,,0.0,801.199,0.5379999876022339,-2.427753687601142
802.086207,,0.0,801.67,0.5230000019073486,-2.4600162424126175
802.5517239999999,,0.0,802.125,0.5339999794960022,-2.435652036355487
803.017241,,0.0,802.591,0.5529999732971191,-2.3938886718850614
803.482759,,0.0,803.055,0.5389999747276306,-2.424061699506328
803.948276,,0.0,803.521,0.546999990940094,-2.4063557072407313
804.413793,,0.0,803.986,0.5339999794960022,-2.4344616067317086
804.87931,,0.0,804.451,0.5460000038146973,-2.4081683220920422
805.344828,,0.0,804.918,0.5429999828338623,-2.414626563090899
805.810345,,0.0,805.384,0.49000000953674316,-2.5300921976534463
806.275862,,0.0,805.845,0.550000011920929,-2.3994465674804664
806.7413789999999,,0.0,806.314,0.546999990940094,-2.4061284068920035
807.206897,,0.0,806.778,0.5460000038146973,-2.4085197805547702
807.672414,,0.0,807.24,0.5690000057220459,-2.3586834660990457
808.137931,,0.0,807.704,0.5440000295639038,-2.41347321516529
808.603448,,0.0,808.174,0.5299999713897705,-2.4443396074635397
809.068966,,0.0,808.639,0.5289999842643738,-2.4469146227955227
809.534483,,0.0,809.102,0.5370000004768372,-2.4299007642921646
810.0,,0.0,809.567,0.550000011920929,-2.401999116163096
810.465517,,0.0,810.034,0.5299999713897705,-2.4459850037623596
810.931034,,0.0,810.5,0.5230000019073486,-2.4616279900147617
811.396552,,0.0,810.96,0.5429999828338623,-2.4184151870230415
811.862069,,0.0,811.425,0.5640000104904175,-2.372978921854501
812.327586,,0.0,811.892,0.5049999952316284,-2.5017799893892634
812.793103,,0.0,812.358,0.5460000038146973,-2.41265421220073
813.2586210000001,,0.0,812.826,0.5419999957084656,-2.421499164394194
813.724138,,0.0,813.288,0.5440000295639038,-2.4171987898237597
814.1896549999999,,0.0,813.756,0.5339999794960022,-2.4389673781007004
814.655172,,0.0,814.218,0.5509999990463257,-2.401837792025381
815.12069,,0.0,814.681,0.5460000038146973,-2.4125665143422217
815.586207,,0.0,815.144,0.5419999957084656,-2.4210496690523073
816.051724,,0.0,815.61,0.527999997138977,-2.4512600894345167
816.517241,,0.0,816.074,0.5419999957084656,-2.4204185679322747
816.982759,,0.0,816.539,0.5460000038146973,-2.411324072501915
817.4482760000001,,0.0,817.004,0.5299999713897705,-2.4457749981514434
817.913793,,0.0,817.469,0.5299999713897705,-2.445353120970173
818.3793099999999,,0.0,817.94,0.5299999713897705,-2.4449304309212794
818.844828,,0.0,818.399,0.5040000081062317,-2.50116546097203
819.310345,,0.0,818.867,0.5270000100135803,-2.450673033317685
819.775862,,0.0,819.333,0.527999997138977,-2.4481487641149977
820.241379,,0.0,819.796,0.515999972820282,-2.4739953046662353
820.706897,,0.0,820.259,0.5450000166893005,-2.4105745248360866
821.172414,,0.0,820.726,0.5019999742507935,-2.5040814747696984
821.6379310000001,,0.0,821.196,0.5370000004768372,-2.4277242136358206
822.1034480000001,,0.0,821.654,0.5339999794960022,-2.434229007112947
822.5689659999999,,0.0,822.125,0.5350000262260437,-2.432092636189679
823.034483,,0.0,822.584,0.5299999713897705,-2.4431006530236856
823.5,,0.0,823.049,0.5490000247955322,-2.4018892770588103
823.965517,,0.0,823.515,0.5320000052452087,-2.4391717880646313
824.431034,,0.0,823.981,0.5649999976158142,-2.367576149030446
824.896552,,0.0,824.447,0.5230000019073486,-2.4594240516058155
825.362069,,0.0,824.911,0.5529999732971191,-2.3944438622363355
825.827586,,0.0,825.377,0.5329999923706055,-2.438418919426366
826.293103,,0.0,825.845,0.546999990940094,-2.4083303457582157
826.758621,,0.0,826.307,0.5170000195503235,-2.4741003684963427
827.224138,,0.0,826.774,0.5400000214576721,-2.4243879191261746
827.689655,,0.0,827.236,0.5139999985694885,-2.4814031883040832
828.155172,,0.0,827.704,0.5249999761581421,-2.457771203688614
828.6206900000001,,0.0,828.166,0.5680000185966492,-2.364374052258729
829.0862070000001,,0.0,828.632,0.5410000085830688,-2.4234241036909085
829.551724,,0.0,829.096,0.5440000295639038,-2.417049439015515
830.017241,,0.0,829.561,0.550000011920929,-2.4040691016539095
830.482759,,0.0,830.026,0.5329999923706055,-2.4411251895776616
830.948276,,0.0,830.492,0.5839999914169312,-2.3299596666108915
831.4137929999999,,0.0,830.955,0.5450000166893005,-2.4148000513537213
831.87931,,0.0,831.421,0.531000018119812,-2.4451066561294024
832.344828,,0.0,831.886,0.5419999957084656,-2.4208867351000887
832.810345,,0.0,832.352,0.5299999713897705,-2.446723535733584
833.2758620000001,,0.0,832.815,0.5479999780654907,-2.407158129042323
833.741379,,0.0,833.284,0.5379999876022339,-2.4285629079881415
834.2068969999999,,0.0,833.748,0.5360000133514404,-2.4325184482303968
834.672414,,0.0,834.211,0.5320000052452087,-2.4408241800858206
835.137931,,0.0,834.674,0.546999990940094,-2.407740991319859
835.603448,,0.0,835.144,0.5149999856948853,-2.477072280588252
836.068966,,0.0,835.61,0.5419999957084656,-2.4178934990132768
836.534483,,0.0,836.074,0.5299999713897705,-2.4437230799805674
837.0,,0.0,836.539,0.5389999747276306,-2.423851287974519
837.4655170000001,,0.0,837.005,0.5260000228881836,-2.4519681239776245
837.9310340000001,,0.0,837.47,0.5460000038146973,-2.4082542224064225
838.3965519999999,,0.0,837.929,0.5440000295639038,-2.4125387184716116
838.862069,,0.0,838.395,0.5640000104904175,-2.3689625978985966
839.327586,,0.0,838.867,0.5339999794960022,-2.4343882889237536
839.793103,,0.0,839.325,0.5239999890327454,-2.4563089607267914
840.2586210000001,,0.0,839.789,0.550000011920929,-2.39986243970756
840.724138,,0.0,840.259,0.5419999957084656,-2.4175473795804217
841.189655,,0.0,840.719,0.550000011920929,-2.400422809683024
841.655172,,0.0,841.189,0.5249999761581421,-2.4552335535931706
842.12069,,0.0,841.654,0.5320000052452087,-2.4403571222911435
842.586207,,0.0,842.118,0.5370000004768372,-2.429856324644419
843.0517239999999,,0.0,842.584,0.5299999713897705,-2.4455052999940303
843.517241,,0.0,843.048,0.5370000004768372,-2.4306467130733593
843.982759,,0.0,843.513,0.5320000052452087,-2.44191348486451
844.4482760000001,,0.0,843.978,0.527999997138977,-2.450971765675705
844.913793,,0.0,844.443,0.5419999957084656,-2.420773875114283
845.37931,,0.0,844.908,0.5429999828338623,-2.418848190525725
845.844828,,0.0,845.374,0.6169999837875366,-2.257821396841107
846.310345,,0.0,845.837,0.5249999761581421,-2.458383814946303
846.775862,,0.0,846.299,0.5410000085830688,-2.423583522789324
847.2413789999999,,0.0,846.767,0.550000011920929,-2.403964761135681
847.706897,,0.0,847.229,0.5090000033378601,-2.493210152053103
848.172414,,0.0,847.7,0.5519999861717224,-2.3993839608445735
848.637931,,0.0,848.162,0.5370000004768372,-2.4318584172021995
849.1034480000001,,0.0,848.628,0.546999990940094,-2.409811866866382
849.5689659999999,,0.0,849.092,0.5329999923706055,-2.440006429719608
850.0344829999999,,0.0,849.557,0.5540000200271606,-2.393911332163082
850.5,,0.0,850.022,0.546999990940094,-2.4087919932407553
850.965517,,0.0,850.487,0.527999997138977,-2.44980157273127
851.431034,,0.0,850.952,0.5260000228881836,-2.4537721018670355
851.896552,,0.0,851.418,0.5289999842643738,-2.4468598757073012
852.362069,,0.0,851.881,0.5270000100135803,-2.4508626255853034
852.827586,,0.0,852.347,0.5339999794960022,-2.4352902259059026
853.2931030000001,,0.0,852.815,0.5289999842643738,-2.445903726907468
853.758621,,0.0,853.276,0.527999997138977,-2.4478532675753626
854.2241379999999,,0.0,853.739,0.5669999718666077,-2.362713763431015
854.689655,,0.0,854.209,0.5210000276565552,-2.462820542473917
855.155172,,0.0,854.671,0.5289999842643738,-2.4453457206071225
855.62069,,0.0,855.141,0.5619999766349792,-2.373470882672346
856.0862070000001,,0.0,855.599,0.5270000100135803,-2.4498087333255243
856.551724,,0.0,856.067,0.5460000038146973,-2.4085616805947367
857.017241,,0.0,856.533,0.5400000214576721,-2.4218381525687644
857.482759,,0.0,857.0,0.5360000133514404,-2.4308081602865705
857.948276,,0.0,857.466,0.5339999794960022,-2.435463968305042
858.4137929999999,,0.0,857.93,0.5339999794960022,-2.4357962741288173
858.8793099999999,,0.0,858.389,0.5429999828338623,-2.4165441408730204
859.344828,,0.0,858.863,0.515999972820282,-2.4757359823213
859.810345,,0.0,859.322,0.5339999794960022,-2.4368902940954156
860.275862,,0.0,859.79,0.527999997138977,-2.4503224468520703
860.741379,,0.0,860.251,0.5130000114440918,-2.483341841697595
861.206897,,0.0,860.715,0.5210000276565552,-2.4662218070824817
861.672414,,0.0,861.185,0.5429999828338623,-2.418560427205391
862.137931,,0.0,861.65,0.5450000166893005,-2.4144222528625465
862.603448,,0.0,862.113,0.5419999957084656,-2.421120762866368
