Trial: ,9
Threshold: ,0.0
Maximum EMG: ,0.12224762975092872
Success: ,True

EMG Time,Raw EMG,Filtered EMG,Force Time,Raw Force (V),Filtered Force (N)
0.0,samples,2.5560583168544006e-05,0.467,0.49000000953674316,-2.532607540186863
0.46551699999999996,time,2.622303312877796e-05,0.932,0.492000013589859,-2.528483887791297
0.9310339999999999,value,2.6820626891909064e-05,1.398,0.4950000047683716,-2.52217033550679
1.396552,,2.7348433380078653e-05,1.863,0.4959999918937683,-2.520195678028598
1.862069,,2.7801557278734888e-05,2.329,0.48899999260902405,-2.5356254063891206
2.327586,,2.8175158028446574e-05,2.792,0.5109999775886536,-2.4878437528885544
2.793103,,2.8464469441750406e-05,3.254,0.5049999952316284,-2.5010283475672104
3.258621,,2.8664819902107164e-05,3.721,0.5009999871253967,-2.509816167866744
3.724138,,2.8771653098113875e-05,4.191,0.5009999871253967,-2.5098477931421552
4.189654999999999,,2.878054924218778e-05,4.651,0.48899999260902405,-2.5359809139269793
4.655172,,2.86872467190181e-05,5.121,0.49000000953674316,-2.53375003527731
5.12069,,2.8487664105187313e-05,5.579,0.49000000953674316,-2.533658100497082
5.586207,,2.817792249751024e-05,6.05,0.4830000102519989,-2.548779908907984
6.051723999999999,,2.775436808384189e-05,6.509,0.4970000088214874,-2.518117249395298
6.517241,,2.7213594886379705e-05,6.974,0.48899999260902405,-2.5353567947179596
6.982759,,2.6552467603849158e-05,7.439,0.5090000033378601,-2.49157149812214
7.448276,,2.576814447543047e-05,7.907,0.492000013589859,-2.528379893841068
7.913793000000001,,2.485810008587519e-05,8.372,0.4909999966621399,-2.5303209909737108
8.379309999999998,,2.3820148027992383e-05,8.835,0.492000013589859,-2.5279034532699884
8.844828000000001,,2.2652463335572803e-05,9.306,0.4880000054836273,-2.5363854233638845
9.310345,,2.1353604596883422e-05,9.769,0.4779999852180481,-2.557953061722491
9.775862,,1.9922535656122336e-05,10.232,0.4950000047683716,-2.520717748348824
10.241379,,1.8358646807693342e-05,10.695,0.4880000054836273,-2.5357965397865647
10.706897,,1.6661775385858563e-05,11.165,0.5009999871253967,-2.5073338832192005
11.172414,,1.4832225650274537e-05,11.624,0.503000020980835,-2.5028717006735275
11.637931,,1.2870787866130232e-05,12.094,0.5049999952316284,-2.498448003230061
12.103447999999998,,1.0778756476102256e-05,12.559,0.492000013589859,-2.5267445383632765
12.568966000000001,,8.557947260140964e-06,13.024,0.4779999852180481,-2.557261993988303
13.034483,,6.2107133782181674e-06,13.49,0.48399999737739563,-2.5442487634205926
13.5,,3.739960190620002e-06,13.954,0.4880000054836273,-2.5356334199484363
13.965517,,1.1491587501733343e-06,14.42,0.4779999852180481,-2.557556683885936
14.431034,,1.5576421390329248e-06,14.884,0.4959999918937683,-2.5185108994728305
14.896552,,4.375805401314023e-06,15.35,0.49000000953674316,-2.531780210990392
15.362069,,7.300096811371346e-06,15.813,0.4959999918937683,-2.5189269835308967
15.827586000000002,,1.032467786115262e-05,16.276,0.47600001096725464,-2.5627331958091877
16.293103,,1.3443100472362392e-05,16.743,0.4909999966621399,-2.530294492811777
16.758621,,1.664830365316788e-05,17.206,0.49000000953674316,-2.5327141693198763
17.224138,,1.9932612194970907e-05,17.669,0.49000000953674316,-2.5329475028418598
17.689655,,2.32877375019849e-05,18.139,0.48899999260902405,-2.5353445436384168
18.155172,,2.670478064275845e-05,18.605,0.48899999260902405,-2.5355411239064787
18.62069,,3.017423770871615e-05,19.068,0.4950000047683716,-2.522637754485478
19.086207,,3.368600756023777e-05,19.534,0.4729999899864197,-2.5707034920779033
19.551724,,3.722940203576347e-05,19.999,0.49799999594688416,-2.516335518794483
20.017241000000002,,4.0793158693892886e-05,20.465,0.4830000102519989,-2.5490729839933337
20.482758999999998,,4.4365456152438135e-05,20.925,0.49300000071525574,-2.527301803414463
20.948276,,4.7933932081895746e-05,21.391,0.5009999871253967,-2.509844683987553
21.413793000000002,,5.148570390382184e-05,21.858,0.5009999871253967,-2.509773818129627
21.87931,,5.5007392237132704e-05,22.323,0.4950000047683716,-2.522734044294077
22.344828,,5.8485147127415e-05,22.784,0.46000000834465027,-2.5988387212711657
22.810344999999998,,6.19046770859242e-05,23.254,0.4950000047683716,-2.522406940705843
23.275862,,6.525128095608562e-05,23.717,0.492000013589859,-2.5287377431130746
23.741379,,6.850988261600202e-05,24.18,0.45100000500679016,-2.617837788282471
24.206897,,7.166506851572876e-05,24.651,0.4830000102519989,-2.547884899759281
24.672414,,7.470112803791771e-05,25.113,0.49799999594688416,-2.5149641633142528
25.137931,,7.760209665987369e-05,25.579,0.5,-2.5103671361861624
25.603448,,8.035180188413138e-05,26.044,0.47600001096725464,-2.5624237907281766
26.068966,,8.293391189336996e-05,26.509,0.5090000033378601,-2.4903137017876014
26.534483,,8.533198687386133e-05,26.969,0.492000013589859,-2.5271584685419417
27.0,,8.752953293972365e-05,27.434,0.48399999737739563,-2.5444240605523434
27.465517,,8.951005857805392e-05,27.899,0.48399999737739563,-2.5442947953986614
27.931034,,9.125713352257286e-05,28.365,0.48899999260902405,-2.533310805177263
28.396552,,9.275444995076716e-05,28.836,0.4909999966621399,-2.5289039176817276
28.862069,,9.39858858866936e-05,29.298,0.503000020980835,-2.5027528901631135
29.327586,,9.493557067865536e-05,29.762,0.45100000500679016,-2.616078694841252
29.793103000000002,,9.558795240791222e-05,30.225,0.4880000054836273,-2.5355478682131936
30.258620999999998,,9.592786707148794e-05,30.695,0.503000020980835,-2.502987379720618
30.724138,,9.594060936903198e-05,31.158,0.47600001096725464,-2.561965885566557
31.189655000000002,,9.561200491062725e-05,31.623,0.4950000047683716,-2.5207577873816875
31.655172000000004,,9.49284836494579e-05,32.086,0.4959999918937683,-2.518790681919136
32.12069,,9.387715433041169e-05,32.551,0.4860000014305115,-2.5408072146035496
32.586207,,9.244587973304153e-05,33.018,0.4970000088214874,-2.51708369777092
33.051724,,9.062335247490452e-05,33.483,0.4959999918937683,-2.519507922206587
33.517241000000006,,8.83991711291885e-05,33.951,0.48399999737739563,-2.545893596594078
33.982759,,8.576391639878156e-05,34.409,0.49000000953674316,-2.5330527977275
34.448276,,8.270922707759574e-05,34.876,0.49000000953674316,-2.5332659864672817
34.913793,,7.92278755190822e-05,35.342,0.5170000195503235,-2.474630456208546
35.37931,,7.531384232152934e-05,35.81,0.49000000953674316,-2.5336105256050487
35.844828,,7.096238992997685e-05,36.273,0.49000000953674316,-2.533731210749905
36.310345,,6.617013484546926e-05,36.735,0.503000020980835,-2.5054901416308737
36.775862,,6.093511812397058e-05,37.206,0.49000000953674316,-2.533851968444788
37.241378999999995,,5.5256873839629455e-05,37.669,0.48100000619888306,-2.553456360558855
37.706897000000005,,4.913649518028202e-05,38.131,0.48100000619888306,-2.553410781501985
38.172414,,4.257669783716606e-05,38.597,0.4779999852180481,-2.559860698092927
38.637931,,3.558188034585653e-05,39.061,0.4959999918937683,-2.520520819457682
39.103448,,2.8158181031476035e-05,39.527,0.4950000047683716,-2.522540341057789
39.568965999999996,,2.0313531208343162e-05,39.995,0.5109999775886536,-2.487492247557696
40.034483,,1.2057704282452829e-05,40.46,0.5009999871253967,-2.5090637164243073
40.5,,3.402360404590008e-06,40.925,0.5289999842643738,-2.4478274868640604
40.965517,,5.638913677484565e-06,41.39,0.5049999952316284,-2.4998687888196023
41.431034,,1.5050569917420944e-05,41.855,0.515999972820282,-2.47565311000502
41.896552,,2.481506976563705e-05,42.314,0.5049999952316284,-2.499371413823047
42.362069000000005,,3.49128608034239e-05,42.784,0.48899999260902405,-2.533995125216098
42.827586000000004,,4.5322359551538496e-05,43.246,0.49799999594688416,-2.514172783997776
43.293103,,5.6019940781528425e-05,43.714,0.45500001311302185,-2.6076679484850644
43.758621,,6.697993364904364e-05,44.176,0.5009999871253967,-2.507297704008496
44.224138,,7.817462495787591e-05,44.642,0.48399999737739563,-2.5442207736893394
44.689655,,8.95742698513974e-05,45.107,0.5049999952316284,-2.498396651828866
45.155172,,0.00010114711021442195,45.573,0.49000000953674316,-2.531047402890857
45.620689999999996,,0.0001128594010532665,46.039,0.4909999966621399,-2.528884414995802
46.086206999999995,,0.00012467544510493168,46.505,0.4959999918937683,-2.5180510522921695
46.551724,,0.00013655763590783885,46.969,0.39399999380111694,-2.740377184176292
47.017241,,0.00014846650954645276,47.435,0.47999998927116394,-2.5531600843941233
47.482759,,0.00016036080526038554,47.9,0.4830000102519989,-2.546807466207361
47.948276,,0.00017219753508522593,48.366,0.4830000102519989,-2.547019753692054
48.413793,,0.0001839320626673804,48.828,0.5040000081062317,-2.501501932135238
48.879310000000004,,0.00019551819136867088,49.291,0.48899999260902405,-2.534428916765923
49.344828,,0.00020690826174833165,49.754,0.4909999966621399,-2.530324354309309
49.810345,,0.00021805325848042037,50.224,0.503000020980835,-2.504430626716257
50.275862,,0.0002289029267335417,50.685,0.4880000054836273,-2.537349661715337
50.741379,,0.00023940589800722575,51.154,0.503000020980835,-2.504890726172067
51.206897,,0.0002495098253853602,51.62,0.49000000953674316,-2.5334085673803215
51.672414,,0.00025916152813180564,52.083,0.48100000619888306,-2.553180563202701
52.137931,,0.0002683071455167972,52.548,0.49000000953674316,-2.533700918876795
52.603448,,0.0002768922997250241,53.013,0.4970000088214874,-2.5185383841565043
53.068966,,0.00028486226765747267,53.479,0.48399999737739563,-2.546905812410567
53.534483,,0.00029216216139930044,53.939,0.49399998784065247,-2.525120156506652
54.0,,0.0002987371170852827,54.405,0.49300000071525574,-2.5272554799564437
54.465517,,0.00030453249185284056,54.87,0.4690000116825104,-2.5794574840762516
54.931034,,0.0003094940685304365,55.336,0.5019999742507935,-2.507437528698475
55.396552,,0.0003135682676663288,55.799,0.5,-2.5116344786273506
55.862069,,0.00031670236645943824,56.268,0.4959999918937683,-2.5201579127201126
56.327586,,0.0003188447241105313,56.73,0.5149999856948853,-2.478547604285766
56.793102999999995,,0.0003199450130682106,57.2,0.4230000078678131,-2.678750623186361
57.258621000000005,,0.00031995445560046746,57.665,0.4950000047683716,-2.5216478312947253
57.724138,,0.00031882606507895034,58.127,0.4869999885559082,-2.538836499988973
58.189655,,0.0003165148913197995,58.593,0.4790000021457672,-2.5560313624928552
58.655172,,0.00031297826928205596,59.057,0.4129999876022339,-2.6996033070000522
59.120689999999996,,0.0003081760703824454,59.523,0.48100000619888306,-2.5512597469243166
59.586207,,0.0003020709556439412,59.988,0.4959999918937683,-2.518412640211618
60.051724,,0.0002946286298551094,60.454,0.49799999594688416,-2.5139190794064112
60.517241,,0.0002858180958780149,60.914,0.5019999742507935,-2.5051030409687227
60.982758999999994,,0.00027561190820461756,61.379,0.49300000071525574,-2.524647047644707
61.448276,,0.00026398642482529556,61.851,0.4830000102519989,-2.5464096927257382
61.913793,,0.0002509220564386056,62.309,0.48100000619888306,-2.5507842522129835
62.379310000000004,,0.00023640351199881581,62.78,0.503000020980835,-2.5029113739464215
62.84482800000001,,0.00022042003956733428,63.243,0.4869999885559082,-2.5378649707617655
63.310345000000005,,0.00020296566140609612,63.706,0.4869999885559082,-2.537994841494202
63.775862000000004,,0.00018403940222547647,64.169,0.5,-2.5098328165618757
64.241379,,0.00016364550947655502,64.634,0.49000000953674316,-2.5318048498183217
64.706897,,0.00014179366455777703,65.104,0.492000013589859,-2.5276524219688503
65.172414,,0.00011849918378942848,65.569,0.49900001287460327,-2.5126195942970018
65.637931,,9.37832079960656e-05,66.029,0.47999998927116394,-2.55423776386778
66.103448,,6.767287952730128e-05,66.495,0.4860000014305115,-2.541389181795617
66.56896599999999,,4.0201505541338125e-05,66.961,0.4909999966621399,-2.530711941519515
67.03448300000001,,1.1408706373532635e-05,67.427,0.503000020980835,-2.5047695383596826
67.5,,1.8659452185749675e-05,67.892,0.453000009059906,-2.6138831041231683
67.965517,,4.995034387350439e-05,68.358,0.5540000200271606,-2.3939944364105408
68.431034,,8.240468535556766e-05,68.821,0.4880000054836273,-2.5379077914726533
68.896552,,0.00011595645919089841,69.291,0.5070000290870667,-2.4966000241553625
69.362069,,0.000150532857482467,69.751,0.5019999742507935,-2.5075423225131694
69.827586,,0.00018605424731383505,70.22,0.5040000081062317,-2.503194748110995
70.293103,,0.00022243415904084555,70.681,0.5,-2.5118801238421864
70.75862099999999,,0.00025957929847312254,71.15,0.503000020980835,-2.5052771482718295
71.22413800000001,,0.0002973895839402168,71.616,0.49000000953674316,-2.5334975111839206
71.689655,,0.00033575820919214784,72.079,0.47999998927116394,-2.555150941922849
72.15517200000001,,0.00037457173303372305,72.544,0.4959999918937683,-2.5201331833928093
72.62069,,0.00041371019653631464,73.01,0.4909999966621399,-2.530845666285918
73.086207,,0.0004530472686097153,73.475,0.4819999933242798,-2.55025723204768
73.551724,,0.0004924504206502688,73.94,0.47200000286102295,-2.5718387256009665
74.017241,,0.0005317811309096811,74.406,0.5130000114440918,-2.4823066044572655
74.482759,,0.000570895119151797,74.866,0.45899999141693115,-2.599749795166445
74.94827599999999,,0.0006096426120822215,75.331,0.4860000014305115,-2.5407328873426738
75.41379300000001,,0.000647868639948046,75.799,0.4860000014305115,-2.540555911386157
75.87931,,0.0006854133646121915,76.261,0.492000013589859,-2.527328017188256
76.344828,,0.0007221124393091237,76.725,0.5630000233650208,-2.372511918236417
76.810345,,0.0007577974001860646,77.194,0.4880000054836273,-2.5358050915893546
77.275862,,0.0007922960896264829,77.655,0.492000013589859,-2.5270157686383308
77.741379,,0.0008254331112407703,78.124,0.47699999809265137,-2.559655302500262
78.206897,,0.0008570303162928073,78.59,0.5019999742507935,-2.5051843755811745
78.67241399999999,,0.0008869073212108366,79.054,0.5149999856948853,-2.4768916465254436
79.137931,,0.0009148820557069379,79.52,0.5059999823570251,-2.49656177442609
79.603448,,0.0009407713409017299,79.984,0.4880000054836273,-2.535870542336227
80.068966,,0.0009643914967200064,80.45,0.4909999966621399,-2.5294563560591743
80.53448300000001,,0.0009855589776891895,80.914,0.49300000071525574,-2.5252456986944565
81.0,,0.0010040910361361049,81.38,0.492000013589859,-2.5275911276659655
81.465517,,0.0010198064116390283,81.847,0.49300000071525574,-2.5255942195650727
81.931034,,0.0010325260454516422,82.305,0.5009999871253967,-2.5083558412465607
82.396552,,0.0010420738184738925,82.773,0.550000011920929,-2.401794694372313
82.86206899999999,,0.0010482773112022031,83.236,0.49399998784065247,-2.523986931173807
83.327586,,0.0010509685839485722,83.699,0.49399998784065247,-2.5241653970159357
83.79310299999999,,0.0010499849754752378,84.169,0.47600001096725464,-2.5635462228605337
84.258621,,0.0010451699180493784,84.634,0.4830000102519989,-2.5484432609198135
84.72413800000001,,0.0010363737667812517,85.098,0.5009999871253967,-2.509352993734699
85.189655,,0.0010234546409698254,85.563,0.5090000033378601,-2.4920223015978014
85.65517200000001,,0.0010062792750429037,86.028,0.5009999871253967,-2.5095199227462923
86.12069,,0.00098472387654459,86.494,0.49799999594688416,-2.5160924242825677
86.586207,,0.0009586749884922655,86.958,0.48100000619888306,-2.5531338805446184
87.051724,,0.0009280303532987362,87.424,0.4880000054836273,-2.5378562892505947
87.517241,,0.0008926997753334286,87.888,0.47999998927116394,-2.5552281974389044
87.98275899999999,,0.0008526059790801532,88.353,0.47099998593330383,-2.574750681536855
88.448276,,0.0008076854597386566,88.817,0.49900001287460327,-2.5136376848014486
88.913793,,0.0007578893230136194,89.28,0.5109999775886536,-2.4873601231517983
89.37931,,0.0007031841107385979,89.751,0.46000000834465027,-2.598318295483004
89.844828,,0.0006435526088943086,90.213,0.4860000014305115,-2.541507365321815
90.310345,,0.0005789946345012766,90.676,0.5090000033378601,-2.4912237018677574
90.775862,,0.0005095277977968754,91.139,0.5009999871253967,-2.5084735478894546
91.241379,,0.000435188236046886,91.604,0.492000013589859,-2.5279026681274113
91.706897,,0.000356031315292572,92.075,0.5,-2.5103012069539092
92.17241399999999,,0.0002721322962964684,92.54,0.5009999871253967,-2.5079616224257384
92.63793100000001,,0.00018358696092415642,92.999,0.503000020980835,-2.5034591681749636
93.103448,,9.051219518592881e-05,93.464,0.48100000619888306,-2.5512649011147523
93.568966,,6.953474837711743e-06,93.936,0.5170000195503235,-2.4727332128064217
94.03448300000001,,0.00010864939794871488,94.394,0.4779999852180481,-2.557627363996176
94.5,,0.00021439236739613542,94.865,0.5,-2.509653365938448
94.965517,,0.0003239762487443097,95.33,0.4880000054836273,-2.5357844075867613
95.431034,,0.00043717166967858237,95.791,0.49900001287460327,-2.5118376081235274
95.896552,,0.0005537257753079744,96.255,0.49799999594688416,-2.5140649651988856
96.36206899999999,,0.0006733620524320529,96.725,0.48399999737739563,-2.5446436110718125
96.827586,,0.0007957802261323114,97.187,0.4959999918937683,-2.5186042195643563
97.293103,,0.0009206562319286233,97.651,0.503000020980835,-2.503481324547428
97.758621,,0.0010476422666040946,98.12,0.4950000047683716,-2.52105738087761
98.224138,,0.0011763669206383694,98.579,0.49000000953674316,-2.5321123902002722
98.689655,,0.001306435395002369,99.051,0.48399999737739563,-2.545356615462585
99.155172,,0.0014374298048755096,99.509,0.48500001430511475,-2.5433558799903055
99.62069,,0.0015689095726598389,99.976,0.492000013589859,-2.528283518521412
100.086207,,0.0017004119124532468,100.442,0.4779999852180481,-2.5589576883267067
100.551724,,0.0018314524078602492,100.906,0.4970000088214874,-2.517725967195661
101.017241,,0.0019615256846912,101.372,0.5049999952316284,-2.5004435956730098
101.482759,,0.002090106179845242,101.84,0.4620000123977661,-2.5942521097243465
101.948276,,0.00221664900752559,102.302,0.492000013589859,-2.5289961795135874
102.413793,,0.002340590923689048,102.765,0.4869999885559082,-2.5399665741285475
102.87931,,0.002461351389043656,103.235,0.47099998593330383,-2.5748731672212313
103.344828,,0.002578333730216864,103.699,0.49900001287460327,-2.51388889887501
103.810345,,0.002690926398608739,104.161,0.492000013589859,-2.5291259578118543
104.275862,,0.0027985043269808303,104.627,0.5040000081062317,-2.5029371042437685
104.741379,,0.002900430383648279,105.09,0.503000020980835,-2.5050400852767765
105.206897,,0.0029960569220307603,105.555,0.4819999933242798,-2.550688057728503
105.672414,,0.0030847274211167346,106.021,0.492000013589859,-2.528773486132571
106.13793100000001,,0.0031657782140627217,106.486,0.4959999918937683,-2.519910426214189
106.603448,,0.003238540307060865,106.951,0.4909999966621399,-2.530638954312893
107.068966,,0.0033023412901311625,107.417,0.49000000953674316,-2.532641824358372
107.534483,,0.003356507330029141,107.884,0.48399999737739563,-2.545532559992074
108.0,,0.0034003652262921714,108.349,0.5289999842643738,-2.4473116847894656
108.46551699999999,,0.0034332445266956695,108.811,0.49799999594688416,-2.5146721696372603
108.931034,,0.0034544797283795245,109.274,0.4970000088214874,-2.5166830667453444
109.396552,,0.0034634125824422853,109.743,0.48899999260902405,-2.5339604453954694
109.862069,,0.0034593944503515457,110.206,0.492000013589859,-2.5272934769008106
110.32758600000001,,0.0034417886214905737,110.673,0.49900001287460327,-2.5119368419556336
110.793103,,0.003409972611808346,111.136,0.4959999918937683,-2.51839470416621
111.258621,,0.0033633406310399428,111.602,0.47999998927116394,-2.5532056936961647
111.724138,,0.003301306311059466,112.065,0.49799999594688416,-2.5139751724409463
112.189655,,0.0032233053668222567,112.53,0.5019999742507935,-2.5052784610592
112.655172,,0.003128797719636232,112.996,0.5040000081062317,-2.500970579037284
113.12069,,0.003017269364431802,113.461,0.49000000953674316,-2.5315514719079055
113.586207,,0.00288823515302487,113.928,0.49799999594688416,-2.5142303918134274
114.051724,,0.00274124282856761,114.394,0.48100000619888306,-2.551400796137687
114.51724100000001,,0.0025758761473437847,114.858,0.48899999260902405,-2.534126613938593
114.982759,,0.002391754650535346,115.324,0.5180000066757202,-2.4711170648410707
115.448276,,0.002188532568361884,115.787,0.503000020980835,-2.5039781975271005
115.913793,,0.001965903825274105,116.25,0.4410000145435333,-2.639241621241929
116.37931,,0.001723613576693611,116.721,0.48899999260902405,-2.5348553322176315
116.84482799999999,,0.0014614622669522038,117.183,0.49900001287460327,-2.513252586165602
117.310345,,0.0011792901225577271,117.654,0.503000020980835,-2.5047096047470605
117.77586199999999,,0.0008769612237619013,118.109,0.5669999718666077,-2.3654286992544544
118.241379,,0.0005543872509326802,118.575,0.49000000953674316,-2.533312253208717
118.70689700000001,,0.00021158350215712168,119.043,0.492000013589859,-2.5290554095440703
119.172414,,0.0001513311975379033,119.508,0.49799999594688416,-2.516055023044293
119.63793100000001,,0.0005342459964193623,119.974,0.47699999809265137,-2.5618470821411368
120.103448,,0.0009371433329631976,120.439,0.49799999594688416,-2.516103884783095
120.568966,,0.0013599346246990715,120.899,0.47999998927116394,-2.555295688950762
121.034483,,0.001802151038905731,121.364,0.48899999260902405,-2.535632424545646
121.5,,0.0022630323533112126,121.832,0.48100000619888306,-2.552976453033797
121.96551699999999,,0.002742231771227538,122.294,0.49000000953674316,-2.5332562431633106
122.431034,,0.0032401939389938485,122.765,0.4880000054836273,-2.5374771696268947
122.896552,,0.0037570061782643835,123.228,0.4880000054836273,-2.537320750980573
123.362069,,0.004290704271003006,123.696,0.4819999933242798,-2.550221051828127
123.827586,,0.004838283094863431,124.158,0.515999972820282,-2.4759649352265067
124.293103,,0.005399986975132151,124.623,0.4650000035762787,-2.5868886986394886
124.758621,,0.005980654899542592,125.086,0.4880000054836273,-2.5365937837646255
125.22413800000001,,0.006581973036867423,125.552,0.5049999952316284,-2.4993774837948304
125.68965500000002,,0.007193530595440826,126.017,0.4690000116825104,-2.57764125270874
126.15517200000001,,0.007801618547986956,126.482,0.4830000102519989,-2.5469901588165307
126.62069000000001,,0.008414642847311013,126.947,0.4830000102519989,-2.5468624004310443
127.086207,,0.009065307595467635,127.413,0.49000000953674316,-2.5315098121674233
127.55172400000001,,0.009760104819484049,127.88,0.4950000047683716,-2.5205429688580345
128.017241,,0.010434538666375365,128.339,0.47999998927116394,-2.553179764874992
128.48275900000002,,0.01102127528969752,128.81,0.47600001096725464,-2.56188382788575
128.948276,,0.0115965812313731,129.272,0.5,-2.5096185856541324
129.413793,,0.01235700801331752,129.74,0.49799999594688416,-2.514029563202251
129.87931,,0.01329968692942313,130.203,0.48899999260902405,-2.533720640800128
130.344828,,0.014015267513079467,130.666,0.4650000035762787,-2.5861193420114934
130.81034499999998,,0.01418020681401858,131.136,0.5,-2.5100027891725003
131.275862,,0.014375313774730015,131.594,0.503000020980835,-2.503622984107031
131.741379,,0.015725964439224964,132.065,0.5019999742507935,-2.505972528406988
132.206897,,0.01792881776977054,132.524,0.4860000014305115,-2.5410114501780847
132.67241399999997,,0.018409293839961458,132.991,0.4790000021457672,-2.556447771867827
133.13793099999998,,0.015712352397659852,133.457,0.4880000054836273,-2.537025754032028
133.60344800000001,,0.014078842626232772,133.921,0.5070000290870667,-2.495811148607646
134.06896600000002,,0.020698881747189424,134.386,0.4779999852180481,-2.5591600977717506
134.53448300000002,,0.03486366232155055,134.851,0.49000000953674316,-2.533168015209485
135.0,,0.043403547625030355,135.316,0.492000013589859,-2.5289417242453758
135.465517,,0.0335116756987537,135.784,0.48500001430511475,-2.544298442004135
135.931034,,0.00910509788263084,136.247,0.492000013589859,-2.529126131455242
136.396552,,0.012160583971792531,136.71,0.49799999594688416,-2.516101954506006
136.862069,,0.01837374957676784,137.18,0.503000020980835,-2.5052238778352183
137.327586,,0.01410476307213016,137.651,0.48899999260902405,-2.5357072876045295
137.793103,,0.01124409103133721,138.106,0.49900001287460327,-2.5138708152882416
138.258621,,0.014856368063532964,138.572,0.48899999260902405,-2.535576795045704
138.724138,,0.020606925593260578,139.04,0.49000000953674316,-2.533289518555521
139.189655,,0.02267930698525804,139.506,0.4790000021457672,-2.5571216639480174
139.655172,,0.020800148110131898,139.965,0.5669999718666077,-2.3652458897833304
140.12069,,0.01964597733222933,140.431,0.4860000014305115,-2.5415430982342846
140.586207,,0.022813900058106015,140.896,0.4860000014305115,-2.5413578399853263
141.05172399999998,,0.028234828966288355,141.362,0.4950000047683716,-2.521559803809959
141.51724099999998,,0.030260134323952664,141.825,0.5109999775886536,-2.486511532692983
141.982759,,0.026361153753410572,142.294,0.48500001430511475,-2.5429721518997943
142.44827600000002,,0.02029270024951674,142.758,0.5009999871253967,-2.5079414084567144
142.913793,,0.017488829284759342,143.221,0.49000000953674316,-2.531751216308941
143.37931,,0.018726900838534077,143.684,0.4830000102519989,-2.546868589560218
143.844828,,0.02030166496487967,144.154,0.4860000014305115,-2.5402260718644514
144.310345,,0.01956509248121258,144.62,0.39399999380111694,-2.740586763008254
144.77586200000002,,0.01768103254776838,145.083,0.49399998784065247,-2.5226820208403926
145.241379,,0.01665863880610474,145.548,0.48899999260902405,-2.5335697138721205
145.706897,,0.01613048549623729,146.013,0.48399999737739563,-2.5444899955969094
146.172414,,0.014496555353545909,146.479,0.49399998784065247,-2.5227621458395846
146.637931,,0.01184586052219111,146.944,0.49900001287460327,-2.511956610131709
147.103448,,0.00993364757018556,147.41,0.492000013589859,-2.527320899344717
147.568966,,0.00951700585918204,147.87,0.49000000953674316,-2.5318144706616135
148.034483,,0.009151537921636973,148.335,0.49000000953674316,-2.531969146209028
148.5,,0.007049779053547076,148.799,0.492000013589859,-2.5277800949410842
148.965517,,0.0032881870885664933,149.268,0.4909999966621399,-2.530135361679954
149.43103399999998,,0.0004579200000464557,149.729,0.48500001430511475,-2.543386830766988
149.89655199999999,,0.003009092646469063,150.198,0.47999998927116394,-2.5544576590756285
150.362069,,0.004871130983322085,150.662,0.5049999952316284,-2.5001613369491267
150.82758600000003,,0.007202012858713399,151.124,0.46299999952316284,-2.5918217717272642
151.293103,,0.0098942622725095,151.59,0.48899999260902405,-2.535317293189579
151.758621,,0.011165122025682594,152.055,0.4779999852180481,-2.559401932228895
152.224138,,0.009561822593194037,152.521,0.49300000071525574,-2.5268168925233097
152.68965500000002,,0.0063257703552841915,152.988,0.47999998927116394,-2.555206508641865
153.155172,,0.004853281900382621,153.454,0.49000000953674316,-2.5334576922203316
153.62069,,0.007109077704821256,153.914,0.5070000290870667,-2.496427489231198
154.086207,,0.011109596013224586,154.379,0.49000000953674316,-2.533440087829727
154.551724,,0.012820553238665641,154.851,0.515999972820282,-2.476740249558753
155.017241,,0.010356380396040568,155.309,0.47999998927116394,-2.5550879313674555
155.482759,,0.005539210261074713,155.78,0.5009999871253967,-2.5092273039994777
155.948276,,0.001396717364700736,156.242,0.492000013589859,-2.5287043757324095
156.413793,,0.0008950330569921516,156.71,0.4950000047683716,-2.522020121530117
156.87931,,0.0021827777121060238,157.173,0.5440000295639038,-2.4151041906701805
157.34482799999998,,0.003498923045993267,157.638,0.49000000953674316,-2.532579762786588
157.81034499999998,,0.005238200617857439,158.102,0.48500001430511475,-2.543298651825684
158.275862,,0.007714028057021224,158.568,0.49900001287460327,-2.5126268528349267
158.741379,,0.011015699403105067,159.033,0.4950000047683716,-2.521179382858448
159.20689700000003,,0.014059536063363923,159.499,0.4909999966621399,-2.5297455367332695
159.672414,,0.015199995077227989,159.959,0.49000000953674316,-2.531794127044184
160.137931,,0.014578524441276266,160.425,0.492000013589859,-2.5273292326635177
160.60344800000001,,0.014764627429007329,160.891,0.4860000014305115,-2.5403192585519494
161.06896600000002,,0.017828392345293615,161.358,0.4959999918937683,-2.518478927372898
161.534483,,0.02231945596941059,161.821,0.47999998927116394,-2.553312967774196
162.0,,0.024622809999563032,162.291,0.49000000953674316,-2.5315322889490965
162.465517,,0.023425904367479017,162.751,0.4909999966621399,-2.529389151346255
162.931034,,0.021307010493606515,163.221,0.49000000953674316,-2.531631243254819
163.396552,,0.02097813810880804,163.684,0.49000000953674316,-2.531720411237419
163.862069,,0.021086678093933258,164.146,0.48899999260902405,-2.534010897261651
164.327586,,0.017334854077548142,164.612,0.49000000953674316,-2.531962868973854
164.793103,,0.007716902339034827,165.076,0.4869999885559082,-2.5386440590045916
165.258621,,0.004663676038567338,165.542,0.492000013589859,-2.5279057153765243
165.72413799999998,,0.014582751582580473,166.006,0.48899999260902405,-2.5346013080661995
166.189655,,0.019740592258167697,166.472,0.5009999871253967,-2.508616424379286
166.655172,,0.022256921477010024,166.937,0.5009999871253967,-2.5087691631797107
167.12069,,0.02584527587268025,167.402,0.4970000088214874,-2.5176253503556993
167.58620699999997,,0.03221525685503048,167.869,0.49000000953674316,-2.533002338153174
168.051724,,0.039789300627997674,168.335,0.4880000054836273,-2.5374674412778933
168.517241,,0.0453339004748853,168.795,0.4869999885559082,-2.53973230423935
168.98275900000002,,0.04704513828761219,169.265,0.49399998784065247,-2.5245437850340133
169.44827600000002,,0.04633674099091686,169.725,0.4959999918937683,-2.5202223810390634
169.913793,,0.0465847302492062,170.195,0.5009999871253967,-2.509337793998713
170.37931,,0.05002696097005511,170.655,0.49000000953674316,-2.5332843147230255
170.844828,,0.055398245485739635,171.124,0.46299999952316284,-2.592063823511424
171.310345,,0.05807534061490528,171.59,0.4880000054836273,-2.537530530511207
171.775862,,0.053388705282423565,172.055,0.4830000102519989,-2.5483357712475767
172.241379,,0.041378350065503826,172.521,0.5099999904632568,-2.4894055720241086
172.706897,,0.0281156583566783,172.98,0.4950000047683716,-2.521962786985586
173.172414,,0.020552376727779133,173.446,0.49000000953674316,-2.532721953512804
173.637931,,0.019508089465347635,173.914,0.5,-2.5107945078700387
174.103448,,0.019008466389647708,174.379,0.48399999737739563,-2.5455096121685887
174.568966,,0.013179512452407468,174.84,0.48399999737739563,-2.545369018595631
175.034483,,0.0026425714234954304,175.31,0.515999972820282,-2.4755185582525776
175.5,,0.00686727415539064,175.773,0.49799999594688416,-2.514610646170612
175.96551699999998,,0.011222670251616332,176.236,0.49000000953674316,-2.53193052486775
176.43103399999998,,0.011664088060007825,176.699,0.492000013589859,-2.5274821617622907
176.896552,,0.012042378673297485,177.168,0.49000000953674316,-2.5317695077865405
177.36206900000002,,0.014035901357397943,177.634,0.48500001430511475,-2.542616052197389
177.827586,,0.016247392913366465,178.097,0.47999998927116394,-2.553487517671213
178.293103,,0.0174904178776875,178.563,0.49000000953674316,-2.5317045356741024
178.758621,,0.01932253963473258,179.024,0.492000013589859,-2.5273754551581207
179.224138,,0.024053946612532268,179.49,0.5130000114440918,-2.481674871479138
179.68965500000002,,0.030653776660743468,179.954,0.5049999952316284,-2.499175379957643
180.155172,,0.0343428669521415,180.42,0.49000000953674316,-2.5319442699546153
180.62069,,0.03133554537096198,180.887,0.48899999260902405,-2.5342277255910766
181.086207,,0.023519203767851164,181.353,0.5019999742507935,-2.506022244380285
181.551724,,0.01742600839546607,181.814,0.49000000953674316,-2.5322909156686073
182.01724099999998,,0.018085270448423143,182.283,0.48500001430511475,-2.543313362537623
182.482759,,0.0240461203221868,182.744,0.515999972820282,-2.4759044407828217
182.948276,,0.028888809552326047,183.214,0.5040000081062317,-2.502172195775253
183.413793,,0.027644153483190295,183.677,0.5170000195503235,-2.4739644173191215
183.87931,,0.02120706304192409,184.139,0.492000013589859,-2.528532664909079
184.34482799999998,,0.014535209839711025,184.604,0.49000000953674316,-2.5329769575789323
184.81034499999998,,0.011615798499846435,185.075,0.4909999966621399,-2.5308682811941026
185.27586200000002,,0.012698978160125577,185.534,0.48100000619888306,-2.5527058595150462
185.74137900000002,,0.01534811412627597,186.002,0.48899999260902405,-2.535307789645994
186.206897,,0.016874239132762838,186.468,0.492000013589859,-2.5287819598205004
186.672414,,0.015884431482229993,186.932,0.49000000953674316,-2.5331281810306243
187.137931,,0.012778664711557208,187.397,0.4950000047683716,-2.52220310528758
187.60344800000001,,0.009568012756815897,187.862,0.4959999918937683,-2.519972938528872
188.06896600000002,,0.00858454464831957,188.328,0.49000000953674316,-2.532975352943182
188.534483,,0.010337877755808609,188.791,0.5040000081062317,-2.502389247350484
189.0,,0.012650726370615857,189.254,0.5009999871253967,-2.5088271384093543
189.465517,,0.012527213489219556,189.722,0.5059999823570251,-2.497825721960476
189.931034,,0.008920772770146603,190.184,0.48899999260902405,-2.534748218257953
190.39655199999999,,0.0033754234750456398,190.655,0.4880000054836273,-2.5368102761335645
190.862069,,0.0018339443187481146,191.117,0.4860000014305115,-2.5410531242281906
191.327586,,0.00559068967147785,191.583,0.49000000953674316,-2.5322298098507243
191.793103,,0.007839212721881924,192.05,0.49000000953674316,-2.5321301570977264
192.25862099999998,,0.008412037503878584,192.509,0.49000000953674316,-2.5320425396382285
192.72413799999998,,0.007024351799013461,192.981,0.4950000047683716,-2.521076265283865
193.189655,,0.004440669529316437,193.439,0.49399998784065247,-2.5231984612599896
193.655172,,0.002580323294779607,193.906,0.4880000054836273,-2.5362320181883913
194.12069000000002,,0.0027682839129969227,194.372,0.4880000054836273,-2.536213137255901
194.586207,,0.004150155859586016,194.84,0.49000000953674316,-2.5318567910464993
195.051724,,0.0043986542091249544,195.302,0.4779999852180481,-2.558021288956307
195.517241,,0.0023129654474295836,195.765,0.5889999866485596,-2.316228971984605
195.98275900000002,,0.0004511314313950241,196.235,0.49399998784065247,-2.5232519172762466
196.448276,,0.0008789625472813445,196.699,0.4830000102519989,-2.5472817279337265
196.913793,,0.001915400979308838,197.161,0.4779999852180481,-2.558253361086928
197.37931,,0.0053505782380360795,197.627,0.4880000054836273,-2.536556439737273
197.844828,,0.0061102053788323375,198.09,0.5019999742507935,-2.50615287858915
198.310345,,0.003818658133242689,198.555,0.47600001096725464,-2.5628996291766715
198.775862,,0.0013471129227785187,199.021,0.5080000162124634,-2.493286143933102
199.241379,,0.0015855166242471502,199.486,0.49000000953674316,-2.532602851101094
199.706897,,0.004562679409200455,199.951,0.4909999966621399,-2.5305198259983577
200.172414,,0.007985684377047508,200.417,0.5049999952316284,-2.5001059913093906
200.63793099999998,,0.009977745600042696,200.884,0.49900001287460327,-2.5132536440416002
201.103448,,0.01047435883004128,201.35,0.4909999966621399,-2.530745040481616
201.568966,,0.010146668226909066,201.81,0.4970000088214874,-2.517720130659112
202.034483,,0.009091674066013645,202.28,0.47600001096725464,-2.5635026037876307
202.5,,0.007124632231946968,202.743,0.4860000014305115,-2.541730475004315
202.965517,,0.004752186955519738,203.205,0.492000013589859,-2.5286559882525768
203.431034,,0.0032050757686753768,203.673,0.49399998784065247,-2.5242790279543916
203.896552,,0.0035478947708652555,204.136,0.4519999921321869,-2.6157467469671887
204.36206900000002,,0.005933808605339471,204.601,0.5,-2.5111220435499346
204.827586,,0.009501975474969187,205.065,0.46700000762939453,-2.5829551491399685
205.293103,,0.012690069482007594,205.531,0.5009999871253967,-2.508807697314406
205.758621,,0.013828200366665514,205.996,0.5019999742507935,-2.5065461411129455
206.224138,,0.012031480331445727,206.461,0.44699999690055847,-2.6262822754151878
206.689655,,0.008006528498618229,206.928,0.49399998784065247,-2.5237935814171566
207.155172,,0.004074647839341104,207.394,0.49000000953674316,-2.532415395931035
207.62069,,0.0029042316935709725,207.858,0.49000000953674316,-2.532324179380911
208.086207,,0.005228093765057402,208.324,0.4860000014305115,-2.540951977017244
208.551724,,0.008453691989829362,208.787,0.4959999918937683,-2.5190856423268224
209.01724099999998,,0.008563676428487165,209.25,0.4869999885559082,-2.5386228294665925
209.482759,,0.004323016918395922,209.718,0.4819999933242798,-2.5494569428949054
209.948276,,0.0010655847071381606,210.18,0.4909999966621399,-2.5298034413937684
210.413793,,0.003392209728799114,210.651,0.503000020980835,-2.5036282781558743
210.87930999999998,,0.0018969439368915631,211.113,0.49000000953674316,-2.5319342818084287
211.344828,,0.0006507951870044328,211.579,0.5009999871253967,-2.507968110784847
211.810345,,0.0016081782994584399,212.043,0.49300000071525574,-2.5254115837611706
212.27586200000002,,0.0007566792077832161,212.509,0.4819999933242798,-2.5494063118351056
212.741379,,0.0007093892567353521,212.974,0.49399998784065247,-2.5233068252420576
213.206897,,0.0016734895906505647,213.439,0.5049999952316284,-2.499398912584171
213.672414,,0.0012500763022295948,213.899,0.5139999985694885,-2.479858756898149
214.137931,,0.0007049966924480898,214.364,0.4779999852180481,-2.558366451930667
214.60344800000001,,0.0023154019773377085,214.832,0.48899999260902405,-2.5344849439423673
215.068966,,0.0006628993345094079,215.295,0.4819999933242798,-2.5498244469267677
215.534483,,0.004457823206768404,215.765,0.48500001430511475,-2.543380106644738
216.0,,0.009183544741247687,216.228,0.5019999742507935,-2.5064344856087843
216.465517,,0.009811042022252263,216.696,0.5120000243186951,-2.4847352892388326
216.93103399999998,,0.007317299489257401,217.158,0.4909999966621399,-2.530567574696283
217.39655199999999,,0.005660370082566638,217.623,0.47999998927116394,-2.5546049455338844
217.862069,,0.006304335292139249,218.086,0.48100000619888306,-2.552488757702775
218.327586,,0.00672995499532834,218.552,0.4830000102519989,-2.548182504694066
218.793103,,0.004540895666500863,219.018,0.48399999737739563,-2.5460418295681495
219.25862099999998,,0.0010591574340254564,219.483,0.48500001430511475,-2.543886696939563
219.724138,,0.00021768632420975464,219.944,0.5260000228881836,-2.454569613373159
220.18965500000002,,0.0021787647434171327,220.41,0.49300000071525574,-2.5264554026544204
220.65517200000002,,0.006015806131832787,220.877,0.5249999761581421,-2.4567118721316556
221.12069,,0.007632376541816185,221.342,0.492000013589859,-2.5285641152541496
221.586207,,0.005335087779492138,221.81,0.5040000081062317,-2.5023626761445845
222.051724,,0.0007918160388629429,222.272,0.49399998784065247,-2.5240791285657234
222.517241,,0.0024613386312398807,222.74,0.4869999885559082,-2.539249608858982
222.98275900000002,,0.002107338301354349,223.202,0.4880000054836273,-2.5369837751521476
223.448276,,0.0007913078100952509,223.666,0.49399998784065247,-2.5238203297723465
223.913793,,0.0026706298291980595,224.135,0.5070000290870667,-2.4954040658989434
224.37931,,0.001022433695459941,224.594,0.49000000953674316,-2.5323478292327155
224.844828,,0.002644997194496946,225.065,0.5,-2.5104715007101555
225.31034499999998,,0.003939965320512291,225.53,0.4880000054836273,-2.5365317817000945
225.775862,,0.00032061968986448993,225.995,0.47200000286102295,-2.5713161293511373
226.241379,,0.0056645510494890625,226.454,0.515999972820282,-2.4753932591140035
226.706897,,0.00865837087346695,226.921,0.4880000054836273,-2.536345702394938
227.172414,,0.005919488085815536,227.387,0.49300000071525574,-2.5254171063272817
227.63793099999998,,2.628856025581859e-05,227.854,0.49000000953674316,-2.5319334068444928
228.103448,,0.0039076459713969745,228.32,0.492000013589859,-2.5275727362167904
228.56896600000002,,0.0025502775880870154,228.78,0.4860000014305115,-2.540657703631465
229.03448300000002,,0.0023592600415317283,229.25,0.492000013589859,-2.527614855838922
229.5,,0.006049007745663602,229.71,0.4860000014305115,-2.5407309310504713
229.965517,,0.0055838594973090456,230.18,0.48100000619888306,-2.551682191100777
230.431034,,0.0029351026858033414,230.647,0.5049999952316284,-2.4994645347933027
230.896552,,0.0023701589740250414,231.109,0.4620000123977661,-2.593225985141986
231.362069,,0.004912665285220982,231.575,0.4959999918937683,-2.5192392150703222
231.827586,,0.006806754253603338,232.04,0.4959999918937683,-2.519330947447074
232.293103,,0.004225636547809143,232.506,0.5019999742507935,-2.506351668131783
232.758621,,0.0016825708900020688,232.965,0.48399999737739563,-2.545657960580832
233.224138,,0.005938095953856835,233.431,0.49000000953674316,-2.5326724295867797
233.689655,,0.005523451496191717,233.895,0.503000020980835,-2.5044293121772965
234.155172,,0.0024426576143323155,234.361,0.49000000953674316,-2.532821313904364
234.62069,,0.0007274309030442221,234.825,0.4909999966621399,-2.530700557670492
235.086207,,0.0017636236287639612,235.294,0.4880000054836273,-2.5372812332903596
235.55172399999998,,0.0034213939151044015,235.758,0.49000000953674316,-2.532954315827503
236.01724099999998,,0.0031282430334552717,236.221,0.5009999871253967,-2.50900418207786
236.482759,,0.0008465033763834757,236.684,0.49000000953674316,-2.5329681937304374
236.94827600000002,,0.0011406876003431296,237.154,0.4860000014305115,-2.5416661057451315
237.413793,,0.0009288529152951116,237.62,0.4909999966621399,-2.5307414273624955
237.87931,,0.0009564209465686743,238.082,0.5180000066757202,-2.4718721419203407
238.344828,,0.0021562082127066238,238.548,0.4860000014305115,-2.5415299084959573
238.810345,,0.000829224733511648,239.009,0.492000013589859,-2.5283881931155965
239.27586200000002,,0.0025172096330913643,239.476,0.49799999594688416,-2.5152382939439843
239.741379,,0.005263148198455117,239.94,0.47699999809265137,-2.5609061904208708
240.206897,,0.004924055402296861,240.406,0.5130000114440918,-2.4823880228436477
240.672414,,0.0015404559197055548,240.873,0.5210000276565552,-2.464870623495759
241.137931,,0.0022791910262402733,241.338,0.49000000953674316,-2.5323216054198543
241.603448,,0.00396675769505229,241.799,0.48899999260902405,-2.5344178905252095
242.068966,,0.0035129283594404095,242.269,0.48100000619888306,-2.5517728110661526
242.534483,,0.0031466193032266034,242.729,0.5149999856948853,-2.477634697514249
243.0,,0.004616593361345329,243.198,0.46799999475479126,-2.5799790006126178
243.465517,,0.007141574054821411,243.662,0.48899999260902405,-2.5341893857507105
243.93103399999998,,0.008323533824243683,244.124,0.5149999856948853,-2.4775214528959983
244.39655199999999,,0.007068227584255614,244.59,0.49900001287460327,-2.512371182183069
244.862069,,0.005228474851945753,245.055,0.49399998784065247,-2.5232707294151475
245.327586,,0.005815958353372279,245.521,0.5049999952316284,-2.499326659954291
245.793103,,0.009392086750437654,245.988,0.49000000953674316,-2.5320415147687347
246.258621,,0.012810515217500672,246.454,0.49000000953674316,-2.532089896773024
246.724138,,0.012314447112330214,246.918,0.5149999856948853,-2.477683553178463
247.18965500000002,,0.007712469110749165,247.384,0.4880000054836273,-2.5365759524531475
247.655172,,0.002633509173756991,247.85,0.6190000176429749,-2.2512467550346416
248.12069,,0.0005599874756004714,248.309,0.49000000953674316,-2.532367108364445
248.586207,,0.0013522346028970946,248.776,0.4860000014305115,-2.541157285141308
249.051724,,0.0019341741584318604,249.239,0.503000020980835,-2.5041968433925375
249.517241,,0.00016354551174829052,249.71,0.5090000033378601,-2.4911998415296304
249.982759,,0.004356825017848043,250.172,0.49000000953674316,-2.5326649173643574
250.44827600000002,,0.007759221165513703,250.638,0.5040000081062317,-2.5022288140966515
250.913793,,0.007874837939907401,251.102,0.5040000081062317,-2.5022860159604883
251.37931000000003,,0.004768550254098601,251.568,0.5009999871253967,-2.5088696075383523
251.844828,,0.001287659917997204,252.033,0.46299999952316284,-2.5916957314377886
252.31034499999998,,0.0010969472533884366,252.498,0.527999997138977,-2.450110093449179
252.77586200000002,,0.00553436406523667,252.965,0.4880000054836273,-2.5372699281423636
253.241379,,0.011971888617889474,253.424,0.5009999871253967,-2.5089483589023938
253.706897,,0.015901942513888885,253.895,0.492000013589859,-2.528544311639694
254.172414,,0.015107665736343584,254.354,0.4959999918937683,-2.519805595861667
254.63793099999998,,0.011490645555338916,254.825,0.5009999871253967,-2.5088764399639856
255.10344800000001,,0.008661972412304732,255.287,0.5049999952316284,-2.5001147991680126
255.56896600000002,,0.008250515946268862,255.755,0.503000020980835,-2.50441501134431
256.03448299999997,,0.0088816317937466,256.217,0.49000000953674316,-2.532672291994469
256.5,,0.00820478295437408,256.68,0.48399999737739563,-2.5456733572939982
256.965517,,0.005211334528534809,257.15,0.4560000002384186,-2.606601986670404
257.431034,,0.0007147317607710139,257.609,0.4950000047683716,-2.521560886872001
257.896552,,0.003786909029156583,258.075,0.5339999794960022,-2.4365199488819056
258.362069,,0.007504160238775293,258.541,0.5040000081062317,-2.5018061499039876
258.827586,,0.010734257338785285,259.006,0.5379999876022339,-2.4276611560214483
259.29310300000003,,0.013839623295795557,259.472,0.5019999742507935,-2.5060258456177653
259.758621,,0.01612239083981291,259.939,0.4880000054836273,-2.536467368874481
260.224138,,0.01631188037590376,260.405,0.49000000953674316,-2.532060758433042
260.689655,,0.01423118248080093,260.87,0.49000000953674316,-2.5320233676544275
261.155172,,0.011510406982007693,261.335,0.49799999594688416,-2.514569716612934
261.62068999999997,,0.010350334033365393,261.799,0.49000000953674316,-2.531987948566522
262.086207,,0.01135030559477559,262.261,0.4970000088214874,-2.5167404502882693
262.551724,,0.012457734117552516,262.729,0.49799999594688416,-2.514578713665811
263.017241,,0.01069761404737189,263.191,0.515999972820282,-2.4753928863454373
263.482759,,0.005584756836746069,263.654,0.4880000054836273,-2.5364367810400386
263.94827599999996,,0.000317929767976162,264.124,0.4880000054836273,-2.5364901424183444
264.413793,,0.0011845159203979238,264.59,0.48399999737739563,-2.5452688263972023
264.87931,,0.0017676192480874868,265.05,0.492000013589859,-2.5279125647805967
265.34482799999995,,0.006017201170213436,265.516,0.5,-2.5105627873664025
265.810345,,0.007493362769981793,265.981,0.47999998927116394,-2.5542192079358816
266.27586199999996,,0.0044926062481438185,266.446,0.4909999966621399,-2.5303394196283473
266.741379,,0.0012349765637581598,266.914,0.49000000953674316,-2.5326027958221897
267.206897,,0.00582998148757919,267.38,0.47999998927116394,-2.554470923566403
267.672414,,0.006179491984380255,267.84,0.4790000021457672,-2.5567258755293873
268.137931,,0.002629040253348595,268.31,0.5189999938011169,-2.4696480788034325
268.603448,,0.0010854453028367119,268.773,0.49399998784065247,-2.5241711207293
269.06896600000005,,0.0015998499956095002,269.236,0.48500001430511475,-2.5438228790576822
269.53448299999997,,0.0005770007297649365,269.699,0.4779999852180481,-2.5591041316845478
270.0,,0.002572279448527671,270.168,0.574999988079071,-2.347790028056766
270.465517,,0.0035408491096447737,270.634,0.492000013589859,-2.528614472670205
270.931034,,0.005289647422732871,271.097,0.5199999809265137,-2.4675915545324014
271.396552,,0.008597516720325032,271.563,0.503000020980835,-2.504591755206433
271.86206899999996,,0.011760996433477262,272.028,0.5070000290870667,-2.495825672919139
272.327586,,0.013976864268982812,272.494,0.4860000014305115,-2.5415133996513593
272.793103,,0.01797818072027376,272.954,0.515999972820282,-2.476079715380107
273.258621,,0.027371597249991754,273.419,0.4880000054836273,-2.536999409721929
273.724138,,0.042216633308358675,273.884,0.4869999885559082,-2.539090657903377
274.18965499999996,,0.05865835818962312,274.35,0.48500001430511475,-2.5433587880822377
274.655172,,0.07217834478504385,274.817,0.4390000104904175,-2.643489594788812
275.12069,,0.0796513079923895,275.28,0.49399998784065247,-2.523582282321633
275.586207,,0.07897125111730283,275.75,0.49000000953674316,-2.532221858883405
276.051724,,0.06921789640751007,276.213,0.492000013589859,-2.5277974774923613
276.517241,,0.051956685326678805,276.681,0.4909999966621399,-2.5299188804772235
276.98275900000004,,0.030694111244001503,277.143,0.49000000953674316,-2.532051589966013
277.448276,,0.008020646123917596,277.609,0.5009999871253967,-2.5080530151864733
277.913793,,0.0159296766827439,278.075,0.4909999966621399,-2.5298190607590336
278.37931,,0.04173258920166913,278.534,0.49399998784065247,-2.523276322440518
278.844828,,0.0679991121601016,279.006,0.49000000953674316,-2.5319978779462167
279.31034500000004,,0.0906266517422148,279.464,0.48899999260902405,-2.534197143816326
279.77586199999996,,0.10445739803015328,279.932,0.5049999952316284,-2.4993719683453404
280.241379,,0.1061752965700411,280.397,0.4909999966621399,-2.5299174871345946
280.706897,,0.09629833332419845,280.862,0.46700000762939453,-2.5822599547805907
281.172414,,0.07823387533037489,281.328,0.5049999952316284,-2.4995354386863946
281.637931,,0.055323106341993625,281.791,0.5009999871253967,-2.5083205252132093
282.10344799999996,,0.02970627598534527,282.254,0.5249999761581421,-2.456106640661539
282.568966,,0.004456157765714952,282.721,0.48399999737739563,-2.5455058655782583
283.034483,,0.014917657577255638,283.184,0.4959999918937683,-2.5194364461814094
283.5,,0.023428933547264923,283.654,0.4580000042915344,-2.6022980968468667
283.965517,,0.021393222353524827,284.117,0.503000020980835,-2.504328806784559
284.431034,,0.014803668086501808,284.583,0.49799999594688416,-2.515286176887143
284.89655200000004,,0.010119875881551513,285.048,0.5019999742507935,-2.5066272882490432
285.362069,,0.009144490469356408,285.513,0.47699999809265137,-2.5611396184799737
285.827586,,0.009282107015307841,285.98,0.5009999871253967,-2.5088878928386364
286.293103,,0.007996266977297283,286.446,0.48899999260902405,-2.5350560587360524
286.758621,,0.005923768336209976,286.911,0.4869999885559082,-2.539425757790161
287.22413800000004,,0.005376593780224894,287.369,0.4880000054836273,-2.537247504881646
287.689655,,0.006678035016721312,287.839,0.48500001430511475,-2.5437720515370246
288.155172,,0.00721431455188499,288.301,0.49900001287460327,-2.5132480095051886
288.62069,,0.004406319935067054,288.769,0.492000013589859,-2.5284644132928693
289.086207,,0.0011937818255360962,289.232,0.5019999742507935,-2.5066335383371436
289.55172400000004,,0.006416141158568632,289.699,0.4819999933242798,-2.5501531503462243
290.01724099999996,,0.008734140579137243,290.161,0.48899999260902405,-2.5348424240749994
290.482759,,0.008398814864545103,290.627,0.49399998784065247,-2.5238839273528337
290.948276,,0.007519623669528901,291.089,0.503000020980835,-2.5042070655078437
291.413793,,0.00788596503014619,291.555,0.46700000762939453,-2.5825680516297753
291.87931,,0.009853038946896826,292.021,0.4970000088214874,-2.5171393031264078
292.344828,,0.012315537763978819,292.486,0.4860000014305115,-2.5410380291759576
292.81034500000004,,0.01315713896138589,292.952,0.503000020980835,-2.503938715413745
293.275862,,0.010698231371050533,293.417,0.4830000102519989,-2.5474553303645897
293.74137900000005,,0.005600594750444675,293.884,0.4830000102519989,-2.547406736970835
294.206897,,0.0007132803792760358,294.35,0.49000000953674316,-2.5321169363009766
294.672414,,0.001742827011388098,294.81,0.4880000054836273,-2.5364451070555565
295.13793100000004,,0.0024604379419769333,295.28,0.49000000953674316,-2.532069403910312
295.603448,,0.0039971076180086666,295.743,0.41499999165534973,-2.695462247756949
296.068966,,0.007721260105540581,296.206,0.48899999260902405,-2.5342502102499584
296.534483,,0.012305579403719402,296.669,0.5019999742507935,-2.5059476424488314
297.0,,0.01525988952943574,297.139,0.44699999690055847,-2.6258032922770176
297.46551700000003,,0.015517597029499815,297.604,0.503000020980835,-2.503838696152846
297.931034,,0.014163796597965385,298.068,0.48899999260902405,-2.534387299435241
298.396552,,0.012783562008142854,298.534,0.5019999742507935,-2.506117657999842
298.862069,,0.011625465128424236,298.998,0.5049999952316284,-2.4996377955834204
299.327586,,0.009793411700367169,299.464,0.4880000054836273,-2.536732603959707
299.79310300000003,,0.007116324935311838,299.929,0.5059999823570251,-2.49757502850843
300.258621,,0.005111689984527025,300.395,0.492000013589859,-2.5281327108589946
300.724138,,0.0055050413251255086,300.854,0.5049999952316284,-2.4998640564648102
301.189655,,0.008116243353215707,301.32,0.48100000619888306,-2.5522013606692004
301.65517200000005,,0.0108498381042889,301.788,0.492000013589859,-2.528281258124499
302.12069,,0.011685837657706243,302.25,0.4909999966621399,-2.530499388604119
302.586207,,0.010402509507104855,302.721,0.5979999899864197,-2.2974148081304038
303.05172400000004,,0.008666309679145558,303.183,0.48399999737739563,-2.5458007865998584
303.517241,,0.008610926371502013,303.654,0.492000013589859,-2.5283827138262023
303.982759,,0.010846416008504552,304.11,0.4970000088214874,-2.517493793360997
304.448276,,0.01350293050131558,304.575,0.4880000054836273,-2.5370993580383203
304.913793,,0.013403074405057981,305.04,0.5,-2.5109472575463325
305.37931000000003,,0.008704211968108475,305.505,0.4959999918937683,-2.5196479624073858
305.844828,,0.0010911185953844215,305.969,0.47699999809265137,-2.5610238054335484
306.310345,,0.004618570500356803,306.435,0.49900001287460327,-2.5130715910319408
306.775862,,0.004152445679637754,306.902,0.49000000953674316,-2.5326545845822364
307.241379,,0.0020883079368089873,307.368,0.49300000071525574,-2.5260914474828136
307.70689699999997,,0.008951091262764672,307.829,0.4950000047683716,-2.5217052975948846
308.172414,,0.01109244850359956,308.298,0.48899999260902405,-2.534747367537979
308.637931,,0.007623751646758222,308.762,0.4869999885559082,-2.5390746133770463
309.103448,,0.002412944131400518,309.224,0.6010000109672546,-2.2906768300042666
309.568966,,0.00014558881572754266,309.695,0.49399998784065247,-2.5237572666581283
310.034483,,0.002051665693949173,310.158,0.503000020980835,-2.504113286476775
310.5,,0.005285130144206024,310.623,0.4970000088214874,-2.5171506643228727
310.96551700000003,,0.0062332495134922485,311.086,0.49399998784065247,-2.523654410059698
311.431034,,0.0039046262954371674,311.552,0.48399999737739563,-2.545411920450566
311.896552,,6.328147615135456e-05,312.017,0.49900001287460327,-2.5127070883595892
312.362069,,0.003796219359430904,312.483,0.48500001430511475,-2.5431872456433573
312.827586,,0.006570433809533957,312.948,0.5090000033378601,-2.4908829109385335
313.29310300000003,,0.008040977114387341,313.413,0.49000000953674316,-2.5322644581336946
313.758621,,0.007324257589736902,313.88,0.503000020980835,-2.5039332972095583
314.224138,,0.003941880717252568,314.346,0.49000000953674316,-2.532251251092375
314.689655,,0.0003643509615259855,314.806,0.5339999794960022,-2.4363897773812395
315.155172,,0.0019403662609291069,315.276,0.4050000011920929,-2.7174389671562302
315.62068999999997,,0.0015859595444593518,315.736,0.492000013589859,-2.527906606476452
316.086207,,0.008458662193942479,316.205,0.5070000290870667,-2.4952421563231995
316.551724,,0.013803916805698561,316.666,0.49300000071525574,-2.525761377024988
317.017241,,0.013837572755831732,317.136,0.5199999809265137,-2.4669579456620476
317.482759,,0.009050873223464427,317.594,0.5199999809265137,-2.4669787726624812
317.94827599999996,,0.0034101160099783987,318.066,0.34299999475479126,-2.852623674222743
318.413793,,0.0008991189417921645,318.524,0.4959999918937683,-2.5193208425917497
318.87931000000003,,0.002761322591285571,318.991,0.49900001287460327,-2.512818601112749
319.344828,,0.007111540764098986,319.457,0.5299999713897705,-2.445313135277514
319.810345,,0.010613305793558403,319.922,0.5070000290870667,-2.4954517570769026
320.275862,,0.011104872057405379,320.387,0.5049999952316284,-2.4998358876699465
320.741379,,0.009181285637373414,320.854,0.5080000162124634,-2.4933235870953996
321.20689699999997,,0.00718737524996376,321.32,0.515999972820282,-2.4759145726741583
321.672414,,0.0068779715647943555,321.78,0.492000013589859,-2.528218465581913
322.137931,,0.008321587383633878,322.25,0.492000013589859,-2.528231890403357
322.603448,,0.010444083449599403,322.71,0.4909999966621399,-2.5304215313921765
323.068966,,0.01191703603775899,323.18,0.5099999904632568,-2.489035448098755
323.53448299999997,,0.011885819414971271,323.639,0.492000013589859,-2.5282563593104332
324.0,,0.010484636220906262,324.109,0.4880000054836273,-2.536973827950493
324.465517,,0.00861096416733794,324.575,0.503000020980835,-2.5042948494388932
324.931034,,0.007043673561930629,325.039,0.4909999966621399,-2.530437302427346
325.396552,,0.00596046102510565,325.505,0.49799999594688416,-2.5151833450677175
325.86206899999996,,0.005280487375239398,325.969,0.503000020980835,-2.504284578968198
326.327586,,0.0049452191561437705,326.435,0.5090000033378601,-2.4912048632738206
326.793103,,0.004495720901618871,326.895,0.5080000162124634,-2.4933730306207016
327.258621,,0.002849523965417148,327.361,0.47600001096725464,-2.5630774168468693
327.724138,,0.0006485722447412886,327.825,0.4959999918937683,-2.519491090776909
328.189655,,0.004844515319465922,328.294,0.48899999260902405,-2.53472732854923
328.655172,,0.0071843305125581895,328.758,0.48899999260902405,-2.5347120283907345
329.12068999999997,,0.0060936524427440695,329.22,0.49799999594688416,-2.5150878643618166
329.586207,,0.0028741685181430817,329.684,0.5059999823570251,-2.4976409017115473
330.051724,,0.0008832588494982019,330.154,0.49000000953674316,-2.5324798319302158
330.517241,,0.002531242085907332,330.62,0.48899999260902405,-2.53463810120058
330.982759,,0.006921078566300404,331.083,0.49300000071525574,-2.5259024733091966
331.44827599999996,,0.010534888379183881,331.549,0.515999972820282,-2.4757716326504826
331.913793,,0.01040961777169733,332.015,0.5040000081062317,-2.501891994406458
332.37931,,0.006669200377884262,332.481,0.49000000953674316,-2.5323690334242217
332.844828,,0.002147424477432509,332.94,0.5040000081062317,-2.5018442059882458
333.310345,,1.146093152220047e-05,333.406,0.4959999918937683,-2.5192504731748664
333.77586199999996,,0.0015404347064935544,333.873,0.5109999775886536,-2.4865489878545106
334.241379,,0.005632378434589166,334.338,0.492000013589859,-2.5279233014361093
334.706897,,0.009226585249050238,334.799,0.5049999952316284,-2.4995837245381294
335.17241399999995,,0.00945236800335279,335.269,0.492000013589859,-2.527892573382463
335.637931,,0.006091141435209415,335.732,0.5049999952316284,-2.4995609592692523
336.103448,,0.0019505353140225898,336.195,0.5149999856948853,-2.477769827508872
336.56896600000005,,4.993328872816983e-05,336.663,0.4699999988079071,-2.575809706537837
337.034483,,2.0028964992848818e-06,337.124,0.49000000953674316,-2.532244319912439
337.5,,0.00030853438606398884,337.59,0.4569999873638153,-2.604155298501859
337.965517,,0.0020808047702324146,338.057,0.5049999952316284,-2.4996034372073495
338.431034,,0.0036345462300248635,338.523,0.49000000953674316,-2.5323130608127804
338.89655200000004,,0.003046502572326792,338.988,0.5289999842643738,-2.4473806877206457
339.36206899999996,,0.0010248191239881441,339.454,0.49000000953674316,-2.5323866499087857
339.827586,,0.0001485956216363965,339.914,0.49000000953674316,-2.5324290290166243
340.293103,,0.0015532208760545556,340.379,0.5120000243186951,-2.4845440867992608
340.758621,,0.0033606545480347407,340.844,0.5019999742507935,-2.506377263932376
341.224138,,0.0028740036677749755,341.31,0.49000000953674316,-2.532567698951709
341.68965499999996,,9.574226429595714e-05,341.78,0.4880000054836273,-2.5369712355125906
342.155172,,0.0028164697660763853,342.242,0.5049999952316284,-2.499978561665034
342.62069,,0.0026838677323378825,342.706,0.492000013589859,-2.528341654466549
343.086207,,0.00021580392071774042,343.176,0.4970000088214874,-2.5174841708872613
343.551724,,0.0013594625211666332,343.634,0.5049999952316284,-2.5000844377936393
344.01724099999996,,0.0005571884665195466,344.104,0.503000020980835,-2.5044632794622914
344.48275900000004,,0.005267313433759705,344.57,0.4880000054836273,-2.5371560631722554
344.948276,,0.009509268520430873,345.036,0.5059999823570251,-2.497944372360601
345.413793,,0.010455078044916593,345.494,0.503000020980835,-2.5044742785373812
345.87931,,0.007733114018818211,345.961,0.49900001287460327,-2.513172669951956
346.344828,,0.0033083914997283953,346.427,0.49000000953674316,-2.532754504322191
346.81034500000004,,0.00033626533478074347,346.892,0.4880000054836273,-2.5370768508849544
347.275862,,0.0014460772645171892,347.358,0.48899999260902405,-2.5348552217683764
347.741379,,0.0064952156594287715,347.821,0.4950000047683716,-2.521733057665309
348.206897,,0.011717477919328131,348.284,0.503000020980835,-2.5042471269315874
348.672414,,0.01231658982219962,348.754,0.4880000054836273,-2.5368650158031585
349.13793100000004,,0.006831062743929948,349.217,0.5019999742507935,-2.5062987026833055
349.60344799999996,,0.0011921555356768274,349.685,0.5019999742507935,-2.5062315505723993
350.068966,,0.0062582664198385105,350.146,0.49000000953674316,-2.532308137933529
350.534483,,0.005685335609484742,350.612,0.49900001287460327,-2.5126354692561645
351.0,,0.0012597826955490351,351.075,0.4699999988079071,-2.575756253184336
351.465517,,0.0032689819823147263,351.541,0.47999998927116394,-2.5539170991919837
351.93103399999995,,0.005324178857579838,352.006,0.47999998927116394,-2.553873707314985
352.396552,,0.004242299366868547,352.472,0.48899999260902405,-2.5342328740454
352.862069,,0.0005738275073096923,352.939,0.4959999918937683,-2.5189604781735495
353.32758600000005,,0.004087527150923084,353.405,0.4819999933242798,-2.5494515623264
353.793103,,0.0072075988189255966,353.87,0.4909999966621399,-2.5298463503194064
354.258621,,0.00660018701970492,354.336,0.5009999871253967,-2.508075101233048
354.72413800000004,,0.0021833822229904267,354.799,0.49000000953674316,-2.53206750928312
355.189655,,0.003614423101518759,355.261,0.48399999737739563,-2.545178674326752
355.655172,,0.007312952069242401,355.729,0.49000000953674316,-2.532157379579246
356.12069,,0.006647067139478125,356.191,0.5270000100135803,-2.4516073417016733
356.586207,,0.002210408271869222,356.654,0.48899999260902405,-2.5344630984652294
357.05172400000004,,0.002788986143856979,357.124,0.4959999918937683,-2.519285547662248
357.517241,,0.005007002624784186,357.59,0.5070000290870667,-2.495397591636452
357.982759,,0.003755922185974911,358.055,0.5049999952316284,-2.499833925066194
358.448276,,0.0011982384416874508,358.521,0.49799999594688416,-2.5151629691190793
358.913793,,0.00015675890605660909,358.98,0.4909999966621399,-2.530489806245657
359.37931000000003,,0.0003914424283970184,359.446,0.5009999871253967,-2.5087754639198634
359.844828,,0.0018943442933777995,359.911,0.48100000619888306,-2.5524144000187374
360.310345,,0.0031298534144295538,360.376,0.4959999918937683,-2.519792840446267
360.775862,,0.0035247494251932515,360.839,0.49000000953674316,-2.532913093688875
361.241379,,0.003277211989784688,361.309,0.49000000953674316,-2.532950069140964
361.706897,,0.0030042269538466913,361.77,0.5049999952316284,-2.5002944107497687
362.172414,,0.0032572240808885914,362.239,0.5120000243186951,-2.4850532306707738
362.63793100000004,,0.004167780322801652,362.703,0.5090000033378601,-2.4915829558266136
363.103448,,0.0053387373634894335,363.165,0.49900001287460327,-2.5133475117354713
363.568966,,0.006148242839837065,363.631,0.4860000014305115,-2.541633440196242
364.034483,,0.006354542025041446,364.094,0.5,-2.5110823941986933
364.5,,0.006195464725644028,364.559,0.5019999742507935,-2.5066626324263632
364.96551700000003,,0.005757108921949509,365.025,0.5040000081062317,-2.5022313760193056
365.431034,,0.00484394042074337,365.49,0.4950000047683716,-2.521755973832523
365.896552,,0.003895867529826025,365.954,0.5149999856948853,-2.478092595388851
366.362069,,0.0042867780866910725,366.42,0.4909999966621399,-2.5302849293975247
366.827586,,0.006778989840906096,366.884,0.5109999775886536,-2.4866148501808127
367.29310300000003,,0.009930030655281898,367.349,0.492000013589859,-2.5279129579624517
367.758621,,0.010967421024486935,367.817,0.48899999260902405,-2.534357052805747
368.224138,,0.008497391735747697,368.28,0.4880000054836273,-2.5364513031318348
368.689655,,0.00392748277986121,368.75,0.5099999904632568,-2.4884464901883
369.155172,,0.0001930921474300664,369.213,0.49900001287460327,-2.5123485748962735
369.62068999999997,,0.000563682756018279,369.677,0.4959999918937683,-2.5188352210397804
370.086207,,0.0015896797437244716,370.139,0.5009999871253967,-2.5079082111117006
370.55172400000004,,0.004429141533370594,370.604,0.4830000102519989,-2.5471071070082667
371.017241,,0.005157885299527596,371.075,0.4880000054836273,-2.5362154153977507
371.482759,,0.002887883504973995,371.541,0.5049999952316284,-2.499198275119364
371.948276,,0.00020625744378969,372.0,0.49300000071525574,-2.525379413363913
372.413793,,0.0008366070062147213,372.466,0.503000020980835,-2.5036468005143613
372.87931000000003,,0.0019508790242811682,372.932,0.515999972820282,-2.475393195834961
373.344828,,0.005555491472569088,373.398,0.49300000071525574,-2.5255835520566907
373.810345,,0.006299581695094888,373.863,0.492000013589859,-2.527854852057977
374.275862,,0.00300283966327254,374.328,0.4959999918937683,-2.5192420090577388
374.741379,,0.0020603312273034234,374.792,0.5049999952316284,-2.499741718309813
375.20689699999997,,0.005424060438603359,375.254,0.4959999918937683,-2.5194596426352374
375.672414,,0.005144563432526405,375.725,0.49000000953674316,-2.532641154784829
376.137931,,0.0016882933980382226,376.187,0.49900001287460327,-2.513139511823554
376.603448,,0.0026798752634606664,376.651,0.5019999742507935,-2.5067029181898777
377.068966,,0.005155633680958401,377.12,0.4970000088214874,-2.517685181429834
377.53448299999997,,0.004130529216160204,377.579,0.48899999260902405,-2.5351908132831116
378.0,,0.00038496168608103494,378.047,0.5,-2.5112870950874138
378.465517,,0.0037631515516869905,378.512,0.49799999594688416,-2.5156885948114325
378.931034,,0.006673478127549471,378.976,0.5040000081062317,-2.502641797363127
379.396552,,0.008361159701014,379.442,0.515999972820282,-2.4765027031671587
379.862069,,0.009405752199542507,379.907,0.5009999871253967,-2.5091658358129107
380.327586,,0.010010783210574635,380.373,0.5049999952316284,-2.500413957103873
380.79310300000003,,0.010849120394108114,380.836,0.49000000953674316,-2.533037004399546
381.258621,,0.013848059093072271,381.299,0.4909999966621399,-2.5307842711591766
381.724138,,0.020629330979625393,381.769,0.49000000953674316,-2.5328735962086175
382.189655,,0.030160167151830314,382.232,0.515999972820282,-2.4761263161942813
382.655172,,0.0390445525620687,382.7,0.4959999918937683,-2.519585905399936
383.12068999999997,,0.044482924877973555,383.162,0.5059999823570251,-2.4976785435429156
383.586207,,0.04645423960332877,383.628,0.5009999871253967,-2.5084469872420954
384.051724,,0.04691829422096468,384.091,0.47699999809265137,-2.560610008542457
384.517241,,0.04729970891398968,384.556,0.49000000953674316,-2.5321677495996147
384.982759,,0.04683451854576998,385.021,0.48100000619888306,-2.551664293761868
385.44827599999996,,0.04302724387317158,385.486,0.5019999742507935,-2.5058129835049514
385.913793,,0.033452080253168606,385.951,0.49000000953674316,-2.531871164190924
386.37931,,0.017362166737642525,386.417,0.4819999933242798,-2.549231925451057
386.84482799999995,,0.0036112156291177072,386.881,0.5979999899864197,-2.2964577352981537
387.310345,,0.025717977744337612,387.347,0.48899999260902405,-2.53389674853946
387.775862,,0.044617947249104964,387.81,0.5040000081062317,-2.501203305460687
388.241379,,0.057902828345750744,388.279,0.49399998784065247,-2.522998694011861
388.70689699999997,,0.06655482880127139,388.74,0.4950000047683716,-2.520851575561687
389.172414,,0.07315125699238598,389.21,0.5049999952316284,-2.499118779887343
389.637931,,0.07785233490719896,389.673,0.5109999775886536,-2.4861209527571506
390.103448,,0.07689026949489676,390.136,0.4830000102519989,-2.5472156810630677
390.56896600000005,,0.06671041011223991,390.601,0.5009999871253967,-2.5081093932302645
391.03448299999997,,0.0494853504594633,391.065,0.46399998664855957,-2.58884301329632
391.5,,0.032160050964405364,391.53,0.492000013589859,-2.527975616238995
391.965517,,0.019140947551386338,391.995,0.4790000021457672,-2.55644008314595
392.431034,,0.008186724174711349,392.461,0.48899999260902405,-2.5347982636195123
392.896552,,0.00481136502942846,392.926,0.49000000953674316,-2.532762267808918
393.36206899999996,,0.018780108834124155,393.391,0.49300000071525574,-2.5263622970088586
393.827586,,0.02780478032091805,393.858,0.4880000054836273,-2.537380359276553
394.293103,,0.028425015971645186,394.324,0.5049999952316284,-2.500452763767349
394.75862099999995,,0.024288067966019813,394.787,0.4950000047683716,-2.5223292199238894
395.224138,,0.022119410768212514,395.25,0.4959999918937683,-2.5202180732988295
395.68965499999996,,0.02409031512239668,395.718,0.4869999885559082,-2.5398687569856335
396.155172,,0.02581092975753874,396.18,0.5,-2.5115628419711613
396.62069,,0.021768567517820477,396.646,0.5009999871253967,-2.5093732274658045
397.086207,,0.011498114620929136,397.109,0.515999972820282,-2.4766543534959604
397.551724,,4.01641005779471e-06,397.575,0.49000000953674316,-2.5332325528351824
398.017241,,0.007274845955162007,398.04,0.49399998784065247,-2.5244263098790976
398.48275900000004,,0.009436939730162432,398.505,0.4970000088214874,-2.517776350553823
398.94827599999996,,0.010248101704437794,398.973,0.5170000195503235,-2.474069811720734
399.413793,,0.013821981248333932,399.439,0.4909999966621399,-2.5305652645852845
399.87931,,0.02043611308296222,399.903,0.4880000054836273,-2.536940929153609
400.344828,,0.026331897450305498,400.369,0.515999972820282,-2.4757727490451007
400.810345,,0.02729075420830429,400.832,0.49000000953674316,-2.532250309862568
401.27586199999996,,0.02254938500762264,401.294,0.5070000290870667,-2.4950502133687227
401.741379,,0.015469399382942658,401.766,0.4830000102519989,-2.547184539128995
402.206897,,0.010419658940627798,402.228,0.47999998927116394,-2.5535825450409337
402.672414,,0.00906532645328212,402.691,0.4880000054836273,-2.5360355617099795
403.137931,,0.009485107426573129,403.154,0.49799999594688416,-2.5141550403824864
403.60344799999996,,0.008192261020935983,403.619,0.49000000953674316,-2.531516670136305
404.068966,,0.0028947599718503426,404.09,0.49399998784065247,-2.5227635220999196
404.534483,,0.005757032866661665,404.555,0.5009999871253967,-2.5075046851735343
405.0,,0.014612770921274276,405.021,0.47200000286102295,-2.570708260916237
405.465517,,0.02076097590685006,405.479,0.492000013589859,-2.5271892831351788
405.931034,,0.02397821196604395,405.947,0.4959999918937683,-2.5185583226268102
406.39655200000004,,0.02590612743624924,406.413,0.48899999260902405,-2.533919261159157
406.862069,,0.02725854829113752,406.88,0.45899999141693115,-2.5994134659184813
407.327586,,0.02729851048345437,407.345,0.49000000953674316,-2.532030990195129
407.793103,,0.026252484221889423,407.806,0.4819999933242798,-2.5496316577093516
408.258621,,0.026558625955809746,408.276,0.5,-2.510597198247516
408.72413800000004,,0.030436472115972033,408.736,0.4909999966621399,-2.5303900517866724
409.18965499999996,,0.03679388853143109,409.206,0.4909999966621399,-2.5305729723665737
409.655172,,0.04163620308649398,409.666,0.49000000953674316,-2.5329268007410555
410.12069,,0.04167426680577319,410.136,0.5109999775886536,-2.487336758904112
410.586207,,0.037296872364666604,410.601,0.49000000953674316,-2.5332305728405977
411.05172400000004,,0.03209972909191223,411.065,0.5049999952316284,-2.5006693306006604
411.51724099999996,,0.029312524008213447,411.53,0.4950000047683716,-2.5225466133972736
411.982759,,0.028171592869705286,411.996,0.47999998927116394,-2.5552868884662963
412.448276,,0.02400269425753037,412.454,0.4970000088214874,-2.518278342722832
412.913793,,0.012685407369096792,412.921,0.5009999871253967,-2.509558823182993
413.37931,,0.004718060448051663,413.386,0.49000000953674316,-2.533485125612365
413.844828,,0.022119321904074292,413.851,0.49399998784065247,-2.524699244793583
414.31034500000004,,0.03335129909009115,414.317,0.5049999952316284,-2.5006321172907944
414.775862,,0.03698035690970372,414.78,0.49900001287460327,-2.5135740273124365
415.241379,,0.036485366289756085,415.25,0.5090000033378601,-2.49163341395361
415.706897,,0.036170741532112666,415.714,0.5070000290870667,-2.4958168524522693
416.172414,,0.03716660905931854,416.176,0.5040000081062317,-2.502164753692273
416.63793100000004,,0.03708182267503901,416.642,0.4819999933242798,-2.5498991850170296
417.103448,,0.03288562570882013,417.108,0.492000013589859,-2.5279158853159522
417.568966,,0.023983797374435463,417.574,0.5070000290870667,-2.495044497851361
418.034483,,0.01295766568143703,418.04,0.48899999260902405,-2.5340795177527613
418.5,,0.003538432835805449,418.499,0.4880000054836273,-2.5360944953206834
418.96551700000003,,0.0022927541150994366,418.966,0.5099999904632568,-2.4880229682248443
419.43103399999995,,0.005225298165219398,419.432,0.49000000953674316,-2.531481185581001
419.896552,,0.006772976475887708,419.899,0.5009999871253967,-2.5074318475235753
420.362069,,0.007084220163427239,420.364,0.46399998664855957,-2.587991611201976
420.827586,,0.005033489459175473,420.825,0.4860000014305115,-2.5400475581715924
421.293103,,0.00023175202514206974,421.295,0.49000000953674316,-2.531356103304662
421.758621,,0.005645122282517906,421.758,0.5180000066757202,-2.470412287252433
422.22413800000004,,0.009861724288517275,422.22,0.4950000047683716,-2.5206123498256425
422.689655,,0.010958603016304786,422.684,0.492000013589859,-2.527269804243889
423.15517200000005,,0.010105276760086473,423.154,0.5,-2.509989231918891
423.62069,,0.010248190984828931,423.619,0.4880000054836273,-2.536304050519117
424.086207,,0.013655899403019736,424.082,0.5070000290870667,-2.4950977645090817
424.55172400000004,,0.019636131301418214,424.547,0.4909999966621399,-2.5301553065568134
425.017241,,0.02453508099276422,425.013,0.492000013589859,-2.52818065248832
425.482759,,0.024646391905243075,425.479,0.515999972820282,-2.4760955126020323
425.948276,,0.019531096647391992,425.944,0.515999972820282,-2.4762888632842
426.413793,,0.01224938381789552,426.409,0.4880000054836273,-2.537469273914401
426.87931000000003,,0.006290170758616546,426.869,0.49000000953674316,-2.5332705878217125
427.344828,,0.0026527000330159815,427.335,0.5080000162124634,-2.494188892157332
427.810345,,7.464747017512502e-05,427.802,0.4830000102519989,-2.5487599852113125
428.275862,,0.002355701446206436,428.265,0.5009999871253967,-2.509616906467707
428.741379,,0.0036474501682160986,428.732,0.5090000033378601,-2.4922251855647852
429.20689699999997,,0.002370215715034452,429.195,0.48899999260902405,-2.5357990846558245
429.672414,,0.0008997095447180632,429.665,0.49000000953674316,-2.53358509854201
430.137931,,0.003445803010041721,430.128,0.49300000071525574,-2.526978936215795
430.603448,,0.0027908506763402825,430.594,0.492000013589859,-2.529054340512851
431.068966,,0.0011289610069235537,431.054,0.46700000762939453,-2.5833879261308144
431.534483,,0.006061137283019845,431.52,0.49900001287460327,-2.5135133993666536
432.0,,0.009508455829448963,431.985,0.503000020980835,-2.5046199367871034
432.46551700000003,,0.010862924491136912,432.45,0.5450000166893005,-2.4129206420339515
432.931034,,0.01151987228895252,432.917,0.4860000014305115,-2.5412532660538374
433.396552,,0.012750128343921543,433.383,0.5929999947547913,-2.3079243412507107
433.862069,,0.013871380394552851,433.848,0.5080000162124634,-2.4928957274719985
434.327586,,0.013278980142510282,434.314,0.4959999918937683,-2.518833862567259
434.79310300000003,,0.011168772202741512,434.777,0.4970000088214874,-2.51646628793126
435.258621,,0.010061273048224555,435.239,0.49399998784065247,-2.522836710804926
435.724138,,0.011942689521933517,435.71,0.492000013589859,-2.5270573577289057
436.189655,,0.015661829715313404,436.172,0.5239999890327454,-2.4572371559558293
436.655172,,0.01799537347939677,436.639,0.4569999873638153,-2.603139949269853
437.12068999999997,,0.01680454888472019,437.102,0.48399999737739563,-2.544290246800827
437.586207,,0.012580631963061403,437.568,0.4830000102519989,-2.546484583474599
438.051724,,0.007644323947025126,438.035,0.49000000953674316,-2.5312906764412184
438.517241,,0.00454357994184015,438.494,0.4300000071525574,-2.6621063650014443
438.982759,,0.004446252154923178,438.965,0.49000000953674316,-2.531522155306443
439.448276,,0.006141223613019536,439.424,0.492000013589859,-2.527332081408019
439.913793,,0.00693367031374254,439.895,0.4950000047683716,-2.5209891318881694
440.37931000000003,,0.00512972046564864,440.361,0.6060000061988831,-2.2793692285324103
440.844828,,0.0014886400973670873,440.821,0.4860000014305115,-2.5410256917906833
441.310345,,0.0018639370131521503,441.291,0.492000013589859,-2.528175970927992
441.775862,,0.0033585231847522816,441.754,0.492000013589859,-2.5283967442192585
442.241379,,0.0026191892401163743,442.217,0.503000020980835,-2.504643537645404
442.70689699999997,,0.00019730818005722509,442.68,0.5070000290870667,-2.496124755839952
443.172414,,0.002400763436689998,443.15,0.49799999594688416,-2.5159059017226424
443.637931,,0.0031414182210934335,443.616,0.4970000088214874,-2.518229860650394
444.103448,,0.0012514650486277127,444.079,0.5299999713897705,-2.446446870740839
444.568966,,0.0016133246350887292,444.545,0.5009999871253967,-2.5097027450452676
445.03448299999997,,0.00305558982724842,445.01,0.49300000071525574,-2.527167936855245
445.5,,0.0025702314301775456,445.476,0.5049999952316284,-2.501020611788926
445.965517,,0.0015802322696223242,445.936,0.4869999885559082,-2.540193352337719
446.431034,,0.0013055753172936558,446.402,0.4880000054836273,-2.537934094406709
446.896552,,0.0017798001635740853,446.87,0.5,-2.5116747618779156
447.36206899999996,,0.002799445708769606,447.335,0.5009999871253967,-2.509348771650963
447.827586,,0.00453183457479739,447.795,0.4869999885559082,-2.539675335024471
448.29310300000003,,0.006642055126568551,448.265,0.46399998664855957,-2.5895890520674394
448.758621,,0.007631636216460784,448.728,0.5049999952316284,-2.500055009026625
449.224138,,0.006008230948457709,449.191,0.4950000047683716,-2.5216235480406533
449.689655,,0.0021358178605911907,449.654,0.4650000035762787,-2.5867635745713216
450.155172,,0.0016795083619699828,450.124,0.5009999871253967,-2.508118778012479
450.62068999999997,,0.003275919787066276,450.59,0.48500001430511475,-2.5427758227614996
451.086207,,0.002785353818891071,451.055,0.49399998784065247,-2.5229849634998884
451.551724,,0.002682008399373995,451.521,0.49300000071525574,-2.52500440715418
452.017241,,0.005515808808732273,451.98,0.4779999852180481,-2.5575540042165836
452.482759,,0.011217444387156083,452.446,0.49000000953674316,-2.5313133872079874
452.94827599999996,,0.016619639413279933,452.91,0.48399999737739563,-2.5443248691325833
453.413793,,0.018133414275591137,453.375,0.48399999737739563,-2.5443026020951933
453.87931,,0.015259859671562716,453.848,0.49000000953674316,-2.5312472226718343
454.344828,,0.01120412451208355,454.306,0.4880000054836273,-2.5356591108909794
454.810345,,0.009510917487562484,454.769,0.49399998784065247,-2.5226779498890193
455.27586199999996,,0.010130815006592216,455.239,0.49000000953674316,-2.5315163016324647
455.741379,,0.009455481988707309,455.702,0.4959999918937683,-2.5185973573256106
456.206897,,0.004382583033375484,456.165,0.4869999885559082,-2.5383824335497893
456.672414,,0.004461549899357516,456.631,0.5049999952316284,-2.4993625987602743
457.137931,,0.013798938738423307,457.094,0.4909999966621399,-2.530071823955573
457.603448,,0.020853808007174297,457.559,0.4790000021457672,-2.556429942311474
458.06896600000005,,0.02473255794635731,458.025,0.49000000953674316,-2.53267916399759
458.53448299999997,,0.02582132103630531,458.49,0.48899999260902405,-2.5350654326240236
459.0,,0.025142184415876415,458.958,0.4880000054836273,-2.537438233524223
459.465517,,0.0239793664206403,459.424,0.4830000102519989,-2.548506360633131
459.931034,,0.023231093878420574,459.888,0.515999972820282,-2.476760775597299
460.39655200000004,,0.02312264510839312,460.353,0.47200000286102295,-2.572740944387476
460.86206899999996,,0.02359737943885094,460.817,0.4959999918937683,-2.5205398584457406
461.327586,,0.02419052925679367,461.28,0.49000000953674316,-2.5336623801902425
461.793103,,0.023274452795227312,461.751,0.4860000014305115,-2.542390168485091
462.258621,,0.018752974121497113,462.213,0.5040000081062317,-2.5031497101011473
462.724138,,0.01061946424031075,462.676,0.5170000195503235,-2.474764535602473
463.18965499999996,,0.0021230424239953786,463.139,0.4950000047683716,-2.5225958061944813
463.655172,,0.0027045115051730737,463.604,0.4959999918937683,-2.5202855591108104
464.12069,,0.0024646497241849466,464.069,0.5139999985694885,-2.4809099149767024
464.58620699999994,,0.0010531716977614787,464.534,0.503000020980835,-2.504691382405159
465.051724,,0.004815606448803892,465.006,0.4869999885559082,-2.5393487863546027
465.517241,,0.006197063915640632,465.464,0.49000000953674316,-2.5326014843753093
465.98275900000004,,0.0037693370741180687,465.929,0.4740000069141388,-2.5672455278229234
466.448276,,0.0017021605864155308,466.395,0.5,-2.5103901099187635
466.913793,,0.006908548738292776,466.865,0.46799999475479126,-2.579906687039525
467.37931,,0.00826254060105147,467.324,0.4959999918937683,-2.5187210882904396
467.844828,,0.005621429068077364,467.795,0.5170000195503235,-2.4728075942116936
468.31034500000004,,0.0030778890865420724,468.258,0.5329999923706055,-2.4378124741523544
468.77586199999996,,0.004878574925801873,468.721,0.47999998927116394,-2.553173340725012
469.241379,,0.010626477534347017,469.184,0.492000013589859,-2.5269559936646537
469.706897,,0.015455969986663445,469.654,0.5090000033378601,-2.4898820206209864
470.172414,,0.015148483641574978,470.117,0.48399999737739563,-2.544348574085597
470.63793100000004,,0.010480152777691229,470.583,0.48500001430511475,-2.5422080067082384
471.10344799999996,,0.006380026303889116,471.05,0.4880000054836273,-2.53574712053612
471.568966,,0.007149213090225684,471.509,0.492000013589859,-2.527141823498752
472.034483,,0.012427834634506592,471.974,0.4830000102519989,-2.5468896931630307
472.5,,0.017572483862976176,472.44,0.49900001287460327,-2.512197470277107
472.965517,,0.01814873535229625,472.907,0.48100000619888306,-2.551600057401427
473.43103399999995,,0.014169996289750691,473.372,0.4869999885559082,-2.5387300684058647
473.89655200000004,,0.009609844469160522,473.836,0.5139999985694885,-2.480116503647063
474.362069,,0.007813696721210534,474.306,0.49399998784065247,-2.523900153501723
474.827586,,0.008194632309514296,474.766,0.49000000953674316,-2.5328196138459536
475.293103,,0.007809863021111263,475.229,0.49000000953674316,-2.5330128198511237
475.758621,,0.005301625741793707,475.699,0.41600000858306885,-2.6944097064610726
476.22413800000004,,0.002304761982482075,476.161,0.5109999775886536,-2.4875939308614488
476.689655,,0.0012096410943693353,476.626,0.492000013589859,-2.529116181190406
477.155172,,0.0023194534363656064,477.089,0.4950000047683716,-2.522675135559544
477.62069,,0.0034496633608007855,477.555,0.5199999809265137,-2.468267433131258
478.086207,,0.0023765441466706222,478.021,0.503000020980835,-2.505323901208549
478.55172400000004,,0.0002689552779766765,478.486,0.4970000088214874,-2.51837607479966
479.01724099999996,,0.001156917647631571,478.951,0.5040000081062317,-2.503067632250703
479.482759,,0.0019661101159581316,479.417,0.47699999809265137,-2.5617974360167945
479.948276,,0.0070654819385042025,479.884,0.5019999742507935,-2.5072051773039417
480.413793,,0.009290420764275794,480.35,0.48399999737739563,-2.5462664429593227
480.87931000000003,,0.005718154737366596,480.813,0.49399998784065247,-2.5243023643059317
481.344828,,0.001706178968703789,481.276,0.49300000071525574,-2.526285893481927
481.810345,,0.007857642294041843,481.744,0.5,-2.5108288141552997
482.275862,,0.008966077045014545,482.206,0.49000000953674316,-2.53240393280303
482.74137900000005,,0.005783420299104417,482.673,0.4860000014305115,-2.5409095290328505
483.206897,,0.0025617603628732707,483.136,0.5019999742507935,-2.505851299607757
483.672414,,0.0029919096468985027,483.602,0.48399999737739563,-2.5448824035032067
484.13793100000004,,0.00692183276529237,484.065,0.4950000047683716,-2.5207541849535136
484.603448,,0.010577118310236357,484.531,0.49799999594688416,-2.514081767070244
485.068966,,0.009992537000493046,484.998,0.5009999871253967,-2.5074399155122324
485.534483,,0.00484803302472982,485.464,0.4950000047683716,-2.5204397479818397
486.0,,0.0009412347948523232,485.929,0.492000013589859,-2.526940078127374
486.46551700000003,,0.00295587242051522,486.394,0.5009999871253967,-2.507334308849344
486.931034,,0.0005347447002801027,486.859,0.4869999885559082,-2.5378749287789595
487.396552,,0.0032488942303007477,487.324,0.4819999933242798,-2.548844378037661
487.862069,,0.005477099987957208,487.788,0.47200000286102295,-2.5707418988108937
488.327586,,0.006094264262905344,488.25,0.49000000953674316,-2.531668584184273
488.79310300000003,,0.006705530474407737,488.714,0.4779999852180481,-2.557981219741117
489.258621,,0.008057120659299706,489.183,0.48500001430511475,-2.542920246971878
489.724138,,0.009497137868881476,489.651,0.49000000953674316,-2.532231125526668
490.189655,,0.01016413436139679,490.114,0.503000020980835,-2.5041199819988624
490.655172,,0.009920399501039272,490.58,0.4959999918937683,-2.5195817337402455
491.12069,,0.009452853800524408,491.04,0.49300000071525574,-2.5263217944411736
491.586207,,0.009799663057596908,491.506,0.49000000953674316,-2.533048483233958
492.05172400000004,,0.01123160592593355,491.973,0.49900001287460327,-2.5136118100777223
492.517241,,0.012332212777340213,492.438,0.5049999952316284,-2.5006855936015318
492.982759,,0.010983932025697318,492.902,0.4860000014305115,-2.5421952728449604
493.448276,,0.006789944846281219,493.368,0.5009999871253967,-2.509597254067195
493.913793,,0.0017871113970951151,493.836,0.4830000102519989,-2.548858444207184
494.37931000000003,,0.002037243783827032,494.299,0.48899999260902405,-2.5357948708165106
494.844828,,0.005621995823235069,494.762,0.492000013589859,-2.529229737464679
495.310345,,0.012451866854020935,495.224,0.48399999737739563,-2.546593328549437
495.775862,,0.025065040772230304,495.692,0.5049999952316284,-2.5007415930092503
496.241379,,0.04215289115165683,496.154,0.4959999918937683,-2.520217698949964
496.70689699999997,,0.059184676944636486,496.619,0.4880000054836273,-2.537487906982793
497.172414,,0.07165991650952153,497.089,0.4880000054836273,-2.5373074280796017
497.637931,,0.07761277784500871,497.555,0.48399999737739563,-2.5458261784687113
498.103448,,0.07722367736425179,498.014,0.4729999899864197,-2.5695868384285845
498.568966,,0.07062573103865162,498.48,0.49799999594688416,-2.514914133654348
499.03448299999997,,0.05683380997221427,498.947,0.5009999871253967,-2.5081756876380443
499.5,,0.035305844414758536,499.412,0.49300000071525574,-2.525412408089396
499.96551700000003,,0.008286782076372888,499.88,0.5,-2.5099858502027836
500.431034,,0.01945777777682748,500.346,0.492000013589859,-2.5272611853462394
500.89655200000004,,0.04416717321227698,500.806,0.4860000014305115,-2.540206751047308
501.362069,,0.0660324318281497,501.269,0.4950000047683716,-2.520504338968828
501.827586,,0.08727909672085112,501.74,0.4860000014305115,-2.5400524456280227
502.293103,,0.10668076517676942,502.202,0.49000000953674316,-2.531314944023793
502.758621,,0.11740322168789233,502.665,0.5049999952316284,-2.498649688549244
503.224138,,0.11246678542673835,503.136,0.49000000953674316,-2.5313803652399685
503.68965499999996,,0.09251708859583788,503.594,0.49300000071525574,-2.5249305060812217
504.15517200000005,,0.06635540716345391,504.061,0.48500001430511475,-2.5424783808739626
504.62068999999997,,0.04299978368739631,504.527,0.48100000619888306,-2.5513408232888617
505.08620699999994,,0.024541737954967488,504.991,0.4880000054836273,-2.5362625916668935
505.55172400000004,,0.007560954055438521,505.457,0.48399999737739563,-2.5451682725805584
506.017241,,0.010035659595155,505.921,0.4880000054836273,-2.5366571797333175
506.48275899999993,,0.02546054838496813,506.387,0.5170000195503235,-2.4736850198926117
506.948276,,0.03394918934335772,506.853,0.49900001287460327,-2.5131069477107446
507.413793,,0.03360281050668256,507.318,0.48899999260902405,-2.5350908357609767
507.87931,,0.027083114021123806,507.781,0.5419999957084656,-2.4198042014628998
508.344828,,0.019635175751897258,508.244,0.5289999842643738,-2.44828544852017
508.810345,,0.015682694097015018,508.714,0.4959999918937683,-2.5203116832221157
509.27586199999996,,0.01615402802800618,509.176,0.47600001096725464,-2.5639852458011094
509.74137900000005,,0.018358402336608133,509.642,0.492000013589859,-2.529195215166477
510.20689699999997,,0.01889161417661392,510.108,0.42899999022483826,-2.6664851291351344
510.67241399999995,,0.016996664963747864,510.574,0.4860000014305115,-2.5423035713137097
511.13793100000004,,0.014922273569223383,511.04,0.4909999966621399,-2.5313771966001677
511.603448,,0.015174188596322403,511.506,0.5120000243186951,-2.4855570925210473
512.0689659999999,,0.017830739228098788,511.965,0.4860000014305115,-2.5421000653762853
512.534483,,0.020553448796476612,512.431,0.48500001430511475,-2.544146985811674
513.0,,0.021032550798031235,512.895,0.503000020980835,-2.504774189162364
513.465517,,0.01925070636174567,513.361,0.5019999742507935,-2.5067747896495343
513.931034,,0.017038628882066576,513.829,0.47999998927116394,-2.554511614707468
514.396552,,0.015456748334788443,514.291,0.4909999966621399,-2.5303445655073697
514.862069,,0.013491114571401473,514.754,0.4950000047683716,-2.5214259652831856
515.327586,,0.010000285171478432,515.224,0.5049999952316284,-2.49943939052984
515.793103,,0.006147402330573157,515.688,0.503000020980835,-2.503606415506799
516.258621,,0.00443947145294003,516.15,0.5049999952316284,-2.4990748221934043
516.724138,,0.005236772688200268,516.616,0.49399998784065247,-2.522887321732474
517.189655,,0.005610201908232635,517.079,0.4959999918937683,-2.5184043785349455
517.655172,,0.0025570090161908463,517.545,0.49300000071525574,-2.5248460260509042
518.1206900000001,,0.003349847980103228,518.01,0.492000013589859,-2.526964965354226
518.5862070000001,,0.008416061053209781,518.475,0.4950000047683716,-2.520406036836356
519.051724,,0.009636857397250408,518.94,0.49799999594688416,-2.513884509472119
519.517241,,0.007316439678192909,519.406,0.47699999809265137,-2.5596878336712736
519.982759,,0.004008026238936075,519.873,0.4779999852180481,-2.557597371894306
520.448276,,0.001784700608068516,520.339,0.4909999966621399,-2.529396900649991
520.9137929999999,,0.001159859723249251,520.799,0.492000013589859,-2.5273696526119336
521.37931,,0.0019760880245903367,521.269,0.5040000081062317,-2.501401413042654
521.844828,,0.0038405106344014256,521.732,0.5049999952316284,-2.4994163215926988
522.310345,,0.0053382191041876975,522.195,0.48500001430511475,-2.543194693760482
522.7758620000001,,0.0042713951667041035,522.665,0.503000020980835,-2.5041901241473874
523.241379,,7.229825454435076e-05,523.128,0.49799999594688416,-2.515293265988136
523.7068969999999,,0.005363036710075337,523.594,0.49000000953674316,-2.5329242253717257
524.172414,,0.008014317823296879,524.059,0.5170000195503235,-2.474287803595996
524.637931,,0.00678588725196394,524.524,0.5049999952316284,-2.500597433869717
525.103448,,0.004233802106579794,524.991,0.5120000243186951,-2.4854857369529624
525.568966,,0.004231404954702817,525.449,0.5080000162124634,-2.4943079596566236
526.034483,,0.007971298613451427,525.914,0.515999972820282,-2.476951591608183
526.5,,0.01269113055808938,526.38,0.5199999809265137,-2.468272229621631
526.9655170000001,,0.014642243351854328,526.852,0.5040000081062317,-2.5031272592458076
527.4310340000001,,0.012888766976222965,527.31,0.5130000114440918,-2.48347810295715
527.8965519999999,,0.009334620690784171,527.78,0.5239999890327454,-2.459434878537885
528.362069,,0.005366570060238793,528.243,0.5049999952316284,-2.500716642447574
528.827586,,0.00026385284190080707,528.706,0.5049999952316284,-2.500573910088402
529.293103,,0.006348645947494362,529.176,0.5049999952316284,-2.500406077527171
529.7586210000001,,0.012316453931261547,529.634,0.49799999594688416,-2.5154693323356225
530.224138,,0.015044715183949647,530.104,0.5170000195503235,-2.4738742280231985
530.689655,,0.014888760459921355,530.57,0.5249999761581421,-2.4562367875965547
531.155172,,0.014786978165353468,531.036,0.5180000066757202,-2.4712775569715077
531.62069,,0.016969642588506806,531.494,0.5170000195503235,-2.4732520679877252
532.086207,,0.021208174606938475,531.959,0.527999997138977,-2.449095090332154
532.5517239999999,,0.02565395288304362,532.424,0.550000011920929,-2.4009905914874694
533.017241,,0.028190480154256837,532.892,0.5139999985694885,-2.4792708933204755
533.482759,,0.027507200799232145,533.357,0.515999972820282,-2.4747915583890485
533.9482760000001,,0.024151092163861555,533.825,0.527999997138977,-2.448559102248894
534.413793,,0.020525716429874837,534.287,0.527999997138977,-2.4485064975382422
534.87931,,0.01885868258887024,534.755,0.5230000019073486,-2.4593848580714015
535.344828,,0.018721594725030825,535.218,0.5170000195503235,-2.4724805040587343
535.810345,,0.017090579758523624,535.68,0.5370000004768372,-2.428969335605233
536.275862,,0.011508316708291095,536.15,0.5339999794960022,-2.4356026490807996
536.7413789999999,,0.003103915505081265,536.609,0.5460000038146973,-2.4095881750175483
537.206897,,0.004008703594712891,537.075,0.5360000133514404,-2.431531824562091
537.672414,,0.006446966449106086,537.541,0.5540000200271606,-2.392495999780627
538.137931,,0.00465270312668416,538.006,0.5440000295639038,-2.4144791018342184
538.6034480000001,,0.002524518950656968,538.471,0.5889999866485596,-2.3166463910210666
539.0689659999999,,0.003897396992443909,538.937,0.5490000247955322,-2.4040012682869407
539.5344829999999,,0.008909635222964543,539.402,0.5540000200271606,-2.393313669938426
540.0,,0.013932229026428756,539.869,0.5540000200271606,-2.393510151700412
540.465517,,0.015534398082234536,540.335,0.5540000200271606,-2.3936913159427644
540.931034,,0.014112297865086302,540.799,0.5730000138282776,-2.3524569036841982
541.396552,,0.012838926777790794,541.261,0.5669999718666077,-2.365662045908972
541.862069,,0.01354036583877996,541.725,0.5669999718666077,-2.3657642793513967
542.327586,,0.014900660524710903,542.195,0.5849999785423279,-2.3266166257737804
542.7931030000001,,0.0147565568659624,542.658,0.5789999961853027,-2.3397198444675897
543.258621,,0.012928955715384218,543.121,0.5709999799728394,-2.35714303680446
543.7241379999999,,0.01130230575888149,543.586,0.5920000076293945,-2.3113483793197567
544.189655,,0.011685798992310016,544.051,0.5759999752044678,-2.346128246824722
544.655172,,0.013762242613735771,544.517,0.5820000171661377,-2.3329449102003235
545.12069,,0.014993227809898792,544.984,0.6060000061988831,-2.280516686005775
545.5862070000001,,0.01312071485744328,545.449,0.5419999957084656,-2.4197852116785974
546.051724,,0.009034338081187938,545.913,0.5809999704360962,-2.3346352388785188
546.517241,,0.006095457602556212,546.379,0.5879999995231628,-2.3191898894086966
546.982759,,0.006089413497002537,546.845,0.6000000238418579,-2.292844408227151
547.448276,,0.007140959571453021,547.304,0.5920000076293945,-2.310071226130862
547.9137929999999,,0.006456629743604212,547.773,0.5979999899864197,-2.2968027127164063
548.3793099999999,,0.0038538359875810585,548.235,0.597000002861023,-2.2987967481233595
548.844828,,0.0013971143029263004,548.699,0.593999981880188,-2.305166182750688
549.310345,,0.0004041884932067709,549.169,0.5400000214576721,-2.422671147403275
549.775862,,0.00019802772470837722,549.634,0.6240000128746033,-2.2395522314134273
550.241379,,0.00033823723732414815,550.097,0.5979999899864197,-2.2961162781838493
550.706897,,0.001235903999148291,550.563,0.5799999833106995,-2.3352848776925876
551.172414,,0.0019983227681838684,551.024,0.5950000286102295,-2.302594042606337
551.637931,,0.0027981711294358257,551.49,0.6000000238418579,-2.291725860681635
552.103448,,0.004056885998194576,551.955,0.6119999885559082,-2.265641661025208
552.568966,,0.005182488496873349,552.42,0.5830000042915344,-2.328914435286448
553.034483,,0.0050448488656518195,552.887,0.6079999804496765,-2.2745700743621016
553.5,,0.0038098198609803975,553.353,0.5669999718666077,-2.3640427680408562
553.965517,,0.002907524147529561,553.814,0.5950000286102295,-2.30321048309954
554.4310340000001,,0.002804462621278199,554.284,0.5720000267028809,-2.353506006872431
554.896552,,0.00227162031046734,554.747,0.6309999823570251,-2.2251620986517557
555.3620689999999,,0.0004853299138822018,555.209,0.6000000238418579,-2.292898555145642
555.827586,,0.001600684621297338,555.68,0.5699999928474426,-2.35845283007655
556.293103,,0.0028981296130494555,556.143,0.5920000076293945,-2.3107085586490985
556.758621,,0.003973066184680764,556.608,0.5699999928474426,-2.358810365043604
557.224138,,0.005910850016959249,557.075,0.5879999995231628,-2.3197461119437706
557.689655,,0.007908654960503105,557.541,0.5669999718666077,-2.365624402779775
558.155172,,0.007328563493859972,558.006,0.4830000102519989,-2.548730454219769
558.6206900000001,,0.0027454084668777855,558.465,0.6050000190734863,-2.2830057100456056
559.0862070000001,,0.0034663712868842323,558.932,0.5529999732971191,-2.3963323803046874
559.5517239999999,,0.006507312208984128,559.397,0.5789999961853027,-2.339688267324203
560.017241,,0.0036270881016230616,559.862,0.5730000138282776,-2.3527247072401303
560.482759,,0.0032414018305234912,560.327,0.5759999752044678,-2.3461176849294536
560.948276,,0.00961811082712189,560.796,0.5630000233650208,-2.374335336788542
561.413793,,0.012283153176153005,561.257,0.5659999847412109,-2.3676647093937313
561.87931,,0.01057740647711047,561.721,0.5519999861717224,-2.398005397643852
562.344828,,0.005855056023913071,562.191,0.5759999752044678,-2.3455367191862857
562.8103450000001,,0.0012765743809033652,562.654,0.5529999732971191,-2.395449187837079
563.275862,,0.0006133888591997192,563.117,0.5419999957084656,-2.4192091894481447
563.7413789999999,,0.0049477609713036615,563.582,0.546999990940094,-2.4081093948620227
564.206897,,0.01087310971234633,564.047,0.5260000228881836,-2.453659808032978
564.672414,,0.013566194698084401,564.512,0.49799999594688416,-2.5144738064134913
565.137931,,0.01170239247976151,564.976,0.5239999890327454,-2.457660415156969
565.603448,,0.008341228016492319,565.442,0.5080000162124634,-2.492374948046621
566.068966,,0.006887064348328203,565.906,0.531000018119812,-2.4421509638910512
566.534483,,0.007234948898040098,566.372,0.5149999856948853,-2.476926253427406
567.0,,0.006662846022832835,566.84,0.5170000195503235,-2.472520086061478
567.465517,,0.003707392493046751,567.302,0.5210000276565552,-2.463792462336483
567.931034,,0.0005297750666786208,567.766,0.5090000033378601,-2.4899592412559257
568.396552,,0.005107447935240317,568.235,0.5049999952316284,-2.498732163816158
568.862069,,0.01144253916294768,568.695,0.5,-2.5097174015223316
569.327586,,0.02134741450972957,569.165,0.503000020980835,-2.5033040859392024
569.793103,,0.03344545885291921,569.631,0.503000020980835,-2.5034532183490104
570.2586210000001,,0.04297487318709311,570.093,0.49000000953674316,-2.531946417859953
570.724138,,0.04581864868120115,570.559,0.503000020980835,-2.5038108138968824
571.189655,,0.04251346201143354,571.025,0.515999972820282,-2.4756847599714296
571.655172,,0.03795730927408822,571.491,0.4970000088214874,-2.517277855561779
572.12069,,0.036990904411855756,571.955,0.5099999904632568,-2.48915055271418
572.586207,,0.03990267454890598,572.421,0.5090000033378601,-2.4915140627323913
573.051724,,0.04196152290696511,572.88,0.5299999713897705,-2.445930606897698
573.517241,,0.037742093873060774,573.346,0.49000000953674316,-2.5332224366141323
573.982759,,0.02656806350051805,573.814,0.4970000088214874,-2.518092055739272
574.4482760000001,,0.013715299186917454,574.276,0.5180000066757202,-2.47243118088435
574.913793,,0.005865425691359846,574.744,0.48899999260902405,-2.535670268045395
575.37931,,0.005275116708173195,575.206,0.5139999985694885,-2.4812282858796353
575.844828,,0.008339440706615707,575.669,0.5139999985694885,-2.4812176385642846
576.310345,,0.009438905783074936,576.139,0.5049999952316284,-2.50078023257165
576.775862,,0.005906536636111375,576.604,0.5049999952316284,-2.5007024414913417
577.241379,,0.00037878448760962874,577.068,0.5120000243186951,-2.4853443397689268
577.706897,,0.005536512316830387,577.534,0.492000013589859,-2.5287840136604496
578.172414,,0.007473741393431722,577.998,0.5049999952316284,-2.500307381561476
578.6379310000001,,0.0075550937354128805,578.464,0.49300000071525574,-2.526281354488147
579.1034480000001,,0.009101344526115435,578.928,0.4909999966621399,-2.5304591968037835
579.5689659999999,,0.014270803352420543,579.394,0.515999972820282,-2.4758096563303518
580.034483,,0.02207128581467351,579.858,0.5149999856948853,-2.47780614688318
580.5,,0.029359192588283605,580.324,0.49000000953674316,-2.5320973982508588
580.965517,,0.0338323100938774,580.784,0.49399998784065247,-2.5232216715323332
581.431034,,0.03571806143253466,581.254,0.46700000762939453,-2.5819037225914916
581.896552,,0.03631323591788675,581.714,0.49000000953674316,-2.5316780505828276
582.362069,,0.035504693448774285,582.185,0.5120000243186951,-2.483658502797216
582.827586,,0.031672639607520474,582.644,0.5130000114440918,-2.48141950295658
583.2931030000001,,0.02404233384065739,583.116,0.4569999873638153,-2.603394654696191
583.758621,,0.014153262134226291,583.574,0.503000020980835,-2.5031804311084076
584.2241379999999,,0.004427523064942204,584.039,0.4909999966621399,-2.5293600387152084
584.689655,,0.004082718315289429,584.505,0.5130000114440918,-2.481495176979625
585.155172,,0.011793385908717213,584.97,0.5109999775886536,-2.4859446426108787
585.6206900000001,,0.018875953667053646,585.435,0.492000013589859,-2.5274543340897906
586.0862070000001,,0.024307991396181464,585.902,0.5009999871253967,-2.507981873840537
586.551724,,0.02665968199043676,586.368,0.492000013589859,-2.5277404259343355
587.017241,,0.025438706183566487,586.836,0.49900001287460327,-2.512651029960635
587.482759,,0.021662746661492333,587.299,0.4620000123977661,-2.593427785024881
587.948276,,0.017212421553040425,587.762,0.49900001287460327,-2.5129850954506754
588.4137929999999,,0.013552636187203773,588.224,0.5180000066757202,-2.471752117727
588.87931,,0.01096182622468317,588.695,0.5170000195503235,-2.474079412760294
589.344828,,0.00864941752833918,589.157,0.49000000953674316,-2.5330343539186444
589.810345,,0.0052932811070108,589.623,0.5009999871253967,-2.5091800325729574
590.2758620000001,,0.00010406387092319651,590.086,0.492000013589859,-2.528874803022569
590.741379,,0.007077616794403342,590.551,0.5120000243186951,-2.4853621379297746
591.2068969999999,,0.013317770408395465,591.018,0.5040000081062317,-2.502822935454739
591.672414,,0.016031028820962846,591.483,0.49900001287460327,-2.5137182625584105
592.137931,,0.01428185978195401,591.95,0.5149999856948853,-2.4788328610961217
592.603448,,0.010269027459513799,592.409,0.5210000276565552,-2.465705272809157
593.068966,,0.008097014191918378,592.875,0.5090000033378601,-2.4917669009401213
593.534483,,0.010675078374137843,593.341,0.5109999775886536,-2.4873042361466524
594.0,,0.017363376218718432,593.811,0.5450000166893005,-2.413104837383073
594.4655170000001,,0.024605137212756863,594.273,0.5009999871253967,-2.5088244576643484
594.9310340000001,,0.028811898522083705,594.736,0.515999972820282,-2.4759937524604907
595.3965519999999,,0.028659825495201654,595.206,0.5130000114440918,-2.482374308734629
595.862069,,0.02526877613001535,595.669,0.49900001287460327,-2.5127213300794216
596.327586,,0.021261101451319223,596.132,0.5080000162124634,-2.492966429556167
596.793103,,0.01997338155952682,596.597,0.5120000243186951,-2.484116687086279
597.2586210000001,,0.024415913537856996,597.061,0.515999972820282,-2.4752831937461646
597.724138,,0.035278583333888704,597.527,0.5149999856948853,-2.4773627107074803
598.189655,,0.04948395888729283,597.991,0.503000020980835,-2.5034306829114605
598.655172,,0.06184434551535465,598.457,0.5070000290870667,-2.4946665148515565
599.12069,,0.06930101829182636,598.921,0.5389999747276306,-2.424927465637572
599.586207,,0.07352759601494314,599.387,0.5120000243186951,-2.483755434785989
600.0517239999999,,0.07884027685679387,599.852,0.5180000066757202,-2.470714988814227
600.517241,,0.08747042857875696,600.317,0.5249999761581421,-2.455521642004727
600.982759,,0.09713029667724166,600.78,0.5059999823570251,-2.496996628437825
601.448276,,0.1030433809799502,601.25,0.5070000290870667,-2.494919669249804
601.913793,,0.10168226348117464,601.71,0.527999997138977,-2.449287260075606
602.37931,,0.09233781309554137,602.18,0.5249999761581421,-2.455954747325813
602.844828,,0.07605519013350799,602.646,0.5049999952316284,-2.4996669436676893
603.310345,,0.054222682524420716,603.109,0.6230000257492065,-2.2427269726548915
603.775862,,0.028119975157754103,603.575,0.5080000162124634,-2.493407041485909
604.2413789999999,,0.0011746488393770684,604.04,0.503000020980835,-2.504427937695029
604.706897,,0.03309588989202678,604.506,0.5230000019073486,-2.4609726228657274
605.172414,,0.06770063097029883,604.965,0.531000018119812,-2.44364626801684
605.637931,,0.10489253216760684,605.431,0.5130000114440918,-2.4829463559917677
606.1034480000001,,0.14286711854200407,605.895,0.5149999856948853,-2.478652755415651
606.5689659999999,,0.177185001470644,606.361,0.49900001287460327,-2.513552510742197
607.0344829999999,,0.20215796153162738,606.824,0.5249999761581421,-2.4569257119137333
607.5,,0.21420222025500896,607.294,0.5109999775886536,-2.487420458355587
607.965517,,0.214156735063034,607.754,0.5019999742507935,-2.506998145850426
608.431034,,0.2057722879103285,608.224,0.515999972820282,-2.476444514743777
608.896552,,0.19143532109334604,608.688,0.5130000114440918,-2.4829069914387967
609.362069,,0.16982390448516407,609.15,0.5239999890327454,-2.458849841588542
609.827586,,0.13867112644985702,609.616,0.5289999842643738,-2.4478485806850183
610.293103,,0.09973719906266178,610.079,0.5170000195503235,-2.4738718278271934
610.758621,,0.059756795247383095,610.544,0.5170000195503235,-2.4737433974876004
611.2241379999999,,0.02563250836559668,611.01,0.503000020980835,-2.5041129671907547
611.689655,,0.000645267333542936,611.475,0.5090000033378601,-2.4909114006375113
612.155172,,0.02150416872620982,611.939,0.5009999871253967,-2.5082173106038885
612.62069,,0.03908291107155697,612.405,0.4959999918937683,-2.518998048966642
613.0862070000001,,0.05263884097774266,612.873,0.5249999761581421,-2.4557191257462647
613.551724,,0.060574834192876355,613.338,0.503000020980835,-2.503568210285917
614.017241,,0.0633146959306007,613.799,0.5400000214576721,-2.4228963603710882
614.4827590000001,,0.06338655618183701,614.268,0.49900001287460327,-2.512180250556824
614.948276,,0.06344937445674315,614.729,0.5040000081062317,-2.5012694069052857
615.4137929999999,,0.06449462341499021,615.198,0.5080000162124634,-2.4925613559684328
615.8793099999999,,0.06531372818584395,615.659,0.5109999775886536,-2.486055626288416
616.344828,,0.06385722182087131,616.128,0.4950000047683716,-2.5209666666501955
616.810345,,0.05981538497982643,616.594,0.4950000047683716,-2.5210406241361234
617.275862,,0.0554376117824426,617.054,0.47600001096725464,-2.5625281924370054
617.741379,,0.05292983484501884,617.52,0.5040000081062317,-2.501635445983201
618.206897,,0.051429447129862,617.984,0.5049999952316284,-2.4995778432113673
618.672414,,0.04762361381487745,618.45,0.49900001287460327,-2.5127775799891436
619.137931,,0.039595468269437654,618.917,0.49000000953674316,-2.5325160321856606
619.603448,,0.029400498832819862,619.383,0.4909999966621399,-2.5304665562996704
620.068966,,0.021166564297939575,619.847,0.5170000195503235,-2.4739443919512265
620.534483,,0.016764068043296908,620.313,0.4959999918937683,-2.5198075255503425
621.0,,0.014285376081322737,620.78,0.49000000953674316,-2.532975962149343
621.465517,,0.011204715691137943,621.242,0.49000000953674316,-2.5330548721244153
621.9310340000001,,0.00781543109520247,621.71,0.4909999966621399,-2.5309347592807496
622.396552,,0.006122255916653703,622.173,0.49000000953674316,-2.5331493364981887
622.862069,,0.006053583255877949,622.638,0.47600001096725464,-2.563662744012338
623.327586,,0.0050181391666788665,623.102,0.4819999933242798,-2.550579442879035
623.793103,,0.001862392573530726,623.568,0.4880000054836273,-2.5374724762530168
624.258621,,0.0006594789589915719,624.032,0.49799999594688416,-2.515627876488499
624.724138,,0.0009262490419275028,624.498,0.47200000286102295,-2.5721933699916355
625.189655,,0.006004859451690496,624.962,0.48399999737739563,-2.545952118117106
625.655172,,0.010113181382067293,625.427,0.49399998784065247,-2.5240531306438907
626.1206900000001,,0.010066701311869179,625.892,0.5009999871253967,-2.5086780382741334
626.5862070000001,,0.007404532320223138,626.358,0.47999998927116394,-2.554297215873845
627.0517239999999,,0.006167912979402311,626.821,0.48500001430511475,-2.543268621306916
627.5172409999999,,0.008214503116949696,627.29,0.48500001430511475,-2.5431353199245867
627.982759,,0.011597358738960072,627.751,0.4749999940395355,-2.564795229518077
628.448276,,0.013134453304150199,628.22,0.49399998784065247,-2.5232853600036864
628.913793,,0.01149363998174984,628.684,0.4749999940395355,-2.5645790790395093
629.37931,,0.007659416652944064,629.146,0.48399999737739563,-2.5448893077514514
629.844828,,0.0036541245749057314,629.612,0.45899999141693115,-2.59929573238987
630.3103450000001,,0.0016014805079135914,630.076,0.5009999871253967,-2.507756923258824
630.7758620000001,,0.002886230802709034,630.541,0.46799999475479126,-2.5796419252612806
631.2413789999999,,0.006667474675512942,631.006,0.47600001096725464,-2.562228246754946
631.706897,,0.009486834534174019,631.471,0.48399999737739563,-2.544840386327148
632.172414,,0.007830527714154802,631.936,0.47200000286102295,-2.5710497389094997
632.637931,,0.0016945334120757145,632.402,0.4819999933242798,-2.5493511270475966
633.103448,,0.004953181257556198,632.866,0.5,-2.51024221568504
633.568966,,0.007805650309313877,633.331,0.46700000762939453,-2.5822595762287115
634.034483,,0.006212041139063454,633.799,0.4830000102519989,-2.5475348476230497
634.5,,0.003244848357466564,634.261,0.5009999871253967,-2.5084597999413534
634.9655170000001,,0.002070040784821942,634.729,0.5139999985694885,-2.480278904763049
635.431034,,0.0030505425180715165,635.191,0.48899999260902405,-2.534882590612717
635.8965519999999,,0.004589589051499069,635.654,0.48399999737739563,-2.5459053227820485
636.362069,,0.00581907620772522,636.124,0.47999998927116394,-2.5547378741205424
636.827586,,0.007390634376113774,636.59,0.45100000500679016,-2.6180218458452935
637.293103,,0.009701677879708374,637.05,0.48399999737739563,-2.5462118601661468
637.7586210000001,,0.011466760263487943,637.516,0.4779999852180481,-2.559347864545687
638.224138,,0.01095904453998554,637.98,0.4830000102519989,-2.54849448542286
638.689655,,0.008330462712484667,638.446,0.4729999899864197,-2.57029534167716
639.155172,,0.005756519271824529,638.91,0.4729999899864197,-2.570283620337026
639.62069,,0.005166420169267817,639.376,0.4790000021457672,-2.5571741392691445
640.086207,,0.006422815946882747,639.839,0.4819999933242798,-2.5505755089634756
640.551724,,0.007823383663916222,640.309,0.4659999907016754,-2.585347946198815
641.017241,,0.007908135492082679,640.77,0.4650000035762787,-2.587420511597768
641.482759,,0.006630653010275854,641.24,0.4779999852180481,-2.558975314576888
641.9482760000001,,0.005128983973430109,641.703,0.4779999852180481,-2.5588391389474077
642.413793,,0.0046197728993012215,642.165,0.5170000195503235,-2.473725521408898
642.87931,,0.0053630788003725845,642.631,0.46700000762939453,-2.5825059158321166
643.344828,,0.006430365589725648,643.094,0.4729999899864197,-2.5692820958736173
643.810345,,0.006455322893653216,643.56,0.46399998664855957,-2.5887440192502034
644.275862,,0.004835105380571896,644.025,0.48100000619888306,-2.551571818641845
644.7413789999999,,0.002457388387657915,644.491,0.4749999940395355,-2.5645236135588805
645.206897,,0.0012843421239693027,644.958,0.47999998927116394,-2.5535291495854144
645.672414,,0.0028081968498733165,645.424,0.47999998927116394,-2.553450259657527
646.1379310000001,,0.006447124845640752,645.888,0.48399999737739563,-2.544681746634531
646.6034480000001,,0.009738667791491037,646.353,0.46399998664855957,-2.588228111180664
647.0689659999999,,0.01073585653712187,646.814,0.4860000014305115,-2.5402998380656285
647.534483,,0.00991327462678621,647.284,0.4650000035762787,-2.586082377449358
648.0,,0.008958041347953189,647.747,0.47999998927116394,-2.553461833502374
648.465517,,0.00816361258287768,648.21,0.48399999737739563,-2.5448327489630973
648.931034,,0.006305687759309817,648.68,0.4830000102519989,-2.5471203355123575
649.396552,,0.0031401466231618033,649.143,0.4740000069141388,-2.5668574183350277
649.862069,,0.0006980153556286945,649.609,0.47200000286102295,-2.571360632054011
650.327586,,0.0012073438667543233,650.075,0.46700000762939453,-2.582412212164443
650.7931030000001,,0.004133753301395622,650.534,0.4880000054836273,-2.536826160934624
651.258621,,0.006144403823057211,651.001,0.5910000205039978,-2.312590127853263
651.7241379999999,,0.004271513966458919,651.467,0.46700000762939453,-2.582899611273255
652.189655,,0.0011802466053586925,651.935,0.49399998784065247,-2.5242223835618582
652.655172,,0.006874273915899974,652.394,0.49000000953674316,-2.5330692563056996
653.12069,,0.009244372454965285,652.866,0.47999998927116394,-2.554969796298549
653.5862070000001,,0.007306110063122071,653.324,0.48399999737739563,-2.546347573810527
654.051724,,0.0034102195630195667,653.795,0.47999998927116394,-2.5551300627251994
654.517241,,0.0011893955713777938,654.258,0.46399998664855957,-2.5900299047741093
654.982759,,0.002116097414093695,654.721,0.4909999966621399,-2.531220053949542
655.448276,,0.004170596828786018,655.191,0.4779999852180481,-2.5595273477903286
655.9137929999999,,0.00441983766351139,655.654,0.4749999940395355,-2.5660195021914505
656.37931,,0.002430180944732469,656.117,0.4860000014305115,-2.5419832346046607
656.844828,,0.00029002224049515815,656.583,0.4690000116825104,-2.578923734486802
657.310345,,0.0002116867071425111,657.048,0.4819999933242798,-2.5504823678237605
657.7758620000001,,0.0008127794643398622,657.513,0.4659999907016754,-2.5852029486828405
658.241379,,0.002373597179010096,657.98,0.44999998807907104,-2.6199094103584604
658.7068969999999,,0.0037883284926095964,658.439,0.4650000035762787,-2.5870687156807817
659.172414,,0.004469390998228076,658.911,0.4819999933242798,-2.549865991213092
659.637931,,0.0038516832155515448,659.369,0.47200000286102295,-2.571486180874565
660.103448,,0.0023822415579096983,659.839,0.46799999475479126,-2.580039072964159
660.568966,,0.0016335866134762232,660.302,0.47999998927116394,-2.553743144536604
661.034483,,0.002515042233872818,660.765,0.47600001096725464,-2.562319466547326
661.5,,0.004063592397348579,661.235,0.4729999899864197,-2.56873540457116
661.965517,,0.004727638678706714,661.696,0.4880000054836273,-2.535957416355655
662.4310340000001,,0.004105949731982096,662.165,0.4790000021457672,-2.5554916947674533
662.8965519999999,,0.0027676424848157113,662.631,0.48500001430511475,-2.542373228731789
663.362069,,0.0011978296550236114,663.094,0.4880000054836273,-2.5358193350700584
663.827586,,0.00019734960555959665,663.559,0.46700000762939453,-2.5815825805572135
664.293103,,0.0005822504522900352,664.025,0.4740000069141388,-2.5663737932114596
664.7586210000001,,0.0007654153918777323,664.49,0.46000000834465027,-2.5969462097827347
665.224138,,0.003244741127046276,664.955,0.42399999499320984,-2.675477699631874
665.689655,,0.004917453070986786,665.421,0.4830000102519989,-2.5470638913803354
666.155172,,0.004213744325596302,665.88,0.4869999885559082,-2.5384969986330796
666.62069,,0.0015536510225079283,666.346,0.47699999809265137,-2.560446794520308
667.086207,,0.0009543092869150272,666.814,0.4749999940395355,-2.5649785426054628
667.5517239999999,,0.001246458595811937,667.276,0.4699999988079071,-2.5760524393517636
668.017241,,0.0014024577792897193,667.739,0.4830000102519989,-2.547911358229195
668.482759,,0.006184684486040207,668.21,0.46399998664855957,-2.589482275159245
668.948276,,0.010965292559925857,668.673,0.4699999988079071,-2.5765769542421504
669.413793,,0.012898166356234466,669.135,0.4880000054836273,-2.5375125464108943
669.87931,,0.01025660761011992,669.601,0.47999998927116394,-2.555072381243558
670.3448279999999,,0.004517863273394895,670.065,0.47600001096725464,-2.5638927568602994
670.810345,,0.0002054906338057856,670.53,0.47999998927116394,-2.5552560915535647
671.275862,,0.0009323837225136245,670.995,0.48899999260902405,-2.5356953943236804
671.7413789999999,,0.001220483563854009,671.461,0.4860000014305115,-2.542245779407161
672.206897,,0.002436313333981369,671.925,0.4909999966621399,-2.5313335555570564
672.672414,,6.717747501555458e-05,672.391,0.47600001096725464,-2.563961425053886
673.137931,,0.005375304037920226,672.858,0.46399998664855957,-2.590022742513615
673.6034480000001,,0.011227666387497524,673.323,0.4880000054836273,-2.537624598362301
674.068966,,0.014799918171498165,673.784,0.49000000953674316,-2.5331313346690485
674.5344829999999,,0.015111115811932538,674.254,0.4860000014305115,-2.5416881807376224
675.0,,0.013474760924510486,674.717,0.4909999966621399,-2.5306201607083567
675.465517,,0.012275016335236087,675.18,0.4659999907016754,-2.584900298690988
675.931034,,0.012771152115366129,675.651,0.4690000116825104,-2.5781733776194997
676.396552,,0.014301255248460066,676.113,0.4970000088214874,-2.51698115886886
676.862069,,0.01561072201501578,676.579,0.4699999988079071,-2.575620803075164
677.327586,,0.01611629130937426,677.043,0.48399999737739563,-2.54494786760537
677.793103,,0.015445055535019717,677.509,0.47200000286102295,-2.5709374051513234
678.2586210000001,,0.01274085934436862,677.969,0.5339999794960022,-2.4357284173037304
678.7241379999999,,0.007603456875890938,678.434,0.47200000286102295,-2.5706965541454254
679.1896549999999,,0.0014233250245156636,678.899,0.4880000054836273,-2.535759177827609
679.655172,,0.0032407984046897917,679.364,0.4440000057220459,-2.631573866189001
680.12069,,0.004742679424334009,679.832,0.45399999618530273,-2.609777389083285
