Trial: ,39
Threshold: ,0.0
Maximum EMG: ,0.040818798780654426
Success: ,True

EMG Time,Raw EMG,Filtered EMG,Force Time,Raw Force (V),Filtered Force (N)
0.0,samples,3.885631916967876e-05,0.466,0.5210000276565552,-2.4647445214908363
0.46551699999999996,time,3.9948781203335234e-05,0.932,0.550000011920929,-2.4016408922687105
0.9310339999999999,value,4.0946064417412604e-05,1.398,0.5450000166893005,-2.4126127053379176
1.396552,,4.1840504323157325e-05,1.865,0.5329999923706055,-2.438834066691506
1.862069,,4.262447193395375e-05,2.328,0.5410000085830688,-2.421479431769266
2.327586,,4.3290402482739344e-05,2.791,0.5490000247955322,-2.404119523438134
2.793103,,4.383082515011729e-05,3.261,0.5270000100135803,-2.45211192496405
3.258621,,4.4238393740812855e-05,3.724,0.5199999809265137,-2.4674165191977804
3.724138,,4.450591824004408e-05,4.187,0.5049999952316284,-2.500141648856874
4.189654999999999,,4.4626397175283096e-05,4.652,0.5350000262260437,-2.434817907718685
4.655172,,4.4593050702792115e-05,5.115,0.5540000200271606,-2.393447643468697
5.12069,,4.439935433225036e-05,5.581,0.550000011920929,-2.4021727912762407
5.586207,,4.4039073196766766e-05,6.047,0.5170000195503235,-2.4740654672401354
6.051723999999999,,4.350629676962242e-05,6.512,0.5379999876022339,-2.4282990764715273
6.517241,,4.279547392323017e-05,6.98,0.5199999809265137,-2.46748862193814
6.982759,,4.190144822006171e-05,7.445,0.5460000038146973,-2.4108069064373825
7.448276,,4.0819493319700347e-05,7.91,0.5429999828338623,-2.4172960986064043
7.913793000000001,,3.9545348380756746e-05,8.376,0.5289999842643738,-2.4477417334187392
8.379309999999998,,3.807525333116229e-05,8.839,0.531000018119812,-2.443322523352937
8.844828000000001,,3.640598387535668e-05,9.302,0.550000011920929,-2.401861691320256
9.310345,,3.4534886102141123e-05,9.769,0.5419999957084656,-2.41922113581979
9.775862,,3.245991055250402e-05,10.231,0.5379999876022339,-2.427864792658769
10.241379,,3.017964560256957e-05,10.695,0.5320000052452087,-2.4408670377190638
10.706897,,2.7693350013000294e-05,11.165,0.5440000295639038,-2.4146570492102306
11.172414,,2.500098449272942e-05,11.63,0.5249999761581421,-2.455990762615157
11.637931,,2.210324212183726e-05,12.094,0.550000011920929,-2.401470877337923
12.103447999999998,,1.9001577475744276e-05,12.56,0.5410000085830688,-2.4210334067610546
12.568966000000001,,1.569823429070072e-05,13.025,0.5339999794960022,-2.436248202543984
13.034483,,1.2196271508835202e-05,13.49,0.5189999938011169,-2.4689032836923386
13.5,,8.499587539809183e-06,13.95,0.47999998927116394,-2.55385920560787
13.965517,,4.6129425754374115e-06,14.416,0.5339999794960022,-2.436214865021195
14.431034,,5.41978793500569e-07,14.88,0.5339999794960022,-2.436230042059944
14.896552,,3.706761712579267e-06,15.345,0.5199999809265137,-2.4667572993327744
15.362069,,8.125821440484389e-06,15.814,0.5289999842643738,-2.4471859031155625
15.827586000000002,,1.2706814582783476e-05,16.275,0.515999972820282,-2.475553902409846
16.293103,,1.7440416886051473e-05,16.739,0.546999990940094,-2.408068452867957
16.758621,,2.2316358420651395e-05,17.209,0.5669999718666077,-2.3645522919671444
17.224138,,2.7323419412842302e-05,17.675,0.5299999713897705,-2.4452206484526133
17.689655,,3.244942928651935e-05,18.14,0.5529999732971191,-2.3951703437049106
18.155172,,3.768126905682009e-05,18.605,0.5210000276565552,-2.4649446003254156
18.62069,,4.300487721203357e-05,19.065,0.5540000200271606,-2.3931042469268076
19.086207,,4.840525921371391e-05,19.531,0.550000011920929,-2.401869287654774
19.551724,,5.386650073762044e-05,19.999,0.5540000200271606,-2.3931986175987383
20.017241000000002,,5.93717847700747e-05,20.465,0.5289999842643738,-2.4477017474092575
20.482758999999998,,6.490341266553745e-05,20.925,0.5450000166893005,-2.412872788769309
20.948276,,7.044282926166495e-05,21.39,0.5460000038146973,-2.410715694351301
21.413793000000002,,7.5970652137804e-05,21.858,0.531000018119812,-2.4434086630773257
21.87931,,8.146670509183401e-05,22.32,0.5339999794960022,-2.436878307498063
22.344828,,8.6910055898468e-05,22.791,0.515999972820282,-2.4760925136234575
22.810344999999998,,9.227905839959399e-05,23.253,0.5249999761581421,-2.4564770292087657
23.275862,,9.755139896398449e-05,23.717,0.5630000233650208,-2.3736743066150705
23.741379,,0.00010270414733974323,24.18,0.5419999957084656,-2.419405212320288
24.206897,,0.00010771381190821098,24.645,0.5289999842643738,-2.4477012142799883
24.672414,,0.00011255639933274226,25.109,0.5429999828338623,-2.4171695825098767
25.137931,,0.00011720747857981464,25.574,0.49799999594688416,-2.5151757333339213
25.603448,,0.000121642249273373,26.039,0.5329999923706055,-2.438889274367727
26.068966,,0.0001258356143261746,26.504,0.5249999761581421,-2.4562846637516453
26.534483,,0.00012976225677422296,26.969,0.550000011920929,-2.4017844288504677
27.0,,0.00013339672072219984,27.434,0.5540000200271606,-2.393035708932234
27.465517,,0.00013671349628916558,27.899,0.5519999861717224,-2.3973589549818044
27.931034,,0.00013968710842474864,28.365,0.5440000295639038,-2.414754786958916
28.396552,,0.00014229220944663226,28.835,0.5299999713897705,-2.445224893968966
28.862069,,0.00014450367513042464,29.298,0.5199999809265137,-2.466983899409971
29.327586,,0.00014629670416302427,29.761,0.5630000233650208,-2.3732783880018986
29.793103000000002,,0.0001476469207504273,30.224,0.5789999961853027,-2.338399164782788
30.258620999999998,,0.00014853048015062753,30.695,0.503000020980835,-2.503958515608746
30.724138,,0.0001489241768819024,31.157,0.5329999923706055,-2.438586400931167
31.189655000000002,,0.00014880555533642814,31.623,0.5270000100135803,-2.451651358424631
31.655172000000004,,0.00014815302250889553,32.088,0.5419999957084656,-2.4189699162098077
32.12069,,0.0001469459625296825,32.553,0.546999990940094,-2.408079421172555
32.586207,,0.0001451648526722569,33.021,0.5419999957084656,-2.4189792680058675
33.051724,,0.00014279138048491308,33.479,0.5070000290870667,-2.4952428636967867
33.517241000000006,,0.00013980856167777336,33.95,0.515999972820282,-2.4756512866616047
33.982759,,0.0001362008583772936,34.409,0.531000018119812,-2.442992315087679
34.448276,,0.0001319542973423893,34.881,0.5419999957084656,-2.4190512309947665
34.913793,,0.00012705658771883205,35.339,0.5460000038146973,-2.4103623004705086
35.37931,,0.00012149723789184764,35.809,0.5299999713897705,-2.4452473703825186
35.844828,,0.00011526767098096611,36.272,0.5429999828338623,-2.416952064675445
36.310345,,0.00010836133850622429,36.74,0.5540000200271606,-2.3930135296531727
36.775862,,0.00010077383174089468,37.202,0.5400000214576721,-2.423539880339021
37.241378999999995,,9.250299025310445e-05,37.668,0.5270000100135803,-2.451886287292118
37.706897000000005,,8.354900712710836e-05,38.131,0.5450000166893005,-2.412693228625647
38.172414,,7.391453034468173e-05,38.596,0.5149999856948853,-2.4780739060837935
38.637931,,6.360475979819643e-05,39.061,0.5210000276565552,-2.4650219125432287
39.103448,,5.2627539399526255e-05,39.527,0.5370000004768372,-2.4301821699142288
39.568965999999996,,4.099344374308636e-05,39.992,0.5170000195503235,-2.473771644747668
40.034483,,2.8715858777133856e-05,40.457,0.5419999957084656,-2.4193196289128385
40.5,,1.5811055935027645e-05,40.925,0.5419999957084656,-2.419330588408026
40.965517,,2.2982591775496216e-06,41.39,0.5239999890327454,-2.45855369614084
41.431034,,1.1800295601294733e-05,41.851,0.531000018119812,-2.44330733321504
41.896552,,2.6459309349272695e-05,42.321,0.5370000004768372,-2.4302364100103597
42.362069000000005,,4.16503773506263e-05,42.783,0.527999997138977,-2.4498416270032055
42.827586000000004,,5.7341955971890196e-05,43.246,0.5419999957084656,-2.419334291048473
43.293103,,7.349933918054252e-05,43.714,0.4519999921321869,-2.6154042389573555
43.758621,,9.008464534625926e-05,44.176,0.5659999847412109,-2.3670285144324446
44.224138,,0.00010705681482028927,44.642,0.5419999957084656,-2.419302949933224
44.689655,,0.00012437161877185967,45.108,0.5099999904632568,-2.4890026253909476
45.155172,,0.00014198167974151908,45.574,0.5540000200271606,-2.39312187473506
45.620689999999996,,0.00015983650434989473,46.039,0.5669999718666077,-2.3647753634776674
46.086206999999995,,0.0001778825285764536,46.504,0.5249999761581421,-2.4562502667128054
46.551724,,0.00019606317599649695,46.969,0.5379999876022339,-2.4278969383347406
47.017241,,0.0002143189293357704,47.435,0.5379999876022339,-2.4278645706423667
47.482759,,0.00023258741567073798,47.899,0.5210000276565552,-2.464868511081565
47.948276,,0.0002508035055687523,48.364,0.5339999794960022,-2.4365137648770947
48.413793,,0.00026889942642607166,48.824,0.5379999876022339,-2.4277679589738765
48.879310000000004,,0.0002868048902229527,49.294,0.5180000066757202,-2.4713117835532357
49.344828,,0.00030444723587391855,49.758,0.5339999794960022,-2.4364276382635013
49.810345,,0.0003217515863078148,50.22,0.5270000100135803,-2.4516563016622968
50.275862,,0.0003386410203664707,50.684,0.5479999780654907,-2.4058872071050996
50.741379,,0.0003550367595627525,51.154,0.5460000038146973,-2.4102312216049477
51.206897,,0.00037085836968860195,51.619,0.5460000038146973,-2.410222548885729
51.672414,,0.00038602397721138856,52.084,0.527999997138977,-2.4494350086007
52.137931,,0.0004004505003426658,52.55,0.6240000128746033,-2.2402861113745747
52.603448,,0.0004140538946073199,53.009,0.5299999713897705,-2.445084235300622
53.068966,,0.00042674941268326444,53.475,0.5440000295639038,-2.414593353603695
53.534483,,0.00043845187822238616,53.94,0.5460000038146973,-2.410253192996801
54.0,,0.00044907597330254994,54.406,0.5299999713897705,-2.4451354631212108
54.465517,,0.0004585365390982669,54.869,0.5400000214576721,-2.423379575444722
54.931034,,0.00046674888929429414,55.339,0.5400000214576721,-2.4234166626038864
55.396552,,0.000473629135702148,55.802,0.5830000042915344,-2.329776551154814
55.862069,,0.00047909452547446733,56.265,0.5400000214576721,-2.423503193670596
56.327586,,0.0004830637892465611,56.735,0.5419999957084656,-2.419193470437888
56.793102999999995,,0.0004854574994685286,57.198,0.5799999833106995,-2.336453973862546
57.258621000000005,,0.00048619843812527366,57.663,0.5270000100135803,-2.4519713680230377
57.724138,,0.0004852119729757847,58.126,0.5419999957084656,-2.41934025964016
58.189655,,0.0004824264413774594,58.592,0.5429999828338623,-2.4172087911984503
58.655172,,0.0004777735406962751,59.058,0.5270000100135803,-2.4521113250790245
59.120689999999996,,0.00047118872423950007,59.524,0.5450000166893005,-2.412935619692323
59.586207,,0.00046261160158468,59.984,0.5210000276565552,-2.465257546465977
60.051724,,0.0004519863421170941,60.45,0.5419999957084656,-2.419533464031107
60.517241,,0.00043926208052804316,60.914,0.5419999957084656,-2.4195524028867923
60.982758999999994,,0.0004243933229684957,61.38,0.5630000233650208,-2.3738091845066123
61.448276,,0.00040734035249707923,61.85,0.5210000276565552,-2.465309602646171
61.913793,,0.0003880696324084556,62.312,0.5490000247955322,-2.4042934005192063
62.379310000000004,,0.0003665542059780694,62.78,0.4909999966621399,-2.5306305164280047
62.84482800000001,,0.0003427740911124057,63.242,0.5479999780654907,-2.4064130514306763
63.310345000000005,,0.00031671666835056747,63.71,0.5429999828338623,-2.4172613154834854
63.775862000000004,,0.0002883770606234814,64.172,0.5429999828338623,-2.417205718501582
64.241379,,0.00025775850314166534,64.638,0.527999997138977,-2.4498206999367156
64.706897,,0.00022487270175152393,65.101,0.546999990940094,-2.4083542117944248
65.172414,,0.00018974017807391928,65.567,0.5720000267028809,-2.3538092032854756
65.637931,,0.0001523905997176201,66.032,0.531000018119812,-2.4430502171744966
66.103448,,0.00011286309384446599,66.498,0.5210000276565552,-2.464751827510724
66.56896599999999,,7.120654235287051e-05,66.965,0.5519999861717224,-2.397130847126411
67.03448300000001,,2.7479856941844158e-05,67.43,0.5419999957084656,-2.4188381480595376
67.5,,1.8247767680529897e-05,67.895,0.5509999990463257,-2.399157176489039
67.965517,,6.58966241717737e-05,68.361,0.49000000953674316,-2.5319912658037826
68.431034,,0.00011537628822515235,68.821,0.5170000195503235,-2.473117841498767
68.896552,,0.00016658544122582806,69.291,0.5490000247955322,-2.403366326669717
69.362069,,0.00021941172155543316,69.751,0.5460000038146973,-2.4098826513394105
69.827586,,0.0002737316061716435,70.221,0.5329999923706055,-2.4382014177985676
70.293103,,0.00032941032404427474,70.68,0.5370000004768372,-2.429500256195288
70.75862099999999,,0.00038630180297606165,71.15,0.546999990940094,-2.4077445040869967
71.22413800000001,,0.0004442486512781986,71.615,0.5419999957084656,-2.4186850528196855
71.689655,,0.0005030821757085407,72.08,0.5199999809265137,-2.466678851266265
72.15517200000001,,0.0005626224370069326,72.546,0.5460000038146973,-2.4101126363138548
72.62069,,0.0006226783442702318,73.01,0.5419999957084656,-2.4189188110124626
73.086207,,0.0006830477893080282,73.476,0.550000011920929,-2.401591136493854
73.551724,,0.0007435178220306082,73.935,0.5419999957084656,-2.4191291000687443
74.017241,,0.0008038648678425421,74.401,0.5299999713897705,-2.445386192664203
74.482759,,0.000863854987903088,74.869,0.5049999952316284,-2.499967922694551
74.94827599999999,,0.0009232441829339484,75.332,0.6209999918937683,-2.2473579826811725
75.41379300000001,,0.0009817787410717912,75.795,0.5339999794960022,-2.4370059103708663
75.87931,,0.001039195630200929,76.265,0.5249999761581421,-2.456709161774815
76.344828,,0.0010952229352240543,76.728,0.6579999923706055,-2.167030556333726
76.810345,,0.0011495803405528833,77.191,0.5389999747276306,-2.426352717544893
77.275862,,0.0012019796575761014,77.656,0.5289999842643738,-2.4481831741326228
77.741379,,0.0012521253964521213,78.119,0.5419999957084656,-2.419886607988563
78.206897,,0.0012997153819571327,78.584,0.5529999732971191,-2.3959277289379934
78.67241399999999,,0.001344441413884502,79.051,0.5460000038146973,-2.4111636525347673
79.137931,,0.0013859899719187991,79.517,0.5299999713897705,-2.4459871762212098
79.603448,,0.001424042962468242,79.984,0.5619999766349792,-2.376215823752116
80.068966,,0.0014582785037516584,80.449,0.546999990940094,-2.408821910843849
80.53448300000001,,0.0014883717490752778,80.913,0.5460000038146973,-2.410909617368464
81.0,,0.0015139957531415703,81.379,0.5260000228881836,-2.4543773699482005
81.465517,,0.0015348223822178452,81.842,0.5419999957084656,-2.4194028194738
81.931034,,0.0015505232552488284,82.305,0.5419999957084656,-2.4192784712422193
82.396552,,0.0015607706998337584,82.772,0.5540000200271606,-2.3930050408053978
82.86206899999999,,0.0015652387322671088,83.235,0.5339999794960022,-2.4364468455680406
83.327586,,0.0015636040970533516,83.699,0.5249999761581421,-2.455926192216822
83.79310299999999,,0.0015555473697784535,84.168,0.5379999876022339,-2.4274821865480614
84.258621,,0.0015407540477207177,84.634,0.5460000038146973,-2.409941485806318
84.72413800000001,,0.0015189155535480462,85.098,0.527999997138977,-2.449058914728906
85.189655,,0.0014897302412500118,85.563,0.5210000276565552,-2.4642279851112225
85.65517200000001,,0.0014529046217024765,86.029,0.5460000038146973,-2.409699949119204
86.12069,,0.0014081547903314136,86.495,0.5360000133514404,-2.431445511563971
86.586207,,0.001355207587825265,86.954,0.5370000004768372,-2.4292482580620924
87.051724,,0.0012938011473677782,87.42,0.5460000038146973,-2.409644859995571
87.517241,,0.0012236855076681588,87.888,0.5419999957084656,-2.4183869120316217
87.98275899999999,,0.00114462453706155,88.353,0.5659999847412109,-2.366148846248922
88.448276,,0.0010563987558144382,88.821,0.5400000214576721,-2.4228637798063546
88.913793,,0.0009588061569742432,89.283,0.5509999990463257,-2.398988127785488
89.37931,,0.0008516595517105443,89.75,0.5320000052452087,-2.440489418378518
89.844828,,0.0007347852155506304,90.213,0.5519999861717224,-2.3970383611624237
90.310345,,0.0006080296662470995,90.684,0.5410000085830688,-2.4211368567301332
90.775862,,0.0004712701900875467,91.139,0.5540000200271606,-2.3929555125986863
91.241379,,0.0003244115639010841,91.605,0.5460000038146973,-2.410529584585891
91.706897,,0.0001673639734234876,92.073,0.5680000185966492,-2.3627434539854146
92.17241399999999,,3.422234545848196e-08,92.538,0.5410000085830688,-2.4217063110737898
92.63793100000001,,0.00017763389730992071,93.003,0.5379999876022339,-2.4283734260852423
93.103448,,0.0003656074643103956,93.469,0.5379999876022339,-2.4284931878022262
93.568966,,0.000563804112468377,93.935,0.5809999704360962,-2.334915411629546
94.03448300000001,,0.0007722293021949916,94.401,0.5329999923706055,-2.439575101037663
94.5,,0.0009910027666860698,94.861,0.5519999861717224,-2.398243822087098
94.965517,,0.0012200960449235893,95.324,0.5260000228881836,-2.4549287426854662
95.431034,,0.0014590676005500566,95.795,0.5360000133514404,-2.4331584323113633
95.896552,,0.00170739026568836,96.258,0.5540000200271606,-2.3939338679869144
96.36206899999999,,0.0019652563201142423,96.721,0.5649999976158142,-2.3699336562134534
96.827586,,0.0022335457923188073,97.191,0.5540000200271606,-2.3938374233544297
97.293103,,0.00251214532533736,97.649,0.5529999732971191,-2.395930242995398
97.758621,,0.002798672130235589,98.119,0.5260000228881836,-2.454645997399617
98.224138,,0.003090912931140117,98.585,0.5210000276565552,-2.465413725883096
98.689655,,0.0033913935631341104,99.05,0.5389999747276306,-2.4260584527560978
99.155172,,0.003706009416527858,99.515,0.5210000276565552,-2.465123584850089
99.62069,,0.004033537327458387,99.98,0.5699999928474426,-2.3582121237604174
100.086207,,0.004360086297901093,100.445,0.5260000228881836,-2.4539112318478224
100.551724,,0.004676238117719421,100.91,0.5540000200271606,-2.3927486763499743
101.017241,,0.005002132202931408,101.369,0.5509999990463257,-2.3991296526651453
101.482759,,0.005372231510577879,101.839,0.5429999828338623,-2.4164134280796326
101.948276,,0.005771591519027374,102.301,0.5529999732971191,-2.3944955150062097
102.413793,,0.0061163501914262225,102.769,0.5460000038146973,-2.409632439098006
102.87931,,0.006369214158669944,103.231,0.531000018119812,-2.4422203753729006
103.344828,,0.0066716924292473155,103.699,0.5230000019073486,-2.4595834377451253
103.810345,,0.007212072014316646,104.162,0.5419999957084656,-2.4181510523022722
104.275862,,0.007848128619491067,104.628,0.5249999761581421,-2.4551794069884387
104.741379,,0.008077857234542952,105.095,0.5630000233650208,-2.372411457385895
105.206897,,0.007793906304269859,105.561,0.5419999957084656,-2.418212613557548
105.672414,,0.007951840536644638,106.025,0.5699999928474426,-2.3572870838470728
106.13793100000001,,0.009553728138935954,106.491,0.5270000100135803,-2.4510711632478173
106.603448,,0.01138489495367794,106.95,0.5249999761581421,-2.455554901270904
107.068966,,0.009908235942407242,107.416,0.5379999876022339,-2.4273803456534018
107.534483,,0.0031003590867357995,107.884,0.5210000276565552,-2.464582656100769
108.0,,0.0060908170471541895,108.349,0.5680000185966492,-2.362363933353045
108.46551699999999,,0.012105914153827727,108.81,0.5090000033378601,-2.491089122856595
108.931034,,0.012610505265339581,109.28,0.5540000200271606,-2.393237009765412
109.396552,,0.010253297312024798,109.743,0.5419999957084656,-2.4195644886347876
109.862069,,0.008625600545951078,110.205,0.5230000019073486,-2.461133485201121
110.32758600000001,,0.008310341894425794,110.671,0.5630000233650208,-2.3741481300917684
110.793103,,0.007562901663854021,111.135,0.5389999747276306,-2.4265768617244214
111.258621,,0.005528707065270494,111.601,0.5429999828338623,-2.4179793523206907
111.724138,,0.0034045427458392476,112.065,0.5260000228881836,-2.4551063376607063
112.189655,,0.002669714206656333,112.53,0.5299999713897705,-2.4464522893132923
112.655172,,0.003450864692710232,112.995,0.45100000500679016,-2.6185957715442303
113.12069,,0.004958329957674903,113.46,0.5320000052452087,-2.442125206899661
113.586207,,0.006489118002904906,113.925,0.550000011920929,-2.402876730074907
114.051724,,0.007480129326237494,114.39,0.5299999713897705,-2.446382656202535
114.51724100000001,,0.007432247274292361,114.854,0.5379999876022339,-2.4288534481160604
114.982759,,0.0063395898814328664,115.324,0.5410000085830688,-2.4221869499484816
115.448276,,0.004663304851110084,115.787,0.550000011920929,-2.4024208897511614
115.913793,,0.002810405152310518,116.25,0.5540000200271606,-2.393524055994749
116.37931,,0.00129845766465058,116.721,0.5239999890327454,-2.458682610718757
116.84482799999999,,0.0010164845495965707,117.183,0.5329999923706055,-2.4388615567928538
117.310345,,0.0020713048645300066,117.65,0.5379999876022339,-2.427749187228254
117.77586199999999,,0.0026781663111771583,118.113,0.5339999794960022,-2.4362448982377995
118.241379,,0.000780254489898497,118.578,0.546999990940094,-2.40771012911266
118.70689700000001,,0.003074259250254074,119.043,0.5170000195503235,-2.472870475354713
119.172414,,0.005841112668375204,119.509,0.5389999747276306,-2.4247611337951747
119.63793100000001,,0.005372342877940979,119.973,0.5329999923706055,-2.437679311081448
120.103448,,0.0026722898548665703,120.439,0.5040000081062317,-2.500737297638421
120.568966,,0.0002784308162709306,120.899,0.5170000195503235,-2.4723280340952747
121.034483,,0.0007223327835773603,121.364,0.45100000500679016,-2.6160725403583402
121.5,,0.001218774765608149,121.832,0.5199999809265137,-2.4657426587609597
121.96551699999999,,0.0020975661569701356,122.295,0.5249999761581421,-2.4548885973868804
122.431034,,0.002858671226551066,122.765,0.5210000276565552,-2.463682362710235
122.896552,,0.0024623277617303496,123.228,0.503000020980835,-2.5030158184138567
123.362069,,0.0008385380252994278,123.695,0.5239999890327454,-2.457417623019982
123.827586,,0.0009033058794225885,124.157,0.527999997138977,-2.448887128538835
124.293103,,0.0015048479349588461,124.623,0.5540000200271606,-2.3924507307605136
124.758621,,0.0006263157288982074,125.088,0.5540000200271606,-2.3926765602870756
125.22413800000001,,0.0008628650066028537,125.554,0.5429999828338623,-2.4168780420550835
125.68965500000002,,0.0015552233489688472,126.021,0.5429999828338623,-2.4171182443394787
126.15517200000001,,0.000700334270323889,126.479,0.5540000200271606,-2.3933901374079225
126.62069000000001,,0.0010909103382704057,126.95,0.5329999923706055,-2.439368884218884
127.086207,,0.002393357964815923,127.416,0.45100000500679016,-2.618230508608085
127.55172400000001,,0.002326079767809347,127.88,0.550000011920929,-2.4027372601238164
128.017241,,0.0013367042202241301,128.339,0.5329999923706055,-2.439940256915955
128.48275900000002,,0.0005572365477365492,128.806,0.5529999732971191,-2.3964993445119376
128.948276,,0.0004915078331435057,129.276,0.5460000038146973,-2.4118434767699153
129.413793,,0.0005722107941243842,129.739,0.5379999876022339,-2.42932496554637
129.87931,,1.769219760925772e-05,130.201,0.5379999876022339,-2.429334438130479
130.344828,,0.0011842187007433881,130.667,0.5669999718666077,-2.36611938754649
130.81034499999998,,0.002404449293206113,131.13,0.5360000133514404,-2.4335797015714697
131.275862,,0.0033309127517113404,131.596,0.5389999747276306,-2.4269253133564153
131.741379,,0.004352316872958458,132.061,0.5450000166893005,-2.4136977013748897
132.206897,,0.005816549571240837,132.526,0.5339999794960022,-2.4374746013443565
132.67241399999997,,0.007319576896676966,132.992,0.5529999732971191,-2.395864686720548
133.13793099999998,,0.008077575720276061,133.457,0.5540000200271606,-2.3934488851073246
133.60344800000001,,0.007554292425644297,133.924,0.5299999713897705,-2.4454851511516464
134.06896600000002,,0.005366674553677556,134.39,0.5299999713897705,-2.4452277511627236
134.53448300000002,,0.001833546974675983,134.851,0.5419999957084656,-2.418828476646618
135.0,,1.1452765178101517e-05,135.32,0.6140000224113464,-2.2617181086945224
135.465517,,0.0046303340688809164,135.783,0.531000018119812,-2.4423124728512646
135.931034,,0.01445128152891762,136.246,0.531000018119812,-2.442101949923496
136.396552,,0.016367743262231615,136.709,0.5270000100135803,-2.450637261745792
136.862069,,0.0024523642552926237,137.18,0.5230000019073486,-2.4592096666460357
137.327586,,0.032696149203343815,137.645,0.5379999876022339,-2.4264293044045293
137.793103,,0.044539487568118805,138.109,0.5130000114440918,-2.4808396111859095
138.258621,,0.02128154651526064,138.575,0.5199999809265137,-2.4655804372890757
138.724138,,0.016686871535615894,139.039,0.5339999794960022,-2.4351181790240397
139.189655,,0.032091345208892987,139.505,0.5230000019073486,-2.4591680972096146
139.655172,,0.011464510687927618,139.97,0.515999972820282,-2.47454730408813
140.12069,,0.021286966054416583,140.435,0.5460000038146973,-2.4093561665711736
140.586207,,0.031974000036206464,140.895,0.5419999957084656,-2.4182729650194736
141.05172399999998,,0.011920016471776729,141.361,0.5270000100135803,-2.451182349588152
141.51724099999998,,0.018048831317967126,141.829,0.531000018119812,-2.4427184721523014
141.982759,,0.03391930827814985,142.291,0.550000011920929,-2.4015880696258525
142.44827600000002,,0.027240311016053766,142.754,0.5659999847412109,-2.3669976933151626
142.913793,,0.0030344625479220666,143.224,0.5379999876022339,-2.428263252223306
143.37931,,0.023695895390787446,143.688,0.5260000228881836,-2.454658760070205
143.844828,,0.03159195770552002,144.15,0.5370000004768372,-2.4309269931747504
144.310345,,0.01081663818767091,144.615,0.5389999747276306,-2.4267772864278063
144.77586200000002,,0.01997168565481751,145.08,0.5360000133514404,-2.4334883436145476
145.241379,,0.026786963983415762,145.546,0.5379999876022339,-2.4292686390826947
145.706897,,0.002765980771308468,146.013,0.5419999957084656,-2.4206496002362927
146.172414,,0.040363625217860535,146.479,0.5199999809265137,-2.4686308125494048
146.637931,,0.04492884987413418,146.94,0.5299999713897705,-2.4468495269304733
147.103448,,0.011219091413869552,147.405,0.531000018119812,-2.4446300428833263
147.568966,,0.023622952546739694,147.869,0.5339999794960022,-2.4380083934391004
148.034483,,0.027786629017431105,148.339,0.6150000095367432,-2.2614077639619468
148.5,,0.011778356261702065,148.802,0.5389999747276306,-2.4268132461462812
148.965517,,0.006672535721281732,149.265,0.5460000038146973,-2.41135519611204
149.43103399999998,,0.018883141686387217,149.736,0.5419999957084656,-2.4198344906915286
149.89655199999999,,0.02228041213273355,150.198,0.5540000200271606,-2.393434506379116
150.362069,,0.004310627500907403,150.664,0.5410000085830688,-2.4214877960312697
150.82758600000003,,0.043085819479324224,151.127,0.5419999957084656,-2.4190355400465435
151.293103,,0.05382137576063613,151.592,0.5239999890327454,-2.4579821648642293
151.758621,,0.023808573592139372,152.057,0.5699999928474426,-2.357507895936717
152.224138,,0.014960582808113762,152.523,0.5360000133514404,-2.4313453950363724
152.68965500000002,,0.02445793940379183,152.987,0.527999997138977,-2.4485658542833253
153.155172,,0.0027759550668779243,153.453,0.550000011920929,-2.4004615302241272
153.62069,,0.020102942688707538,153.918,0.5329999923706055,-2.437364397893263
154.086207,,0.01944094847496451,154.383,0.5540000200271606,-2.3915222755882017
154.551724,,0.0009927906876490108,154.846,0.5270000100135803,-2.450302022241088
155.017241,,0.021237418308034918,155.309,0.550000011920929,-2.4001974515401865
155.482759,,0.028995898625049896,155.776,0.5419999957084656,-2.4176788773152986
155.948276,,0.022995890620913822,156.239,0.5350000262260437,-2.433027769255467
156.413793,,0.004188147439297572,156.709,0.5360000133514404,-2.4309911282751857
156.87931,,0.01976778805458387,157.172,0.5759999752044678,-2.344025734915792
157.34482799999998,,0.028694248432454533,157.638,0.531000018119812,-2.4422776081150865
157.81034499999998,,0.008256446068854117,158.101,0.5249999761581421,-2.455589095314717
158.275862,,0.025862305269532534,158.567,0.5540000200271606,-2.392667559603635
158.741379,,0.037061891836529824,159.032,0.5410000085830688,-2.421260552822398
159.20689700000003,,0.007821699162021299,159.497,0.5460000038146973,-2.410640472941081
159.672414,,0.03509807922330067,159.965,0.5139999985694885,-2.4806252562246627
160.137931,,0.04627570525873493,160.431,0.5490000247955322,-2.4046274640974317
160.60344800000001,,0.014437904927020812,160.895,0.5419999957084656,-2.4201115521283607
161.06896600000002,,0.024483964829138206,161.36,0.5640000104904175,-2.372385138808127
161.534483,,0.03362332605780439,161.821,0.5210000276565552,-2.4662351164253704
162.0,,0.017636690410097137,162.291,0.628000020980835,-2.233245935827094
162.465517,,0.007387543120607915,162.754,0.5239999890327454,-2.4599048378971187
162.931034,,0.015004506398951489,163.216,0.5370000004768372,-2.431614002602988
163.396552,,0.019459371014024243,163.687,0.5540000200271606,-2.3945611431230733
163.862069,,0.0021700753539644394,164.15,0.5170000195503235,-2.4751083751816205
164.327586,,0.03868869796115682,164.615,0.5230000019073486,-2.461929692472266
164.793103,,0.0528637102783598,165.08,0.5350000262260437,-2.4356385722085663
165.258621,,0.027377657184672784,165.545,0.5239999890327454,-2.4594202528062237
165.72413799999998,,0.011944868172662946,166.009,0.5419999957084656,-2.41999021386744
166.189655,,0.02690567294088501,166.475,0.5239999890327454,-2.4589671854063098
166.655172,,0.009509695625356711,166.94,0.5410000085830688,-2.4216742650948455
167.12069,,0.014873340951884001,167.406,0.550000011920929,-2.401800761660375
167.58620699999997,,0.019605325695414958,167.869,0.5360000133514404,-2.432034053346472
168.051724,,0.0023439908172369632,168.332,0.5540000200271606,-2.39255657436598
168.517241,,0.020887365267425274,168.795,0.5419999957084656,-2.4184524378686048
168.98275900000002,,0.035024401416196005,169.265,0.5419999957084656,-2.418225933004565
169.44827600000002,,0.030738580308467992,169.728,0.5210000276565552,-2.4637800094065416
169.913793,,0.0035917940353274863,170.191,0.5429999828338623,-2.415687762937801
170.37931,,0.03366236607198601,170.656,0.5180000066757202,-2.47003228664092
170.844828,,0.04876981856360412,171.119,0.5419999957084656,-2.417667246055644
171.310345,,0.02212909642572336,171.584,0.5379999876022339,-2.4263505231396385
171.775862,,0.022921564733292446,172.05,0.550000011920929,-2.400221878585298
172.241379,,0.03990728816108234,172.516,0.5329999923706055,-2.4373201440067485
172.706897,,0.010879709150070365,172.981,0.5170000195503235,-2.47228447048109
173.172414,,0.031461042455084146,173.446,0.5400000214576721,-2.422323571671237
173.637931,,0.039358079067857356,173.913,0.5339999794960022,-2.435580628104344
174.103448,,0.004524524398934418,174.378,0.527999997138977,-2.4488687964715004
174.568966,,0.03470214766683936,174.839,0.5630000233650208,-2.372856600345679
175.034483,,0.042574297444491885,175.309,0.5419999957084656,-2.418864966957275
175.5,,0.02567875004816791,175.769,0.5529999732971191,-2.395164720923365
175.96551699999998,,0.015283250585924366,176.239,0.5389999747276306,-2.4259310194291204
176.43103399999998,,0.02320199891791861,176.702,0.578000009059906,-2.3412207584070677
176.896552,,0.028013765928167258,177.165,0.550000011920929,-2.4024635675157873
177.36206900000002,,0.005670318822595197,177.63,0.5329999923706055,-2.439718232358262
177.827586,,0.03339460111063575,178.098,0.5669999718666077,-2.365832806096797
178.293103,,0.04972970932702605,178.564,0.5389999747276306,-2.4269886124918196
178.758621,,0.02189873551304275,179.029,0.5419999957084656,-2.420567163622253
179.224138,,0.024187675978973564,179.494,0.546999990940094,-2.409746417299079
179.68965500000002,,0.04279898984045921,179.954,0.5170000195503235,-2.475134566742141
180.155172,,0.018316845134174767,180.419,0.5299999713897705,-2.4467972795635653
180.62069,,0.020300302237751377,180.884,0.5479999780654907,-2.4075232348408737
181.086207,,0.033102977245829224,181.35,0.5289999842643738,-2.448817084131403
181.551724,,0.01081243018481385,181.817,0.5490000247955322,-2.4051044759421627
182.01724099999998,,0.021919135842031146,182.28,0.503000020980835,-2.5051484346438264
182.482759,,0.037977768333697544,182.75,0.5410000085830688,-2.422157342204692
182.948276,,0.028938147234993578,183.213,0.5460000038146973,-2.4110384831942793
183.413793,,0.0009653992303542436,183.684,0.5699999928474426,-2.358507458612429
183.87931,,0.029979062847322813,184.139,0.5249999761581421,-2.4562924720316626
184.34482799999998,,0.040625830644287826,184.604,0.5429999828338623,-2.4168202193291215
184.81034499999998,,0.018588535225943354,185.069,0.550000011920929,-2.401318410694494
185.27586200000002,,0.017751521958518094,185.534,0.5210000276565552,-2.4642607612370666
185.74137900000002,,0.030740739565373702,185.999,0.5239999890327454,-2.4575071863391766
186.206897,,0.002922695959996348,186.465,0.5509999990463257,-2.398493012888822
186.672414,,0.038771709609233665,186.932,0.5260000228881836,-2.452800661823522
187.137931,,0.04886158663119625,187.398,0.5419999957084656,-2.4178206657420342
187.60344800000001,,0.016284435974566972,187.861,0.5320000052452087,-2.439525925236315
188.06896600000002,,0.02254324427191715,188.324,0.5270000100135803,-2.4503809002052184
188.534483,,0.030951297282405726,188.791,0.5260000228881836,-2.452565645993437
189.0,,0.015048509245614542,189.261,0.527999997138977,-2.4482587121541033
189.465517,,0.006463326615206107,189.724,0.5320000052452087,-2.439636834035838
189.931034,,0.014801281572301553,190.187,0.5379999876022339,-2.42669694730182
190.39655199999999,,0.015086040423701907,190.653,0.5419999957084656,-2.4181491061348974
190.862069,,0.014805193537494857,191.115,0.5360000133514404,-2.431417318600704
191.327586,,0.05640148804891196,191.581,0.5329999923706055,-2.438173531512578
191.793103,,0.06634907280729486,192.046,0.531000018119812,-2.4427685100440244
192.25862099999998,,0.030036468320763395,192.512,0.546999990940094,-2.4081581548666526
192.72413799999998,,0.018095102333085065,192.977,0.5419999957084656,-2.419301742979359
193.189655,,0.034411734072802874,193.442,0.5339999794960022,-2.4369763162699183
193.655172,,0.012672101033999943,193.91,0.5389999747276306,-2.426316475348172
194.12069000000002,,0.016055101039147538,194.376,0.5669999718666077,-2.3655283300472543
194.586207,,0.020811728265367882,194.839,0.5410000085830688,-2.4223608929871823
195.051724,,0.0001806319667145743,195.302,0.5490000247955322,-2.4050880529924967
195.517241,,0.026063923685314537,195.77,0.5419999957084656,-2.420459559419069
195.98275900000002,,0.03821621605215394,196.232,0.5649999976158142,-2.370432357711433
196.448276,,0.030432640984598254,196.695,0.5529999732971191,-2.39661610379402
196.913793,,0.005106124128231477,197.165,0.5440000295639038,-2.4162211911672222
197.37931,,0.024276356267849058,197.63,0.5210000276565552,-2.466286340152774
197.844828,,0.03360162333702573,198.095,0.5299999713897705,-2.4465961278328683
198.310345,,0.009908883017819965,198.56,0.5490000247955322,-2.405082902562085
198.775862,,0.027254378243862912,199.024,0.5419999957084656,-2.4201814131381334
199.241379,,0.039547786076601775,199.49,0.5379999876022339,-2.4287152411097224
199.706897,,0.010345486017560452,199.95,0.5540000200271606,-2.393652750898283
200.172414,,0.03280349879704364,200.417,0.5360000133514404,-2.432647096591213
200.63793099999998,,0.04485212340492086,200.883,0.5339999794960022,-2.4367727830691712
201.103448,,0.014607316284869486,201.349,0.5170000195503235,-2.4735752800067474
201.568966,,0.02300739044264712,201.809,0.5669999718666077,-2.3644122857592493
202.034483,,0.032294298827626806,202.279,0.5370000004768372,-2.4295505625949487
202.5,,0.01837069502240622,202.74,0.5320000052452087,-2.440238801973559
202.965517,,0.011574620775628682,203.209,0.503000020980835,-2.5032378852088955
203.431034,,0.022095243540344332,203.675,0.5419999957084656,-2.4181177506969527
203.896552,,0.026102555297950865,204.14,0.5379999876022339,-2.426711685529875
204.36206900000002,,0.0002223482193531477,204.599,0.5419999957084656,-2.417911133964727
204.827586,,0.04255113276184891,205.065,0.5379999876022339,-2.4265767357019445
205.293103,,0.05885598538356423,205.531,0.5339999794960022,-2.4352805145843677
205.758621,,0.030248138900894443,205.995,0.5400000214576721,-2.4222359769195267
206.224138,,0.014323224671490352,206.461,0.5339999794960022,-2.435372552073981
206.689655,,0.0323755160122014,206.928,0.5419999957084656,-2.418042844565361
207.155172,,0.014608994961137592,207.393,0.5400000214576721,-2.4225312390213114
207.62069,,0.011494993510602059,207.854,0.5540000200271606,-2.39218856925743
208.086207,,0.016871053804168732,208.324,0.5429999828338623,-2.4163344304154775
208.551724,,0.0005499443496754173,208.784,0.5540000200271606,-2.392566677673717
209.01724099999998,,0.02223757090681184,209.253,0.5299999713897705,-2.445063162665179
209.482759,,0.031903941672957854,209.717,0.5339999794960022,-2.4365632817565572
209.948276,,0.022575378884719253,210.179,0.5329999923706055,-2.4389567577617135
210.413793,,0.006336242967965862,210.644,0.6190000176429749,-2.2518001000755987
210.87930999999998,,0.040937996000698994,211.116,0.5379999876022339,-2.428462882398795
211.344828,,0.05166727466772896,211.574,0.550000011920929,-2.4024920197810364
211.810345,,0.022022570586071676,212.039,0.43700000643730164,-2.648831793157898
212.27586200000002,,0.024476857799927785,212.505,0.49000000953674316,-2.533494143802729
212.741379,,0.04278647392208763,212.97,0.527999997138977,-2.4508104873822885
213.206897,,0.01450954052127446,213.435,0.5299999713897705,-2.4465270490330386
213.672414,,0.029815373381689925,213.902,0.531000018119812,-2.4443879962958355
214.137931,,0.042753291196975685,214.368,0.5490000247955322,-2.4051763087380773
214.60344800000001,,0.013397135114195402,214.836,0.515999972820282,-2.477039942114878
215.068966,,0.022574160244562033,215.298,0.5419999957084656,-2.4203284625843726
215.534483,,0.029915156092174655,215.761,0.5299999713897705,-2.446372817993706
216.0,,0.014620432265012072,216.224,0.550000011920929,-2.402669675193824
216.465517,,0.007552250130249967,216.692,0.527999997138977,-2.4504428759150607
216.93103399999998,,0.01955616157990262,217.154,0.5400000214576721,-2.424119530420377
217.39655199999999,,0.027200282485205743,217.619,0.5210000276565552,-2.4653173633570726
217.862069,,0.005092675845308369,218.091,0.6079999804496765,-2.2755659377362463
218.327586,,0.035488148850632964,218.549,0.5419999957084656,-2.419139462806226
218.793103,,0.05319189910734221,219.014,0.5419999957084656,-2.418921064232364
219.25862099999998,,0.025656426779581895,219.48,0.5249999761581421,-2.455746584624246
219.724138,,0.02093151617596249,219.946,0.5270000100135803,-2.451191305271133
220.18965500000002,,0.04027767118388704,220.412,0.5289999842643738,-2.4466558274665036
220.65517200000002,,0.016230247673573974,220.884,0.5339999794960022,-2.435609052780127
221.12069,,0.022627191243727005,221.342,0.5170000195503235,-2.472521758367321
221.586207,,0.03594204764271361,221.806,0.5400000214576721,-2.4223216266577547
222.051724,,0.01320811605337526,222.276,0.5329999923706055,-2.43751634541644
222.517241,,0.0217516571800135,222.736,0.5289999842643738,-2.446211921995161
222.98275900000002,,0.041175202754618716,223.205,0.5659999847412109,-2.365619870532316
223.448276,,0.035111300201511306,223.671,0.5249999761581421,-2.454998454279852
223.913793,,0.008932783272786737,224.135,0.5509999990463257,-2.398442290315732
224.37931,,0.02088955735481661,224.6,0.527999997138977,-2.4486725315762587
224.844828,,0.03045480101170186,225.066,0.5299999713897705,-2.4444660238520486
225.31034499999998,,0.007929517639732566,225.524,0.5299999713897705,-2.444642235785532
225.775862,,0.026930718826424838,225.991,0.5389999747276306,-2.4252308002655925
226.241379,,0.03593696233942432,226.457,0.5540000200271606,-2.3927612916462735
226.706897,,0.0029318986531715408,226.922,0.5299999713897705,-2.445266864098697
227.172414,,0.04284782491678217,227.387,0.546999990940094,-2.408449233687472
227.63793099999998,,0.0544269802220403,227.85,0.5429999828338623,-2.4173784103781
228.103448,,0.02098482765950928,228.32,0.5429999828338623,-2.4175817171624394
228.56896600000002,,0.019832743227094593,228.78,0.5329999923706055,-2.4395546287427856
229.03448300000002,,0.03025462137919473,229.25,0.5260000228881836,-2.4549697915376805
229.5,,0.01572052932241846,229.713,0.5400000214576721,-2.424607033952532
229.965517,,0.008071475893274907,230.176,0.5370000004768372,-2.431250609325427
230.431034,,0.01892607791818927,230.641,0.5180000066757202,-2.472718787539612
230.896552,,0.025722848601594902,231.108,0.515999972820282,-2.4771148600989594
231.362069,,0.00485523186695883,231.574,0.5400000214576721,-2.4248294370175474
231.827586,,0.031633701433995916,232.039,0.5189999938011169,-2.4705462454154254
232.293103,,0.04552142404152069,232.505,0.5410000085830688,-2.4225446248479847
232.758621,,0.01983198036716682,232.97,0.5630000233650208,-2.3745075941707268
233.224138,,0.018321603364489954,233.435,0.531000018119812,-2.4440845177791726
233.689655,,0.03005274543504099,233.895,0.5389999747276306,-2.4264869459193728
234.155172,,0.00827734480693869,234.361,0.5490000247955322,-2.4045081427942088
234.62069,,0.01932220300397761,234.824,0.5170000195503235,-2.474014563713326
235.086207,,0.024033848163095395,235.294,0.5249999761581421,-2.4563638432876425
235.55172399999998,,0.004139884761723236,235.754,0.5429999828338623,-2.4169216171705274
236.01724099999998,,0.02085324647982418,236.224,0.550000011920929,-2.4014451720915884
236.482759,,0.03376782521687223,236.688,0.5540000200271606,-2.392511306388129
236.94827600000002,,0.028529450902035042,237.15,0.531000018119812,-2.4424141723695043
237.413793,,0.005900148274894319,237.615,0.550000011920929,-2.400833512852793
237.87931,,0.022457019267429632,238.08,0.5320000052452087,-2.439888259760313
238.344828,,0.0322181091985897,238.546,0.5249999761581421,-2.455008638943681
238.810345,,0.00844771380563012,239.013,0.5339999794960022,-2.435305730975974
239.27586200000002,,0.02968176832063275,239.479,0.5249999761581421,-2.4548566485834886
239.741379,,0.040465224098340184,239.943,0.5410000085830688,-2.419981123977693
240.206897,,0.003861481021970068,240.409,0.5529999732971191,-2.3938602587846693
240.672414,,0.04968587279570075,240.869,0.550000011920929,-2.400457738633654
241.137931,,0.06664643123338373,241.34,0.5249999761581421,-2.4550232182003024
241.603448,,0.031266113147395316,241.802,0.5210000276565552,-2.4638728301816735
242.068966,,0.01632495592277114,242.265,0.5630000233650208,-2.3725367383228004
242.534483,,0.03171810721318237,242.736,0.5649999976158142,-2.3683724487252857
243.0,,0.01697350030263852,243.198,0.5370000004768372,-2.4295875500278807
243.465517,,0.00580994746491315,243.664,0.5339999794960022,-2.4363514618811157
243.93103399999998,,0.01323158532867158,244.126,0.5299999713897705,-2.445303174177783
244.39655199999999,,0.018297744465237676,244.592,0.5410000085830688,-2.4215773819539317
244.862069,,0.002743646097363466,245.057,0.550000011920929,-2.402203813661574
245.327586,,0.03838035137618278,245.523,0.550000011920929,-2.402425531396217
245.793103,,0.05060312053647971,245.987,0.5460000038146973,-2.411342667216885
246.258621,,0.02252745457320612,246.453,0.5400000214576721,-2.424592105488387
246.724138,,0.01845518087598169,246.918,0.5460000038146973,-2.4116677679944565
247.18965500000002,,0.03308104809846835,247.384,0.5339999794960022,-2.437924716122123
247.655172,,0.013863328204801526,247.847,0.5210000276565552,-2.4663228241521753
248.12069,,0.01224312043081902,248.309,0.5460000038146973,-2.4118928782795472
248.586207,,0.017369433071195237,248.776,0.5789999961853027,-2.339991515422356
249.051724,,0.0004460280087737574,249.239,0.546999990940094,-2.4096589530673187
249.517241,,0.023346860390434935,249.71,0.5260000228881836,-2.455319951306374
249.982759,,0.03507841303736146,250.172,0.531000018119812,-2.4442986560393827
250.44827600000002,,0.027852913110649354,250.638,0.5360000133514404,-2.4332435018363467
250.913793,,0.00048712665950409597,251.102,0.5299999713897705,-2.446124049159943
251.37931000000003,,0.033056437172162285,251.567,0.5540000200271606,-2.393620459042107
251.844828,,0.04324064652506479,252.032,0.515999972820282,-2.47617490761499
252.31034499999998,,0.014425300531402164,252.497,0.5389999747276306,-2.4258204505460292
252.77586200000002,,0.028602431636167755,252.962,0.5249999761581421,-2.4560719698184657
253.241379,,0.04089085777843878,253.428,0.5379999876022339,-2.427502921535503
253.706897,,0.0069589429753676504,253.895,0.5120000243186951,-2.4839115087025996
254.172414,,0.038642403105998896,254.354,0.5149999856948853,-2.477157324493982
254.63793099999998,,0.04767170319144432,254.824,0.5350000262260437,-2.433390160634669
255.10344800000001,,0.012947197926999755,255.287,0.5450000166893005,-2.411438480845416
255.56896600000002,,0.025773916924999304,255.755,0.5249999761581421,-2.454879697064478
256.03448299999997,,0.03290424731907628,256.216,0.515999972820282,-2.4743936928981447
256.5,,0.016382371419670128,256.684,0.5199999809265137,-2.4656267047946985
256.965517,,0.007530981994001596,257.146,0.5419999957084656,-2.4176867465680894
257.431034,,0.016318629912349187,257.612,0.5260000228881836,-2.4525779763800024
257.896552,,0.02037111322324425,258.076,0.531000018119812,-2.4417594782474192
258.362069,,0.0022561383544086335,258.542,0.5270000100135803,-2.4505888543267176
258.827586,,0.03842824468624473,259.007,0.5210000276565552,-2.463812507819633
259.29310300000003,,0.05006506048488099,259.472,0.5360000133514404,-2.4313174118007685
259.758621,,0.021245923610377283,259.939,0.5440000295639038,-2.4140998071082413
260.224138,,0.019207830776192487,260.405,0.515999972820282,-2.4753347016110636
260.689655,,0.031217553749700467,260.869,0.5210000276565552,-2.464689095120674
261.155172,,0.008745098009722762,261.331,0.5379999876022339,-2.427908011595239
261.62068999999997,,0.018035706524003752,261.795,0.5239999890327454,-2.4586652501511557
262.086207,,0.020055918753050773,262.265,0.49000000953674316,-2.532989164285194
262.551724,,0.0011939835413540753,262.728,0.5230000019073486,-2.4613310170705924
263.017241,,0.02319544766267507,263.191,0.5419999957084656,-2.4201533895634175
263.482759,,0.03035908402208831,263.656,0.5419999957084656,-2.420341743301366
263.94827599999996,,0.021591012171179376,264.119,0.5180000066757202,-2.4727837708272484
264.413793,,0.00041286468181407176,264.584,0.5419999957084656,-2.420612586533515
264.87931,,0.023847118029863123,265.05,0.5299999713897705,-2.4468309141254796
265.34482799999995,,0.031356616293387006,265.516,0.5429999828338623,-2.418538443801826
265.810345,,0.009355378294105673,265.98,0.6669999957084656,-2.148367788611813
266.27586199999996,,0.0248184621560821,266.446,0.527999997138977,-2.45113195901134
266.741379,,0.03423426252279681,266.91,0.5180000066757202,-2.4728055367204593
267.206897,,0.00309886414378069,267.376,0.5419999957084656,-2.4203662222032167
267.672414,,0.039528443426682984,267.84,0.5339999794960022,-2.437608832869591
268.137931,,0.04798250359670994,268.309,0.5419999957084656,-2.419963399033083
268.603448,,0.013276814763931303,268.772,0.5379999876022339,-2.428438588421822
269.06896600000005,,0.026527843394549177,269.236,0.550000011920929,-2.4020389942171314
269.53448299999997,,0.03522353618411887,269.699,0.5529999732971191,-2.3952382271905996
270.0,,0.020021472563832274,270.168,0.5669999718666077,-2.3644703713402344
270.465517,,0.012793407558132183,270.634,0.5260000228881836,-2.453534398113524
270.931034,,0.02338551610093625,271.098,0.5540000200271606,-2.3922865841452468
271.396552,,0.02742967332940482,271.564,0.5540000200271606,-2.3920628638887584
271.86206899999996,,0.0014977298352476074,272.024,0.5289999842643738,-2.44633403338212
272.327586,,0.03969597554615153,272.489,0.5509999990463257,-2.3982435530373163
272.793103,,0.05443945571881727,272.955,0.5299999713897705,-2.44387491326515
273.258621,,0.02422584540517834,273.42,0.5379999876022339,-2.4263690243459712
273.724138,,0.021758442677123322,273.887,0.531000018119812,-2.441589038635909
274.18965499999996,,0.04016013362429682,274.353,0.5299999713897705,-2.4437845454944727
274.655172,,0.020442901784515802,274.814,0.5350000262260437,-2.4329546847809786
275.12069,,0.009699424630071162,275.283,0.5379999876022339,-2.4265268810080993
275.586207,,0.018949485664582173,275.746,0.5419999957084656,-2.417961280200036
276.051724,,0.002984146012573809,276.209,0.5299999713897705,-2.4442905577784786
276.517241,,0.0200612557554439,276.675,0.5299999713897705,-2.444507137891376
276.98275900000004,,0.033121540714773696,277.14,0.5460000038146973,-2.409889740074116
277.448276,,0.028455342146371125,277.606,0.5379999876022339,-2.4275767318021133
277.913793,,0.003997780807475784,278.072,0.5049999952316284,-2.499739398574672
278.37931,,0.02896038714464989,278.538,0.5640000104904175,-2.371467982990586
278.844828,,0.04178095196358192,279.002,0.527999997138977,-2.450160884557322
279.31034500000004,,0.014881230967507495,279.468,0.5329999923706055,-2.439513944028532
279.77586199999996,,0.03093871429822821,279.933,0.5360000133514404,-2.433202012353567
280.241379,,0.04650935344797233,280.399,0.527999997138977,-2.4508262288605733
280.706897,,0.006705272303042069,280.861,0.531000018119812,-2.4444504308972825
281.172414,,0.0543147543703959,281.324,0.5419999957084656,-2.420605718483241
281.637931,,0.07436250202274462,281.791,0.5440000295639038,-2.4163247582997736
282.10344799999996,,0.03440402957728131,282.26,0.5109999775886536,-2.488250772752105
282.568966,,0.019997046220435064,282.721,0.5370000004768372,-2.431590184607532
283.034483,,0.0389663556282371,283.191,0.5419999957084656,-2.420635180763481
283.5,,0.026960047068996944,283.649,0.5249999761581421,-2.457565892576934
283.965517,,0.02218281436257073,284.119,0.5210000276565552,-2.466133247253861
284.431034,,0.034624046044371554,284.585,0.5339999794960022,-2.437627688501064
284.89655200000004,,0.03105182150283344,285.05,0.5249999761581421,-2.457021499376054
285.362069,,0.014129997279769352,285.509,0.5260000228881836,-2.4546044110369145
285.827586,,0.07200717134206217,285.98,0.5210000276565552,-2.465242404543293
286.293103,,0.08504893513513155,286.445,0.5669999718666077,-2.364759489601391
286.758621,,0.037542094057557596,286.91,0.5059999823570251,-2.4973894591204324
287.22413800000004,,0.02324146232819272,287.375,0.5400000214576721,-2.4230541058350443
287.689655,,0.04192932999017282,287.836,0.5249999761581421,-2.4554871969388024
288.155172,,0.01269716604132466,288.306,0.5210000276565552,-2.4639768263965456
288.62069,,0.024222282523959304,288.769,0.5180000066757202,-2.47031712018308
289.086207,,0.030276785586015847,289.231,0.5440000295639038,-2.413511231257474
289.55172400000004,,0.0036480609144083757,289.699,0.5419999957084656,-2.4177463375212747
290.01724099999996,,0.02960616093469869,290.161,0.5360000133514404,-2.430738005699343
290.482759,,0.04623234821473784,290.627,0.5419999957084656,-2.417630630472582
290.948276,,0.03798512585684444,291.094,0.5239999890327454,-2.456856829781164
291.413793,,0.006733663422856774,291.56,0.5370000004768372,-2.4285909483908283
291.87931,,0.03148379154292855,292.024,0.5429999828338623,-2.4156198656195844
292.344828,,0.04552438572377859,292.49,0.5149999856948853,-2.4767641030615355
292.81034500000004,,0.016758368870986865,292.955,0.5350000262260437,-2.4333707502208486
293.275862,,0.03154110652974205,293.414,0.5509999990463257,-2.3987239301950307
293.74137900000005,,0.049897776466884654,293.88,0.5490000247955322,-2.4033172331805495
294.206897,,0.015011606515021345,294.346,0.5249999761581421,-2.455858738403437
294.672414,,0.03984231174720498,294.814,0.503000020980835,-2.5040543017798136
295.13793100000004,,0.057777386182597576,295.276,0.5289999842643738,-2.447679304555584
295.603448,,0.023358321060066824,295.739,0.5139999985694885,-2.4806248509466537
296.068966,,0.021506694188466676,296.209,0.5370000004768372,-2.4307693947547104
296.534483,,0.03418286125975431,296.676,0.5419999957084656,-2.4201089029772205
297.0,,0.02239405256040839,297.141,0.5239999890327454,-2.4595292339746138
297.46551700000003,,0.02200739262907486,297.599,0.5400000214576721,-2.4248413159772064
297.931034,,0.03901012002060461,298.066,0.5509999990463257,-2.401006968480527
298.396552,,0.037641528966041414,298.531,0.5180000066757202,-2.472989199787558
298.862069,,0.008269760503621326,298.999,0.5210000276565552,-2.466494378379618
299.327586,,0.06855311096291059,299.464,0.5450000166893005,-2.4142010589925573
299.79310300000003,,0.08303440479845026,299.924,0.5270000100135803,-2.453363510721348
300.258621,,0.033959964295714976,300.39,0.5320000052452087,-2.442371169240871
300.724138,,0.030392187178183875,300.858,0.5410000085830688,-2.4226212276063945
301.189655,,0.0508689968836657,301.32,0.5249999761581421,-2.4572986749740395
301.65517200000005,,0.01887619616354995,301.784,0.5540000200271606,-2.3939030958578695
302.12069,,0.02373144727724028,302.254,0.5299999713897705,-2.445948572682343
302.586207,,0.03392048287297809,302.717,0.531000018119812,-2.44350768258834
303.05172400000004,,0.007584466401955554,303.179,0.5419999957084656,-2.419268645742101
303.517241,,0.027143087929790786,303.645,0.5370000004768372,-2.4298840903430623
303.982759,,0.04384468873419893,304.109,0.4950000047683716,-2.5211149135198494
304.448276,,0.033952003166718724,304.575,0.5540000200271606,-2.3923163355897294
304.913793,,0.001705891621433087,305.04,0.5669999718666077,-2.3637561346475153
305.37931000000003,,0.034798348472282185,305.506,0.5509999990463257,-2.3984029431119978
305.844828,,0.04486236717261288,305.972,0.5289999842643738,-2.4461553850211195
306.310345,,0.012511462435404472,306.437,0.5139999985694885,-2.478697830134036
306.775862,,0.03648746511722266,306.902,0.45100000500679016,-2.6158625473860155
307.241379,,0.05283568726754067,307.368,0.5339999794960022,-2.4349955566019537
307.70689699999997,,0.016015524949576296,307.836,0.5690000057220459,-2.3587532392511585
308.172414,,0.03821961834927032,308.298,0.5320000052452087,-2.4394208380406965
308.637931,,0.053282402036921646,308.761,0.5339999794960022,-2.4351672393306436
309.103448,,0.016169959043269958,309.231,0.5260000228881836,-2.452743701849299
309.568966,,0.029218284096177275,309.692,0.5389999747276306,-2.424608024211434
310.034483,,0.04021880939162014,310.154,0.5260000228881836,-2.4531505757172822
310.5,,0.0257174902769808,310.619,0.5320000052452087,-2.4403259595076365
310.96551700000003,,0.022228285844665026,311.084,0.5410000085830688,-2.420984731190426
311.431034,,0.03541337248213249,311.55,0.5109999775886536,-2.486622304012577
311.896552,,0.029471279600801228,312.016,0.5299999713897705,-2.445509570715989
312.362069,,0.020424877686064248,312.482,0.5440000295639038,-2.41528451609245
312.827586,,0.08222292889405242,312.947,0.5220000147819519,-2.4634766725175465
313.29310300000003,,0.09527879805847882,313.413,0.5210000276565552,-2.4658954010462737
313.758621,,0.04314510667310357,313.885,0.5379999876022339,-2.429069608491237
314.224138,,0.024765561590743494,314.343,0.5170000195503235,-2.4749966699908694
314.689655,,0.049678984472844585,314.805,0.5320000052452087,-2.44245157318943
315.155172,,0.0232225830201721,315.276,0.5339999794960022,-2.438183665746563
315.62068999999997,,0.014779303620527387,315.736,0.5230000019073486,-2.4621898558326163
316.086207,,0.02398123699049159,316.206,0.5379999876022339,-2.429501757292114
316.551724,,0.00021068926011070285,316.664,0.5339999794960022,-2.4381583755126353
317.017241,,0.033604570394679505,317.134,0.6050000190734863,-2.283366822501641
317.482759,,0.05251236665031027,317.599,0.5659999847412109,-2.3681788738519995
317.94827599999996,,0.04604990381689275,318.065,0.5360000133514404,-2.4333404869527206
318.413793,,0.0133053034432283,318.524,0.5270000100135803,-2.452716301782416
318.87931000000003,,0.029572108298172094,318.991,0.5429999828338623,-2.417599578437289
319.344828,,0.04749889307496079,319.457,0.531000018119812,-2.4434664143783236
319.810345,,0.01752759408444862,319.922,0.5450000166893005,-2.4126784989982815
320.275862,,0.0363177072017218,320.387,0.5080000162124634,-2.4930010773584494
320.741379,,0.05756400312251263,320.85,0.5529999732971191,-2.3946831172004597
321.20689699999997,,0.016425369629106696,321.32,0.5139999985694885,-2.4793885348918976
321.672414,,0.05083776816416354,321.78,0.5540000200271606,-2.392005627147278
322.137931,,0.0757420086485458,322.251,0.5419999957084656,-2.417944300012586
322.603448,,0.03531491464963072,322.713,0.5210000276565552,-2.4635288295554547
323.068966,,0.02293754755355257,323.176,0.5059999823570251,-2.4960861936837526
323.53448299999997,,0.044410002603477425,323.641,0.5260000228881836,-2.4524395064062556
324.0,,0.03140487788782037,324.108,0.5540000200271606,-2.391413741633713
324.465517,,0.023905663915575297,324.574,0.5389999747276306,-2.4241194519842955
324.931034,,0.034574084467104436,325.039,0.5210000276565552,-2.4634098012474457
325.396552,,0.03072925096171596,325.505,0.5379999876022339,-2.4264947318927623
325.86206899999996,,0.014682356574005037,325.97,0.5239999890327454,-2.457160862768586
326.327586,,0.0739800919607633,326.435,0.531000018119812,-2.4421133007490874
326.793103,,0.0892175661017398,326.895,0.5299999713897705,-2.4445267047149843
327.258621,,0.0431717222763649,327.36,0.5389999747276306,-2.4251774655010707
327.724138,,0.018035951604199546,327.828,0.5529999732971191,-2.3949502568841674
328.189655,,0.03865328540536058,328.291,0.43799999356269836,-2.645776922434106
328.655172,,0.010907062901256901,328.754,0.5649999976158142,-2.3693715267450033
329.12068999999997,,0.026767914621761358,329.224,0.5249999761581421,-2.456790886241712
329.586207,,0.035367601876357006,329.687,0.5389999747276306,-2.426543692725695
330.051724,,0.01053258910962725,330.15,0.515999972820282,-2.4768797790206944
330.517241,,0.02395786333044747,330.616,0.5239999890327454,-2.459644312589121
330.982759,,0.04496367617314025,331.081,0.5210000276565552,-2.4663346944450937
331.44827599999996,,0.04204030047810181,331.546,0.5410000085830688,-2.4228717949823904
331.913793,,0.013751075536021878,332.013,0.515999972820282,-2.4774000287872027
332.37931,,0.0260865950333943,332.479,0.5519999861717224,-2.3989804203066485
332.844828,,0.04547737756702503,332.944,0.5540000200271606,-2.3945834793447043
333.310345,,0.02218802422275216,333.409,0.5429999828338623,-2.4184585630575888
333.77586199999996,,0.024026389344365164,333.872,0.5630000233650208,-2.3747477508305965
334.241379,,0.044323983622628,334.335,0.5230000019073486,-2.4617131430350345
334.706897,,0.012981610025205884,334.803,0.5339999794960022,-2.4375313458852945
335.17241399999995,,0.039624618070537417,335.265,0.550000011920929,-2.4024271645446693
335.637931,,0.05720259140453949,335.735,0.5329999923706055,-2.4391969468250454
336.103448,,0.022582456028865376,336.198,0.5419999957084656,-2.4193090002031292
336.56896600000005,,0.023817343470159385,336.664,0.5329999923706055,-2.4386331049059473
337.034483,,0.03873328304404674,337.126,0.5419999957084656,-2.418746954454026
337.5,,0.028001570076307384,337.592,0.5519999861717224,-2.396696173641547
337.965517,,0.02630706080460911,338.057,0.5440000295639038,-2.413883004607553
338.431034,,0.0398885454974975,338.523,0.5429999828338623,-2.415849397255977
338.89655200000004,,0.03421604941403666,338.987,0.5210000276565552,-2.4636045122951344
339.36206899999996,,0.015182516789036567,339.453,0.527999997138977,-2.4482225311616883
339.827586,,0.07671538244888673,339.917,0.5680000185966492,-2.360992123914404
340.293103,,0.09015864736054935,340.382,0.5299999713897705,-2.443745322272772
340.758621,,0.038886472529097445,340.85,0.5339999794960022,-2.4350456122329356
341.224138,,0.0282832054197136,341.313,0.5289999842643738,-2.4460043356521846
341.68965499999996,,0.05256413098145137,341.78,0.5230000019073486,-2.4591902995684487
342.155172,,0.024433861481006007,342.243,0.5249999761581421,-2.454992296449838
342.62069,,0.017110922419744386,342.706,0.5440000295639038,-2.413796659930331
343.086207,,0.030403385004002494,343.176,0.5339999794960022,-2.435814572421437
343.551724,,0.00825722553864308,343.634,0.5299999713897705,-2.444785531171829
344.01724099999996,,0.02612098859002598,344.106,0.5540000200271606,-2.3927707584135276
344.48275900000004,,0.04744498655328332,344.564,0.5289999842643738,-2.447517331287152
344.948276,,0.04282041248696421,345.029,0.5339999794960022,-2.4369030243997742
345.413793,,0.01118243554401922,345.495,0.5410000085830688,-2.4219211441229964
345.87931,,0.030222141608404484,345.961,0.546999990940094,-2.409098674242771
346.344828,,0.04654904078634561,346.427,0.6449999809265137,-2.1958109120684477
346.81034500000004,,0.01711373297689703,346.892,0.5419999957084656,-2.4203932178352012
347.275862,,0.033146818972788115,347.358,0.5260000228881836,-2.4553913416855893
347.741379,,0.05174106248463489,347.82,0.5419999957084656,-2.420629153968133
348.206897,,0.014717957783882688,348.291,0.515999972820282,-2.4773239517449026
348.672414,,0.04221480371716448,348.754,0.5299999713897705,-2.446825531548447
349.13793100000004,,0.05923618527559228,349.216,0.5419999957084656,-2.420637028696017
349.60344799999996,,0.02042998481870292,349.684,0.5540000200271606,-2.394401887849299
350.068966,,0.02963230904030792,350.147,0.5360000133514404,-2.4334824186392305
350.534483,,0.044680735749779335,350.613,0.5540000200271606,-2.394092284941968
351.0,,0.030989915952849136,351.08,0.5669999718666077,-2.3655614167224623
351.465517,,0.026228050480528904,351.546,0.527999997138977,-2.4502927858900017
351.93103399999995,,0.039288613123001206,352.009,0.5170000195503235,-2.4740037397746835
352.396552,,0.03550482905455914,352.475,0.5360000133514404,-2.432346057802155
352.862069,,0.012341532292535111,352.94,0.5410000085830688,-2.4211881046345205
353.32758600000005,,0.07490971646474065,353.406,0.515999972820282,-2.47539671134788
353.793103,,0.09089424127078531,353.869,0.5630000233650208,-2.3727575327682247
354.258621,,0.040438336863476275,354.331,0.5339999794960022,-2.435717940490045
354.72413800000004,,0.029083267548454896,354.795,0.5220000147819519,-2.4616705147007543
355.189655,,0.057137771426210626,355.265,0.5540000200271606,-2.3917982938320415
355.655172,,0.03192829122412723,355.728,0.5170000195503235,-2.472293069072543
356.12069,,0.00793268074495108,356.19,0.5450000166893005,-2.411219549334651
356.586207,,0.020130097110817032,356.656,0.5929999947547913,-2.3066177644542534
357.05172400000004,,0.0024707594344046155,357.119,0.5260000228881836,-2.452604768401951
357.517241,,0.03629594680430232,357.584,0.5419999957084656,-2.41780881247276
357.982759,,0.05672168762465493,358.051,0.5260000228881836,-2.4527731306286924
358.448276,,0.05206353448401394,358.516,0.5149999856948853,-2.4768849311749377
358.913793,,0.021012361956200484,358.983,0.5379999876022339,-2.4269586026795325
359.37931000000003,,0.021235907230912565,359.449,0.5419999957084656,-2.4184558973866244
359.844828,,0.04113593245252347,359.913,0.5180000066757202,-2.470977609835213
360.310345,,0.01648526355597725,360.379,0.550000011920929,-2.401509831013968
360.775862,,0.029827048422539387,360.842,0.5509999990463257,-2.39958623466271
361.241379,,0.043826957098802806,361.304,0.5630000233650208,-2.373694352658148
361.706897,,0.002154678051045095,361.773,0.5210000276565552,-2.4654387722629196
362.172414,,0.07171609143313598,362.235,0.5299999713897705,-2.4460549362767114
362.63793100000004,,0.09806048660837692,362.703,0.5199999809265137,-2.4680415746416973
363.103448,,0.05961598385521609,363.165,0.5260000228881836,-2.45513981381869
363.568966,,0.003227264490113953,363.63,0.5460000038146973,-2.411701381896435
364.034483,,0.018541585061926463,364.094,0.5540000200271606,-2.3943657248530967
364.5,,0.009333116820574949,364.561,0.5299999713897705,-2.446702944267404
364.96551700000003,,0.00844206196942056,365.028,0.5360000133514404,-2.433635647132864
365.431034,,0.025869705476095663,365.494,0.5379999876022339,-2.429238448084251
365.896552,,0.025859084820385278,365.954,0.5410000085830688,-2.42261904673915
366.362069,,0.019438382680673813,366.42,0.5339999794960022,-2.4377456069813577
366.827586,,0.07952751954214558,366.886,0.5299999713897705,-2.446299942209985
367.29310300000003,,0.0925628032294075,367.351,0.5440000295639038,-2.4156075074561474
367.758621,,0.040709047880570656,367.814,0.5440000295639038,-2.4153911469733886
368.224138,,0.026217920827547852,368.283,0.5130000114440918,-2.482695168080807
368.689655,,0.04845270092003233,368.751,0.5419999957084656,-2.419270649416879
369.155172,,0.018408756161488148,369.213,0.5329999923706055,-2.4386327129253216
369.62068999999997,,0.021283111022461457,369.684,0.5320000052452087,-2.4405711866113533
370.086207,,0.028056345033645437,370.139,0.5410000085830688,-2.4207365457073045
370.55172400000004,,0.0015746767510365488,370.604,0.5210000276565552,-2.464103337055816
371.017241,,0.03951316873856294,371.069,0.5270000100135803,-2.450852970905958
371.482759,,0.05906434756319791,371.535,0.5529999732971191,-2.3940625834211984
371.948276,,0.050154604107603376,372.002,0.5230000019073486,-2.459313346553155
372.413793,,0.015520019892772177,372.467,0.5419999957084656,-2.417850935849065
372.87931000000003,,0.02611381527264443,372.932,0.5400000214576721,-2.422182580080709
373.344828,,0.04127008969531304,373.398,0.5509999990463257,-2.398234572094847
373.810345,,0.011543702450072944,373.865,0.5410000085830688,-2.420079952080654
374.275862,,0.037306556112546865,374.328,0.5120000243186951,-2.4833601997384287
374.741379,,0.0541338388093446,374.791,0.5400000214576721,-2.4224954959089473
375.20689699999997,,0.016818380420501742,375.261,0.546999990940094,-2.407415361313405
375.672414,,0.03890297964432301,375.721,0.5659999847412109,-2.366217571964244
376.137931,,0.055071490545704885,376.184,0.5669999718666077,-2.3642544729814876
376.603448,,0.01707131911312371,376.649,0.5289999842643738,-2.4472710670356204
377.068966,,0.031721668100329316,377.12,0.5460000038146973,-2.410468230804614
377.53448299999997,,0.04733572074854081,377.586,0.4959999918937683,-2.519634870859884
378.0,,0.03630274229268548,378.05,0.5210000276565552,-2.46539630852649
378.465517,,0.033971081796562476,378.516,0.5540000200271606,-2.393714392488549
378.931034,,0.04723436850181122,378.98,0.5299999713897705,-2.4461932648021527
379.396552,,0.041901265689206414,379.445,0.5630000233650208,-2.374460186439393
379.862069,,0.007653502389273197,379.91,0.5199999809265137,-2.468270803631388
380.327586,,0.07166022570305627,380.375,0.5460000038146973,-2.4117170838688993
380.79310300000003,,0.08942604304095839,380.836,0.515999972820282,-2.4771279784654223
381.258621,,0.041124123663342636,381.305,0.5339999794960022,-2.437922469958223
381.724138,,0.026510395026341158,381.765,0.515999972820282,-2.4771071237719213
382.189655,,0.052630432604830316,382.236,0.5540000200271606,-2.39424667094892
382.655172,,0.023944220463235636,382.698,0.5189999938011169,-2.47038896953434
383.12068999999997,,0.02111781075690242,383.161,0.5540000200271606,-2.3939903391050503
383.586207,,0.03747438966466109,383.627,0.5230000019073486,-2.4613518292711687
384.051724,,0.014947348034922932,384.094,0.5249999761581421,-2.456793153544954
384.517241,,0.02209919290116648,384.56,0.515999972820282,-2.4761818650945333
384.982759,,0.04457914978731033,385.024,0.5249999761581421,-2.456344218011743
385.44827599999996,,0.03743599486567883,385.49,0.5540000200271606,-2.3929293590516267
385.913793,,0.0010014156960904365,385.955,0.5120000243186951,-2.484201431414599
386.37931,,0.04419979949941437,386.42,0.5299999713897705,-2.444765391811405
386.84482799999995,,0.06088940592896532,386.88,0.5210000276565552,-2.4641705730015517
387.310345,,0.028180365524862822,387.346,0.5370000004768372,-2.429133686717905
387.775862,,0.02724463891765299,387.813,0.5460000038146973,-2.4093762524889915
388.241379,,0.05027773295764214,388.275,0.527999997138977,-2.4484757339135266
388.70689699999997,,0.014846477225205717,388.743,0.5339999794960022,-2.435325073868184
389.172414,,0.04355679336596004,389.206,0.5299999713897705,-2.4440009810931724
389.637931,,0.06324121086447336,389.672,0.5049999952316284,-2.4984702869421773
390.103448,,0.026224705126716538,390.135,0.5180000066757202,-2.4701934546574225
390.56896600000005,,0.02330197282173525,390.601,0.5440000295639038,-2.413634695127137
391.03448299999997,,0.0383255846225659,391.066,0.5410000085830688,-2.4202934819526547
391.5,,0.025008945168378618,391.531,0.5239999890327454,-2.457486027629332
391.965517,,0.021606005105642347,391.998,0.5529999732971191,-2.394488618981092
392.431034,,0.03677656785352615,392.464,0.5669999718666077,-2.3641920451300495
392.896552,,0.034373840620570265,392.928,0.5640000104904175,-2.370946156219699
393.36206899999996,,0.013869527391851879,393.394,0.5450000166893005,-2.4125659219639712
393.827586,,0.07774548934721681,393.854,0.5419999957084656,-2.4193284686929193
394.293103,,0.09420435041785599,394.324,0.550000011920929,-2.402120310510726
394.75862099999995,,0.04301397902166587,394.784,0.531000018119812,-2.443723613496006
395.224138,,0.027146330543581284,395.254,0.5189999938011169,-2.4700587977846835
395.68965499999996,,0.05450313957841906,395.717,0.5410000085830688,-2.4222967701926357
396.155172,,0.027251061985024454,396.179,0.5180000066757202,-2.472545652274581
396.62069,,0.015091873171207033,396.645,0.5379999876022339,-2.429080112365501
397.086207,,0.028931636298412534,397.109,0.5210000276565552,-2.4661886223001273
397.551724,,0.0059647318508587,397.574,0.531000018119812,-2.4444357161281127
398.017241,,0.03029633144895677,398.039,0.5249999761581421,-2.4575022427653237
398.48275900000004,,0.05365069322827523,398.504,0.5260000228881836,-2.455279108683071
398.94827599999996,,0.0505535016093398,398.969,0.5210000276565552,-2.466090460375484
399.413793,,0.01964269124230224,399.435,0.5379999876022339,-2.428936354681881
399.87931,,0.022185155135201907,399.902,0.5339999794960022,-2.4375015186979856
400.344828,,0.04045123171136646,400.368,0.5490000247955322,-2.404643924502491
400.810345,,0.014100172550548408,400.836,0.5450000166893005,-2.41315739011434
401.27586199999996,,0.033392530408540864,401.298,0.5329999923706055,-2.4390828651786047
401.741379,,0.050976179565704605,401.761,0.5339999794960022,-2.43667580334521
402.206897,,0.014551459449978748,402.224,0.5770000219345093,-2.3427616431776417
402.672414,,0.041810377930252524,402.695,0.5630000233650208,-2.3730326429509354
403.137931,,0.059635470803269086,403.157,0.5199999809265137,-2.466494309074638
403.60344799999996,,0.02287310652630286,403.623,0.5429999828338623,-2.416183131774613
404.068966,,0.024994656203538964,404.088,0.5339999794960022,-2.4356133430631273
404.534483,,0.03868218117377545,404.553,0.5239999890327454,-2.4572525112365
405.0,,0.0249117469705832,405.018,0.5239999890327454,-2.4571407946507593
405.465517,,0.021177437736631024,405.483,0.531000018119812,-2.4418177094910436
405.931034,,0.03538592157267746,405.95,0.5210000276565552,-2.4635732328453663
406.39655200000004,,0.03143485245868427,406.415,0.5249999761581421,-2.454870555610353
406.862069,,0.018324935620398212,406.881,0.5,-2.5093915092876906
407.327586,,0.08302249886604149,407.346,0.5210000276565552,-2.4637363558622623
407.793103,,0.09934074049037611,407.81,0.5410000085830688,-2.4202980096983704
408.258621,,0.04738672596242571,408.272,0.5379999876022339,-2.4270013385897156
408.72413800000004,,0.023369512776531397,408.736,0.546999990940094,-2.4075878799118975
409.18965499999996,,0.05036071347508432,409.205,0.550000011920929,-2.4012669196654772
409.655172,,0.021626676053184794,409.664,0.5540000200271606,-2.392780930826291
410.12069,,0.022382824277579438,410.134,0.4880000054836273,-2.536807975712763
410.586207,,0.03674050526098864,410.6,0.5519999861717224,-2.3976120513740136
411.05172400000004,,0.013034061525564754,411.065,0.5419999957084656,-2.4196291733548594
411.51724099999996,,0.023762651025468255,411.524,0.527999997138977,-2.450346242155605
411.982759,,0.04631047681140985,411.995,0.5270000100135803,-2.4527202004009787
412.448276,,0.04170919740072156,412.454,0.5460000038146973,-2.411494441827329
412.913793,,0.009812324717428786,412.92,0.546999990940094,-2.4094516544680107
413.37931,,0.032384815811239975,413.386,0.5170000195503235,-2.4749101248921495
413.844828,,0.05072067011570743,413.854,0.5299999713897705,-2.44664785996002
414.31034500000004,,0.0233845849929769,414.316,0.5139999985694885,-2.481525775181445
414.775862,,0.02707345800979071,414.784,0.5360000133514404,-2.433573864846106
415.241379,,0.048589307648503874,415.246,0.5260000228881836,-2.455297835794175
415.706897,,0.01473163937371231,415.71,0.531000018119812,-2.4443029312846174
416.172414,,0.040896568880395445,416.179,0.5249999761581421,-2.4572372704850545
416.63793100000004,,0.0574608445984519,416.645,0.5440000295639038,-2.4156731548386428
417.103448,,0.01693250857445479,417.109,0.5249999761581421,-2.4568708667170336
417.568966,,0.0357716424702748,417.575,0.550000011920929,-2.4021866646578824
418.034483,,0.051899706994533897,418.039,0.5260000228881836,-2.454241754891157
418.5,,0.03648193703101382,418.505,0.5460000038146973,-2.410429011199834
418.96551700000003,,0.02859417787908227,418.965,0.5289999842643738,-2.447226412450264
419.43103399999995,,0.03912216236363498,419.43,0.5519999861717224,-2.3968852075940155
419.896552,,0.03369785352232133,419.895,0.503000020980835,-2.503421712988261
420.362069,,0.015843727935833423,420.361,0.5519999861717224,-2.3964730690884144
420.827586,,0.0802334669760463,420.829,0.5299999713897705,-2.444236407619182
421.293103,,0.09668746474719002,421.291,0.5249999761581421,-2.454995852082859
421.758621,,0.044149170415205864,421.754,0.5199999809265137,-2.4657934082167805
422.22413800000004,,0.028481816960770977,422.224,0.5419999957084656,-2.417808435433579
422.689655,,0.056283172925676216,422.687,0.550000011920929,-2.4003664524739063
423.15517200000005,,0.02414161401930981,423.15,0.5210000276565552,-2.4635766994445625
423.62069,,0.026402615088178923,423.615,0.5419999957084656,-2.4178965146085365
424.086207,,0.0447663695683147,424.08,0.49300000071525574,-2.524762168285189
424.55172400000004,,0.018748282241483952,424.546,0.515999972820282,-2.474803221271291
425.017241,,0.023993955005690855,425.009,0.5540000200271606,-2.3921971463599254
425.482759,,0.05054245108706435,425.475,0.5180000066757202,-2.4708371450523114
425.948276,,0.04571489200751277,425.94,0.5210000276565552,-2.4645297169601452
426.413793,,0.011427049302016785,426.406,0.5540000200271606,-2.392875640031966
426.87931000000003,,0.03224839062320076,426.869,0.5789999961853027,-2.3386542474566974
427.344828,,0.04981387603634893,427.339,0.546999990940094,-2.4086106986937836
427.810345,,0.020242390555119817,427.802,0.5419999957084656,-2.419731897704968
428.275862,,0.0320699960492515,428.264,0.5249999761581421,-2.456979345771934
428.741379,,0.053486043763160455,428.732,0.5210000276565552,-2.4658809642994552
429.20689699999997,,0.01706621065165809,429.194,0.5350000262260437,-2.435538240729648
429.672414,,0.04292597993897186,429.66,0.5379999876022339,-2.4291265871264742
430.137931,,0.0640746391445891,430.13,0.5720000267028809,-2.3551376446158194
430.603448,,0.026514961118999023,430.596,0.5410000085830688,-2.422718678797102
431.068966,,0.025848189476963303,431.057,0.5419999957084656,-2.4205398213130236
431.534483,,0.043895723591216525,431.523,0.5879999995231628,-2.3202783866281096
432.0,,0.031512209258497896,431.987,0.5270000100135803,-2.4530899502273935
432.46551700000003,,0.026643384592477833,432.453,0.5440000295639038,-2.4159283213791625
432.931034,,0.03910872554977065,432.917,0.5289999842643738,-2.4484498813925524
433.396552,,0.033716898513878976,433.382,0.5419999957084656,-2.4199404525273596
433.862069,,0.017184559505922185,433.85,0.5440000295639038,-2.415373088914632
434.327586,,0.0822404140960754,434.312,0.5210000276565552,-2.465255708819711
434.79310300000003,,0.09730989195804489,434.78,0.5180000066757202,-2.471557002258168
435.258621,,0.04289105450399489,435.243,0.5379999876022339,-2.4277484109209486
435.724138,,0.029602613096313967,435.706,0.5540000200271606,-2.392659601868789
436.189655,,0.05579534242187287,436.169,0.5230000019073486,-2.45997936208388
436.655172,,0.023735066720181292,436.634,0.5669999718666077,-2.3639190910885985
437.12068999999997,,0.024350257696888797,437.105,0.515999972820282,-2.474855016960617
437.586207,,0.04136152472022179,437.571,0.5529999732971191,-2.3941000851198213
438.051724,,0.017751450593724766,438.035,0.5669999718666077,-2.3634880190072503
438.517241,,0.020960233516207235,438.494,0.5540000200271606,-2.391735639907522
438.982759,,0.04561612501364874,438.965,0.546999990940094,-2.4069503818687132
439.448276,,0.04157984704399136,439.43,0.5220000147819519,-2.4614215750856787
439.913793,,0.008749273536855725,439.895,0.5379999876022339,-2.426609711502996
440.37931000000003,,0.03348088742007909,440.354,0.5260000228881836,-2.452839944308913
440.844828,,0.048135722890432164,440.825,0.5450000166893005,-2.4115692453473487
441.310345,,0.013633137317135294,441.287,0.5019999742507935,-2.50540839970276
441.775862,,0.04265108163865875,441.754,0.5460000038146973,-2.409733912848628
442.241379,,0.06210589093110549,442.216,0.5529999732971191,-2.3946917353442454
442.70689699999997,,0.01615375240867173,442.684,0.5370000004768372,-2.4297731873486215
443.172414,,0.05541701292661176,443.146,0.5410000085830688,-2.4212899355085895
443.637931,,0.08149559820845928,443.612,0.5130000114440918,-2.4825251760595655
444.103448,,0.039522651349895244,444.08,0.5540000200271606,-2.393428264763253
444.568966,,0.020903148353439115,444.539,0.5540000200271606,-2.393642555306002
445.03448299999997,,0.04456946402333118,445.006,0.527999997138977,-2.45048142127789
445.5,,0.03512919276524195,445.471,0.5289999842643738,-2.4484713629528456
445.965517,,0.03266887230975092,445.935,0.5370000004768372,-2.4311804479477486
446.431034,,0.04663726517303559,446.401,0.5659999847412109,-2.3681026242008976
446.896552,,0.040845033657610975,446.869,0.5820000171661377,-2.3333071424818743
447.36206899999996,,0.010636690576500381,447.332,0.5239999890327454,-2.459689973388781
447.827586,,0.07421869920290962,447.795,0.5360000133514404,-2.433526568876722
448.29310300000003,,0.08701946563175747,448.264,0.5270000100135803,-2.4530758023742583
448.758621,,0.03294008838469786,448.728,0.5669999718666077,-2.365833613606028
449.224138,,0.0361000336998911,449.191,0.5540000200271606,-2.3940240433192685
449.689655,,0.059349065297542386,449.657,0.5419999957084656,-2.4200046270074393
450.155172,,0.02823390405676296,450.119,0.5339999794960022,-2.4372453515787353
450.62068999999997,,0.015941027440100147,450.585,0.5509999990463257,-2.400000763676804
451.086207,,0.030011520730034023,451.05,0.5419999957084656,-2.4193883802856564
451.551724,,0.006685034013588879,451.516,0.5419999957084656,-2.4191624040930377
452.017241,,0.030194130973311008,451.98,0.527999997138977,-2.4494393134934747
452.482759,,0.05429357891180934,452.445,0.5329999923706055,-2.4383311407152397
452.94827599999996,,0.05096975900352298,452.91,0.5299999713897705,-2.4446682324960536
453.413793,,0.01764716346290668,453.375,0.5419999957084656,-2.418347421206725
453.87931,,0.027054866631462497,453.843,0.5260000228881836,-2.453055991581613
454.344828,,0.043739352273998736,454.306,0.5210000276565552,-2.463831620190853
454.810345,,0.008744222356836836,454.776,0.5299999713897705,-2.4441421814405224
455.27586199999996,,0.04982799255875949,455.238,0.6200000047683716,-2.248018175895202
455.741379,,0.0725003525949428,455.702,0.5419999957084656,-2.417942613865034
456.206897,,0.031536129521622935,456.165,0.5090000033378601,-2.489865040441582
456.672414,,0.03457458385744751,456.63,0.6079999804496765,-2.274242903168413
457.137931,,0.06047480095653792,457.098,0.546999990940094,-2.40723754947916
457.603448,,0.02777210589929079,457.563,0.5429999828338623,-2.4160796087161525
458.06896600000005,,0.017549469788861155,458.028,0.5460000038146973,-2.409698683821506
458.53448299999997,,0.02791809008000558,458.494,0.5239999890327454,-2.4578072453042488
459.0,,0.010798359960525554,458.958,0.5419999957084656,-2.4187878704930275
459.465517,,0.0052730794241088235,459.423,0.5270000100135803,-2.451675913843054
459.931034,,0.019153726111430673,459.888,0.5379999876022339,-2.4279247220911255
460.39655200000004,,0.015335867268385673,460.354,0.531000018119812,-2.4433880271568853
460.86206899999996,,0.03384190654767634,460.817,0.5450000166893005,-2.4130918795249343
461.327586,,0.09652014221446846,461.28,0.5529999732971191,-2.395852928398952
461.793103,,0.10850539305731789,461.75,0.5210000276565552,-2.4657390974572797
462.258621,,0.04990720983688382,462.213,0.5180000066757202,-2.4724198406414053
462.724138,,0.02762896115644024,462.684,0.5540000200271606,-2.394103989308513
463.18965499999996,,0.05620795205666474,463.139,0.5389999747276306,-2.426865583046568
463.655172,,0.019276132033646996,463.605,0.550000011920929,-2.402945478429493
464.12069,,0.03898267412392047,464.069,0.5230000019073486,-2.4617765118370007
464.58620699999994,,0.061716293853684684,464.535,0.5180000066757202,-2.472640294719014
465.051724,,0.03261288604431455,465.002,0.5379999876022339,-2.429002212443424
465.517241,,0.018070269888223942,465.467,0.5210000276565552,-2.4659400106191414
465.98275900000004,,0.051468035119891745,465.932,0.5210000276565552,-2.4658101525625744
466.448276,,0.04974951346453,466.397,0.5440000295639038,-2.4155445110874303
466.913793,,0.016865542396453246,466.865,0.5540000200271606,-2.393578227385376
467.37931,,0.024377219139196347,467.327,0.5329999923706055,-2.43913210588846
467.844828,,0.038602519685643065,467.795,0.5540000200271606,-2.39317089760933
468.31034500000004,,0.007513962987668916,468.258,0.5429999828338623,-2.4169212078105917
468.77586199999996,,0.04238683634756396,468.721,0.5189999938011169,-2.4689956040367727
469.241379,,0.058888391744854524,469.191,0.5429999828338623,-2.416503931912839
469.706897,,0.019130423370884476,469.649,0.460999995470047,-2.5949655137849734
470.172414,,0.0402292935898009,470.119,0.5460000038146973,-2.4096160013062247
470.63793100000004,,0.05897901580539577,470.585,0.5260000228881836,-2.453051701267607
471.10344799999996,,0.021690002062846412,471.051,0.621999979019165,-2.2437928109003216
471.568966,,0.02635338728453032,471.509,0.515999972820282,-2.47465165329722
472.034483,,0.03993160397368994,471.976,0.6190000176429749,-2.250206063212873
472.5,,0.02859407720325446,472.441,0.550000011920929,-2.4005225523631033
472.965517,,0.03161174915090451,472.906,0.5210000276565552,-2.463729063154607
473.43103399999995,,0.05264809186477412,473.371,0.5210000276565552,-2.4637926690015193
473.89655200000004,,0.04678533826853532,473.839,0.5210000276565552,-2.4638929881821183
474.362069,,0.01702570548331772,474.301,0.531000018119812,-2.4422404596741427
474.827586,,0.09822910018488891,474.769,0.5289999842643738,-2.4467610683114756
475.293103,,0.11863518334364843,475.231,0.5329999923706055,-2.438233849440344
475.758621,,0.055213728680629556,475.699,0.515999972820282,-2.475476950335981
476.22413800000004,,0.030527588260229187,476.161,0.546999990940094,-2.40815704542985
476.689655,,0.06385106127094532,476.627,0.5429999828338623,-2.4170945984699848
477.155172,,0.032848991699375156,477.091,0.5419999957084656,-2.419493455356711
477.62069,,0.014409189980162681,477.557,0.5450000166893005,-2.4131681512680014
478.086207,,0.02856163105192527,478.024,0.5210000276565552,-2.465650589628662
478.55172400000004,,0.0024106036271551536,478.49,0.5249999761581421,-2.4571097930277777
479.01724099999996,,0.03649838191632327,478.955,0.531000018119812,-2.4441849557572457
479.482759,,0.059514372636937866,479.42,0.5139999985694885,-2.4813379121480086
479.948276,,0.053291317317537834,479.88,0.5419999957084656,-2.420416522361668
480.413793,,0.018303784600937522,480.345,0.5329999923706055,-2.4400667375626504
480.87931000000003,,0.02623103257210155,480.813,0.5270000100135803,-2.453140887204401
481.344828,,0.044453831763199475,481.276,0.5199999809265137,-2.4683539043218117
481.810345,,0.016245480421854672,481.739,0.5230000019073486,-2.461741652510142
482.275862,,0.03231087259308494,482.209,0.5419999957084656,-2.420234161663939
482.74137900000005,,0.04855763231978448,482.675,0.5529999732971191,-2.3961212702623693
483.206897,,0.009372381312648571,483.141,0.515999972820282,-2.4765531643980303
483.672414,,0.04887982596019581,483.599,0.515999972820282,-2.476351254010978
484.13793100000004,,0.06638079085381614,484.065,0.5299999713897705,-2.4456310440954323
484.603448,,0.027517210136656534,484.531,0.5400000214576721,-2.4236140897196705
485.068966,,0.022954850130603523,484.995,0.5370000004768372,-2.4299150078165224
485.534483,,0.0389032533927,485.461,0.5299999713897705,-2.4449331687915183
486.0,,0.026739997306452525,485.928,0.5540000200271606,-2.392422807107942
486.46551700000003,,0.0234858774681075,486.394,0.5189999938011169,-2.468469611130315
486.931034,,0.036529579097913004,486.858,0.5540000200271606,-2.3920343393916106
487.396552,,0.030229297645760926,487.32,0.5289999842643738,-2.4463473618198317
487.862069,,0.021506526582776835,487.788,0.550000011920929,-2.400476524974136
488.327586,,0.08657044431985535,488.25,0.5210000276565552,-2.4635765803234038
488.79310300000003,,0.10191096243054854,488.721,0.527999997138977,-2.448287201165002
489.258621,,0.048816045944497524,489.183,0.531000018119812,-2.441755943628962
489.724138,,0.022533919511101484,489.649,0.5199999809265137,-2.465769706067242
490.189655,,0.04955914753685813,490.112,0.5170000195503235,-2.4723971414702035
490.655172,,0.020168147675033398,490.577,0.5210000276565552,-2.463814806378804
491.12069,,0.025395535524805366,491.043,0.5299999713897705,-2.44437591692733
491.586207,,0.04138016629207487,491.509,0.531000018119812,-2.4423970266515456
492.05172400000004,,0.017453515848208895,491.969,0.5299999713897705,-2.4448003702818313
492.517241,,0.022589741754299085,492.435,0.527999997138977,-2.4494000613738636
492.982759,,0.0500837124282018,492.906,0.5339999794960022,-2.4365809490699912
493.448276,,0.04893470997398195,493.364,0.5429999828338623,-2.4172278691214446
493.913793,,0.01691998168287143,493.832,0.5419999957084656,-2.4196548366390993
494.37931000000003,,0.027565008524738078,494.301,0.5540000200271606,-2.393744712959258
494.844828,,0.046864879093763814,494.762,0.5249999761581421,-2.4571374369789405
495.310345,,0.017613491701440043,495.224,0.5630000233650208,-2.374531957821761
495.775862,,0.03541537756402571,495.695,0.5649999976158142,-2.3703227299287595
496.241379,,0.05673795448824332,496.157,0.5490000247955322,-2.4052885645955127
496.70689699999997,,0.018958139201479634,496.623,0.5249999761581421,-2.457640811923881
497.172414,,0.04217245393151142,497.088,0.5540000200271606,-2.394480056569736
497.637931,,0.06287923957437837,497.554,0.5249999761581421,-2.457635940651278
498.103448,,0.023908319354477087,498.014,0.5220000147819519,-2.464102837106717
498.568966,,0.028893660532662804,498.479,0.5429999828338623,-2.4182406730838055
499.03448299999997,,0.04556725466860617,498.947,0.5389999747276306,-2.4268057124160665
499.5,,0.031799325938737376,499.413,0.5230000019073486,-2.461480071724747
499.96551700000003,,0.028545048943811366,499.88,0.5379999876022339,-2.4285879944280064
500.431034,,0.04621403393590149,500.339,0.5249999761581421,-2.4566761539456694
500.89655200000004,,0.045843124293002045,500.809,0.5920000076293945,-2.3104564702900126
501.362069,,0.005221485289364514,501.272,0.45399999618530273,-2.6108521791125208
501.827586,,0.0760802993197322,501.736,0.49900001287460327,-2.5125582518048026
502.293103,,0.0974040003577645,502.205,0.5540000200271606,-2.392488771176705
502.758621,,0.04477884187447524,502.664,0.5669999718666077,-2.3639378872992047
503.224138,,0.029704292376018723,503.134,0.5170000195503235,-2.4726633240157887
503.68965499999996,,0.057676741814353644,503.6,0.5299999713897705,-2.444163468366237
504.15517200000005,,0.0255526435133703,504.065,0.5270000100135803,-2.450557224131714
504.62068999999997,,0.022765847160739795,504.524,0.5460000038146973,-2.4090601439903594
505.08620699999994,,0.03879575467914479,504.991,0.5419999957084656,-2.4177139993392336
505.55172400000004,,0.013842388296350028,505.457,0.5099999904632568,-2.487414384294395
506.017241,,0.025196723318139398,505.922,0.5289999842643738,-2.4460495499524595
506.48275899999993,,0.04910285482432494,506.387,0.492000013589859,-2.526734655870536
506.948276,,0.0440973787142345,506.85,0.515999972820282,-2.474566301868908
507.413793,,0.01058385153077973,507.319,0.5199999809265137,-2.4660108814386046
507.87931,,0.032478641272780336,507.78,0.5440000295639038,-2.413916464108148
508.344828,,0.04936294168009141,508.25,0.5299999713897705,-2.444638320691947
508.810345,,0.01935100465864083,508.71,0.5299999713897705,-2.44487957541716
509.27586199999996,,0.03209836680511873,509.18,0.515999972820282,-2.4756355956505844
509.74137900000005,,0.05171150191901375,509.639,0.44600000977516174,-2.628403516931729
510.20689699999997,,0.014880606975033952,510.109,0.5410000085830688,-2.4216949363446845
510.67241399999995,,0.04269459815154472,510.575,0.550000011920929,-2.4023400232766376
511.13793100000004,,0.060593376818029274,511.035,0.527999997138977,-2.450503430035115
511.603448,,0.0225953971235162,511.501,0.5049999952316284,-2.5008193557560685
512.0689659999999,,0.026465216969314528,511.965,0.5370000004768372,-2.4312776086207712
512.534483,,0.04058564819951748,512.431,0.5410000085830688,-2.422699710768011
513.0,,0.02721028748947687,512.896,0.5540000200271606,-2.3944703255756123
513.465517,,0.024404576032183507,513.362,0.5239999890327454,-2.459876393879243
513.931034,,0.03932049833981678,513.824,0.5379999876022339,-2.42937446904606
514.396552,,0.034949999257593144,514.295,0.5260000228881836,-2.4554703253710985
514.862069,,0.015855614185363666,514.758,0.5130000114440918,-2.483699908010026
515.327586,,0.08086461450279016,515.22,0.5419999957084656,-2.420384346563783
515.793103,,0.09637033409060117,515.688,0.5090000033378601,-2.4921071501155994
516.258621,,0.043505100825285005,516.15,0.5389999747276306,-2.4265428760866907
516.724138,,0.027336585587121338,516.615,0.5199999809265137,-2.467706386427061
517.189655,,0.053993448515009174,517.081,0.5389999747276306,-2.426062352401806
517.655172,,0.02541241443982142,517.546,0.5149999856948853,-2.478089238822399
518.1206900000001,,0.01816284110950762,518.013,0.5879999995231628,-2.31878354982456
518.5862070000001,,0.03299389681008414,518.479,0.5210000276565552,-2.464492423261926
519.051724,,0.01088581080142111,518.943,0.546999990940094,-2.4075996643910966
519.517241,,0.024813937446828062,519.409,0.5360000133514404,-2.431337774286263
519.982759,,0.04810102264625013,519.872,0.5389999747276306,-2.424603011714212
520.448276,,0.04476225379261195,520.334,0.5329999923706055,-2.4375106278927183
520.9137929999999,,0.012330022856789335,520.802,0.5460000038146973,-2.4090637896319405
521.37931,,0.03168739681568231,521.265,0.5320000052452087,-2.4394842920389324
521.844828,,0.05005615314703886,521.735,0.5400000214576721,-2.4220210590046283
522.310345,,0.020034862866812365,522.198,0.5509999990463257,-2.398069491131248
522.7758620000001,,0.03263820834017452,522.664,0.5270000100135803,-2.450417686660253
523.241379,,0.05245459786944828,523.126,0.5339999794960022,-2.435273731836713
523.7068969999999,,0.01329608726187527,523.592,0.5210000276565552,-2.4637456540613214
524.172414,,0.04812662007382264,524.058,0.5529999732971191,-2.3942167631564035
524.637931,,0.06871988733386479,524.523,0.527999997138977,-2.448902528047327
525.103448,,0.030572196141824878,524.987,0.546999990940094,-2.407752698647008
525.568966,,0.020426385227974256,525.453,0.5529999732971191,-2.394942190375004
526.034483,,0.035759170028779964,525.917,0.550000011920929,-2.401747501888189
526.5,,0.022097666718274355,526.383,0.5630000233650208,-2.3736938593913797
526.9655170000001,,0.019528091241817036,526.85,0.5450000166893005,-2.4131692158418905
527.4310340000001,,0.036924789691514984,527.313,0.5690000057220459,-2.361123984746635
527.8965519999999,,0.03519023398643922,527.776,0.5540000200271606,-2.394020827942361
528.362069,,0.017085356617915708,528.239,0.5929999947547913,-2.3092381252035654
528.827586,,0.08823538151258555,528.709,0.550000011920929,-2.403065917588751
529.293103,,0.10956224904785447,529.172,0.5540000200271606,-2.394454926026937
529.7586210000001,,0.05750972035252404,529.638,0.5540000200271606,-2.3945138190675164
530.224138,,0.016685153589250167,530.102,0.5680000185966492,-2.3640248677470455
530.689655,,0.04756070635622165,530.567,0.5379999876022339,-2.4293496031314743
531.155172,,0.023463628993346145,531.034,0.574999988079071,-2.348659240657685
531.62069,,0.014781582937096612,531.499,0.5519999861717224,-2.398644577075719
532.086207,,0.025571289349065326,531.965,0.550000011920929,-2.4028391768163018
532.5517239999999,,0.003809313312390726,532.431,0.5879999995231628,-2.319853865100315
533.017241,,0.02736419814845253,532.896,0.5680000185966492,-2.3632013860697594
533.482759,,0.04558034867625754,533.354,0.6050000190734863,-2.28234372795732
533.9482760000001,,0.040982671480463646,533.824,0.6050000190734863,-2.2820807946587345
534.413793,,0.013625273802638662,534.287,0.578000009059906,-2.340634386718133
534.87931,,0.02128452823084404,534.75,0.5789999961853027,-2.3381885040903123
535.344828,,0.03416860643392728,535.22,0.5809999704360962,-2.3335757970499764
535.810345,,0.008840735957957565,535.684,0.6230000257492065,-2.2418361629826857
536.275862,,0.03189824009609383,536.146,0.5929999947547913,-2.306985349141344
536.7413789999999,,0.04423231196623089,536.612,0.5960000157356262,-2.3002721028835036
537.206897,,0.010972047177303476,537.076,0.6029999852180481,-2.284883715611237
537.672414,,0.0355561069140704,537.541,0.6019999980926514,-2.286968160799569
538.137931,,0.04648086525228457,538.006,0.609000027179718,-2.271670200852253
538.6034480000001,,0.012339347547726236,538.472,0.6330000162124634,-2.219383266296087
539.0689659999999,,0.027490385594401503,538.939,0.6150000095367432,-2.258647216746232
539.5344829999999,,0.03621409437316813,539.405,0.6140000224113464,-2.2609208182206735
540.0,,0.02190410268669442,539.866,0.6119999885559082,-2.2654177038778065
540.465517,,0.01649515965270116,540.335,0.6439999938011169,-2.1958804281873374
540.931034,,0.027199790554137047,540.798,0.5669999718666077,-2.3638509468013322
541.396552,,0.02668239921815875,541.261,0.6119999885559082,-2.2660561305833093
541.862069,,0.006884225853023113,541.729,0.621999979019165,-2.2445361423656487
542.327586,,0.05232243544728589,542.191,0.6579999923706055,-2.1663831311912363
542.7931030000001,,0.06359109906391312,542.657,0.6240000128746033,-2.2407378992134186
543.258621,,0.025801728895379506,543.12,0.6079999804496765,-2.2758715929011646
543.7241379999999,,0.024308621422581035,543.585,0.6499999761581421,-2.1846299022037687
544.189655,,0.040626930653471706,544.051,0.6439999938011169,-2.1979402692210908
544.655172,,0.016584758075469077,544.516,0.6370000243186951,-2.213398242330815
545.12069,,0.015261158576115213,544.984,0.6140000224113464,-2.2636779018306594
545.5862070000001,,0.0227806253221026,545.45,0.6620000004768372,-2.1592313992956433
546.051724,,0.004138291210075611,545.914,0.640999972820282,-2.2050644907186414
546.517241,,0.020210397601783944,546.38,0.6290000081062317,-2.2312398475294395
546.982759,,0.033123152504707855,546.843,0.6470000147819519,-2.1920054537049793
547.448276,,0.028675591867884775,547.305,0.6200000047683716,-2.250760518509968
547.9137929999999,,0.006502646551664993,547.769,0.6700000166893005,-2.141711531999142
548.3793099999999,,0.022807108160837804,548.239,0.6290000081062317,-2.230874615066292
548.844828,,0.03401117747068825,548.702,0.6499999761581421,-2.1849216380568137
549.310345,,0.01049978383444944,549.164,0.6449999809265137,-2.1955799425450997
549.775862,,0.028703217169494144,549.63,0.6190000176429749,-2.2519639107686853
550.241379,,0.04143814273558716,550.094,0.6489999890327454,-2.1863264324238725
550.706897,,0.008441752037670617,550.56,0.652999997138977,-2.1773245211468653
551.172414,,0.039620356208319746,551.024,0.6309999823570251,-2.2249670277878018
551.637931,,0.05199978844964577,551.49,0.6880000233650208,-2.1005043613523795
552.103448,,0.0163618222952301,551.957,0.6330000162124634,-2.2200669124770736
552.568966,,0.02728130188189101,552.423,0.6660000085830688,-2.1479334972315796
553.034483,,0.03781754127391366,552.887,0.6460000276565552,-2.19130141632478
553.5,,0.020322587179290016,553.353,0.6230000257492065,-2.241245520300981
553.965517,,0.009519519256653657,553.821,0.6620000004768372,-2.1561595169735566
554.4310340000001,,0.019172995977076807,554.283,0.6209999918937683,-2.2454151930594026
554.896552,,0.02493290220903599,554.746,0.6489999890327454,-2.184396488391589
555.3620689999999,,0.00016192179876880653,555.209,0.6700000166893005,-2.138680724255644
555.827586,,0.04367267962082573,555.675,0.6370000243186951,-2.2106628847730234
556.293103,,0.06226072201677916,556.141,0.5929999947547913,-2.306660210860393
556.758621,,0.03425631264633739,556.606,0.656000018119812,-2.1695888231346667
557.224138,,0.012353512975541759,557.073,0.6179999709129333,-2.2526015014245777
557.689655,,0.03278835043560269,557.54,0.6449999809265137,-2.1940348941444405
558.155172,,0.014380899562481729,558.006,0.6309999823570251,-2.2248177963571396
558.6206900000001,,0.015785882386797262,558.464,0.6489999890327454,-2.1858995041331335
559.0862070000001,,0.024949587821050414,558.929,0.656000018119812,-2.170951865613603
559.5517239999999,,0.007223974581145798,559.395,0.628000020980835,-2.2322528096707677
560.017241,,0.018442730797237475,559.865,0.621999979019165,-2.245610831526518
560.482759,,0.03235060268202308,560.328,0.6700000166893005,-2.141299533800301
560.948276,,0.026055767392650486,560.791,0.6190000176429749,-2.2526432415728173
561.413793,,0.00040143315063830893,561.261,0.6539999842643738,-2.1765846466405088
561.87931,,0.0308798820234176,561.721,0.6159999966621399,-2.2595228178505
562.344828,,0.04192513923053443,562.191,0.6100000143051147,-2.2726956032525405
562.8103450000001,,0.01853663595976674,562.649,0.6230000257492065,-2.2444227130544445
563.275862,,0.018902847135326924,563.12,0.6790000200271606,-2.1224133039665816
563.7413789999999,,0.03037619293759145,563.585,0.6029999852180481,-2.2879299671745805
564.206897,,0.0006776167243895809,564.05,0.5799999833106995,-2.3379263393132894
564.672414,,0.044494931599681445,564.516,0.5950000286102295,-2.305087403884047
565.137931,,0.054240185486423786,564.98,0.5929999947547913,-2.3092437339003498
565.603448,,0.019744557820449617,565.445,0.5950000286102295,-2.3046490856584625
566.068966,,0.021246794030870614,565.91,0.5960000157356262,-2.3022039601588733
566.534483,,0.03150543620247107,566.369,0.5830000042915344,-2.3302388243133554
567.0,,0.016986631243719054,566.839,0.5789999961853027,-2.3386539008178358
567.465517,,0.009589966242938822,567.301,0.5910000205039978,-2.3122077318226912
567.931034,,0.020265987395201333,567.769,0.5759999752044678,-2.344591430562993
568.396552,,0.025051836686830583,568.231,0.5669999718666077,-2.3639187181308934
568.862069,,0.000410280319390493,568.695,0.5799999833106995,-2.335340046178416
569.327586,,0.0420417656521369,569.165,0.5830000042915344,-2.328579483618525
569.793103,,0.05733982630888677,569.63,0.5709999799728394,-2.3545369622941092
570.2586210000001,,0.027056779121794862,570.094,0.5720000267028809,-2.352215970273147
570.724138,,0.018825935071227734,570.56,0.550000011920929,-2.4000529758328373
571.189655,,0.0360055351189539,571.024,0.5789999961853027,-2.3368307769245344
571.655172,,0.014923656444083134,571.49,0.5669999718666077,-2.362985792648049
572.12069,,0.014597192240843914,571.955,0.546999990940094,-2.4066222899151044
572.586207,,0.02065958596172156,572.42,0.5419999957084656,-2.417630456658846
573.051724,,0.000954176928093695,572.885,0.5450000166893005,-2.4112576150036196
573.517241,,0.023576841766070212,573.35,0.5460000038146973,-2.409285163587493
573.982759,,0.035233159488065116,573.813,0.5490000247955322,-2.402991702634047
574.4482760000001,,0.029155073305104116,574.276,0.550000011920929,-2.4010841947741692
574.913793,,0.006984930369028754,574.743,0.5419999957084656,-2.418804663848055
575.37931,,0.02067273147693254,575.206,0.5820000171661377,-2.3319604234129936
575.844828,,0.03136013206946481,575.672,0.5680000185966492,-2.3627633154651577
576.310345,,0.01043913708311288,576.135,0.49900001287460327,-2.5133836592149446
576.775862,,0.025355625761046146,576.601,0.5509999990463257,-2.400371975681884
577.241379,,0.03831282463875322,577.065,0.5450000166893005,-2.413697223265002
577.706897,,0.010208479075418221,577.531,0.5299999713897705,-2.4465974524932443
578.172414,,0.03271872750914216,577.999,0.5339999794960022,-2.438063976225567
578.6379310000001,,0.04525012411392493,578.464,0.5529999732971191,-2.3968056647335962
579.1034480000001,,0.015427479637103529,578.928,0.5419999957084656,-2.4208568026341477
579.5689659999999,,0.02251765608583739,579.394,0.5519999861717224,-2.3991035801023965
580.034483,,0.03334348613322503,579.857,0.5400000214576721,-2.4252267550018183
580.5,,0.021587341683143572,580.319,0.5070000290870667,-2.497049345826955
580.965517,,0.016102537258636647,580.787,0.5289999842643738,-2.448997350499037
581.431034,,0.0269893782359633,581.25,0.5419999957084656,-2.4205073532530084
581.896552,,0.03272092379085055,581.718,0.5170000195503235,-2.474764955535054
582.362069,,0.011198610756113317,582.179,0.5339999794960022,-2.4374851244383176
582.827586,,0.025032548003609722,582.645,0.5339999794960022,-2.4372151810320406
583.2931030000001,,0.03752915404969854,583.109,0.5090000033378601,-2.4913927417168833
583.758621,,0.008886477096110255,583.574,0.527999997138977,-2.449700509903665
584.2241379999999,,0.03342699413013706,584.039,0.5400000214576721,-2.423258067880906
584.689655,,0.04881040828639005,584.504,0.5130000114440918,-2.481791119925816
585.155172,,0.02799632277830536,584.969,0.5339999794960022,-2.4357663912056657
585.6206900000001,,0.0028054866157050614,585.434,0.5130000114440918,-2.4812705480238213
586.0862070000001,,0.01484917940320303,585.9,0.4830000102519989,-2.5464168440967856
586.551724,,0.004528883782124962,586.366,0.5400000214576721,-2.422061737123307
587.017241,,0.011369935640890262,586.836,0.5329999923706055,-2.437185076024951
587.482759,,0.017119432730339484,587.298,0.5339999794960022,-2.434926940659691
587.948276,,0.006298156347811249,587.761,0.527999997138977,-2.4479695844775717
588.4137929999999,,0.020569889580292416,588.224,0.5249999761581421,-2.4545277591134287
588.87931,,0.05074053625589872,588.695,0.515999972820282,-2.4742088608100823
589.344828,,0.059183929085341085,589.157,0.5299999713897705,-2.4438299614740435
589.810345,,0.03251200441006364,589.623,0.5210000276565552,-2.463604865827272
590.2758620000001,,0.008036506655898485,590.088,0.5270000100135803,-2.4507400393415035
590.741379,,0.021845160921474125,590.554,0.5260000228881836,-2.453159185275344
591.2068969999999,,0.007573534925234259,591.014,0.5130000114440918,-2.4817485143629927
591.672414,,0.049912092130071375,591.479,0.5180000066757202,-2.4711407742138958
592.137931,,0.058198313200615,591.946,0.503000020980835,-2.5041162528274596
592.603448,,0.022720327698794,592.412,0.5210000276565552,-2.4651977076924463
593.068966,,0.01869885529219618,592.884,0.5180000066757202,-2.472022820934686
593.534483,,0.02949104646874367,593.343,0.5139999985694885,-2.4810095204382496
594.0,,0.015764177499404636,593.806,0.5249999761581421,-2.4572911422880446
594.4655170000001,,0.008250149609425146,594.275,0.5170000195503235,-2.4749338339483087
594.9310340000001,,0.01706983002412472,594.736,0.515999972820282,-2.4772866140010565
595.3965519999999,,0.019972787055303247,595.199,0.5299999713897705,-2.446914572948596
595.862069,,0.004367395923964444,595.664,0.5540000200271606,-2.394706025295687
596.327586,,0.041754278084836775,596.135,0.5260000228881836,-2.455734384038613
596.793103,,0.05383098633745147,596.6,0.5120000243186951,-2.486208814053424
597.2586210000001,,0.025128668167438153,597.065,0.5199999809265137,-2.4687020012461947
597.724138,,0.015939098318714505,597.524,0.5329999923706055,-2.440252928719988
598.189655,,0.030209646466837672,597.991,0.5120000243186951,-2.485832684855252
598.655172,,0.010429527857082265,598.457,0.515999972820282,-2.476906978359419
599.12069,,0.01639917032835964,598.921,0.5099999904632568,-2.4897350678117007
599.586207,,0.021705128486307776,599.386,0.531000018119812,-2.4437143013303366
600.0517239999999,,0.0025629997533244226,599.854,0.515999972820282,-2.47610760891116
600.517241,,0.02263539506198213,600.317,0.5130000114440918,-2.4823484752022704
600.982759,,0.03610057031535848,600.78,0.5049999952316284,-2.4994837920434954
601.448276,,0.0306527960457914,601.25,0.5080000162124634,-2.492664218851642
601.913793,,0.007726266495388257,601.71,0.515999972820282,-2.4749703569968546
602.37931,,0.019432816085780607,602.181,0.5199999809265137,-2.466017358612275
602.844828,,0.027088943320886696,602.639,0.5210000276565552,-2.4636334550240506
603.310345,,0.0031697999717177085,603.109,0.5139999985694885,-2.478718313221607
603.775862,,0.03225113680338805,603.575,0.5189999938011169,-2.467703830317019
604.2413789999999,,0.041699752448796076,604.039,0.515999972820282,-2.47416667155525
604.706897,,0.01078742500520723,604.505,0.5170000195503235,-2.471964990582786
605.172414,,0.031001742502676573,604.969,0.5210000276565552,-2.4632782132615434
605.637931,,0.03934920200572567,605.435,0.5049999952316284,-2.498214469311146
606.1034480000001,,0.0065585989868684235,605.899,0.5049999952316284,-2.4983402968194333
606.5689659999999,,0.0295928405050981,606.365,0.5170000195503235,-2.47236646269874
607.0344829999999,,0.03434386836701796,606.828,0.5419999957084656,-2.4181082875575193
607.5,,0.016253888093890237,607.29,0.5249999761581421,-2.45538411888625
607.965517,,0.007974501753859236,607.758,0.5180000066757202,-2.4708971033248375
608.431034,,0.019837171297086707,608.221,0.4970000088214874,-2.51692799126893
608.896552,,0.027330012099869086,608.684,0.5149999856948853,-2.4780004749314593
609.362069,,0.005291544989218904,609.154,0.531000018119812,-2.443429672988263
609.827586,,0.034522122778829975,609.619,0.503000020980835,-2.504709906556242
610.293103,,0.05220934307225184,610.084,0.5080000162124634,-2.494077380063624
610.758621,,0.027968714366180095,610.55,0.515999972820282,-2.4768839427193194
611.2241379999999,,0.012680913401884498,611.009,0.47999998927116394,-2.5555190455326744
611.689655,,0.029820412352278877,611.475,0.5329999923706055,-2.4402165279404686
612.155172,,0.01381147980850586,611.94,0.5049999952316284,-2.501340898424094
612.62069,,0.009896024308136978,612.406,0.515999972820282,-2.4774504313026178
613.0862070000001,,0.013799062829111931,612.869,0.492000013589859,-2.5297632643052044
613.551724,,0.0036387521000153028,613.339,0.48899999260902405,-2.53627527056835
614.017241,,0.023866443695912523,613.802,0.5,-2.512237828804694
614.4827590000001,,0.03168917227067559,614.264,0.49000000953674316,-2.533905650869804
614.948276,,0.02329979228831275,614.732,0.492000013589859,-2.5293869308180152
615.4137929999999,,0.0006974257148936631,615.194,0.492000013589859,-2.5291876018524997
615.8793099999999,,0.025540888325727762,615.66,0.4950000047683716,-2.5224201881735007
616.344828,,0.03435088280489857,616.13,0.5080000162124634,-2.493840533240417
616.810345,,0.013603067675472934,616.596,0.4880000054836273,-2.53713805941019
617.275862,,0.018831447998258137,617.057,0.5170000195503235,-2.473671532374406
617.741379,,0.027378673633552446,617.523,0.46399998664855957,-2.5888529055591354
618.206897,,0.0023113263833899793,617.987,0.47699999809265137,-2.560251610329098
618.672414,,0.04224372571424297,618.453,0.4729999899864197,-2.568704506152472
619.137931,,0.049486517889529465,618.917,0.4880000054836273,-2.535787461263461
619.603448,,0.01608345010544494,619.383,0.4880000054836273,-2.535581106441394
620.068966,,0.0217992489598212,619.85,0.5019999742507935,-2.504910138780122
620.534483,,0.030081684764894846,620.313,0.49000000953674316,-2.5309249805417835
621.0,,0.015644649167223263,620.78,0.4790000021457672,-2.5548065022558917
621.465517,,0.008912025803650997,621.244,0.4880000054836273,-2.535163161281771
621.9310340000001,,0.020308648128581176,621.706,0.48899999260902405,-2.5329980619106687
622.396552,,0.027606521433220503,622.169,0.48100000619888306,-2.5504892737127145
622.862069,,0.0070717733725486395,622.634,0.492000013589859,-2.5266329032840114
623.327586,,0.030766289149550236,623.105,0.46700000762939453,-2.581251640234737
623.793103,,0.04803129545206407,623.564,0.47099998593330383,-2.5727294077226808
624.258621,,0.024868610977416335,624.036,0.49000000953674316,-2.531561390224483
624.724138,,0.015117420431095902,624.494,0.5120000243186951,-2.4838835412444165
625.189655,,0.03274942655818927,624.965,0.47699999809265137,-2.5604068482802567
625.655172,,0.016612288681231817,625.431,0.46299999952316284,-2.5911896646303685
626.1206900000001,,0.00974291573792735,625.895,0.47200000286102295,-2.571867410464271
626.5862070000001,,0.01814327494422316,626.354,0.4880000054836273,-2.5372896152988758
627.0517239999999,,0.004377820031189865,626.824,0.47600001096725464,-2.563700090605441
627.5172409999999,,0.015108681752500623,627.287,0.4690000116825104,-2.579195754035053
627.982759,,0.025271780818712893,627.75,0.4819999933242798,-2.55108981600352
628.448276,,0.02083712577620872,628.22,0.4779999852180481,-2.5599854630432404
628.913793,,0.0015715027676611861,628.684,0.4819999933242798,-2.551410836031349
629.37931,,0.023683162126623768,629.146,0.4659999907016754,-2.5863641668650157
629.844828,,0.03354085478655479,629.612,0.46399998664855957,-2.5907690234402914
630.3103450000001,,0.013542464289079067,630.077,0.47600001096725464,-2.5646239790192915
630.7758620000001,,0.02021252283757055,630.542,0.4830000102519989,-2.5493228587444414
631.2413789999999,,0.03117789781542846,631.009,0.47600001096725464,-2.564474472243605
631.706897,,0.0025747129083035815,631.475,0.46399998664855957,-2.5904742158663954
632.172414,,0.03840145955473828,631.939,0.46399998664855957,-2.590289697859668
632.637931,,0.047332635614909156,632.404,0.47699999809265137,-2.561747644719057
633.103448,,0.014870139083232009,632.865,0.4690000116825104,-2.5789282187185116
633.568966,,0.02239314519664117,633.335,0.48899999260902405,-2.5350846414369896
634.034483,,0.02938386219580461,633.798,0.4790000021457672,-2.556585979437575
634.5,,0.013205630040910278,634.261,0.48100000619888306,-2.551937427398179
634.9655170000001,,0.005017142826587902,634.729,0.4860000014305115,-2.5407555052752846
635.431034,,0.014877365035572476,635.191,0.4779999852180481,-2.557907150663691
635.8965519999999,,0.01987608444946001,635.657,0.5049999952316284,-2.4988251540014295
636.362069,,0.0026683469812286134,636.12,0.5540000200271606,-2.391838027559521
636.827586,,0.04003701978066602,636.585,0.47200000286102295,-2.5702856015281292
637.293103,,0.05415330350873513,637.05,0.47999998927116394,-2.552694650095978
637.7586210000001,,0.028085517159962325,637.516,0.46000000834465027,-2.596152546009572
638.224138,,0.01160475450833797,637.98,0.4690000116825104,-2.5764806360379406
638.689655,,0.026428744977902322,638.446,0.49000000953674316,-2.5307178437065683
639.155172,,0.008766499103450178,638.913,0.3880000114440918,-2.7529833961925254
639.62069,,0.015146269451303478,639.379,0.46700000762939453,-2.580968834878613
640.086207,,0.01829977151186141,639.843,0.44999998807907104,-2.618156446795534
640.551724,,9.149133396057238e-06,640.305,0.47999998927116394,-2.5529933970402827
641.017241,,0.020515101332383618,640.773,0.492000013589859,-2.5270848905435184
641.482759,,0.027849308614206172,641.236,0.4659999907016754,-2.5839963735095997
641.9482760000001,,0.01875007939423242,641.699,0.47200000286102295,-2.5712147295610803
642.413793,,0.00361356020162934,642.169,0.48399999737739563,-2.545376120432806
642.87931,,0.02797659257539806,642.634,0.4790000021457672,-2.5565796035777155
643.344828,,0.03369601042236638,643.098,0.48899999260902405,-2.53509872199009
643.810345,,0.00947066751877812,643.564,0.4869999885559082,-2.539747350403093
644.275862,,0.026344977371178264,644.024,0.49000000953674316,-2.53347931598938
644.7413789999999,,0.03788490620818083,644.49,0.4699999988079071,-2.5772890211227004
645.206897,,0.010494023229714454,644.955,0.49000000953674316,-2.5339145262281457
645.672414,,0.02801954313406399,645.42,0.47200000286102295,-2.573284441660816
646.1379310000001,,0.035046095324680816,645.887,0.4729999899864197,-2.571211287830295
646.6034480000001,,0.0033342868369072355,646.353,0.4830000102519989,-2.5494783319098744
647.0689659999999,,0.03078281931970042,646.817,0.48899999260902405,-2.5364059842787303
647.534483,,0.03472362065812551,647.28,0.49000000953674316,-2.5341722800894435
648.0,,0.017485375850830917,647.75,0.48100000619888306,-2.553672258452561
648.465517,,0.009668686996067452,648.213,0.47600001096725464,-2.564408464554319
648.931034,,0.019676596983791896,648.679,0.47200000286102295,-2.5729221129971425
649.396552,,0.02388477007819373,649.143,0.492000013589859,-2.529110197956644
649.862069,,0.0004009002838692394,649.609,0.49900001287460327,-2.513589287083575
650.327586,,0.04071667370164612,650.076,0.49399998784065247,-2.5241884829084515
650.7931030000001,,0.058486498857012764,650.534,0.5009999871253967,-2.508629051240428
651.258621,,0.03452968121564273,651.006,0.4749999940395355,-2.5649600805395143
651.7241379999999,,0.006469147245517082,651.464,0.4749999940395355,-2.564651834812351
652.189655,,0.02463345736958809,651.929,0.47600001096725464,-2.562180485613472
652.655172,,0.008722131659542227,652.394,0.49799999594688416,-2.5139817391471646
653.12069,,0.016751918424527713,652.865,0.4790000021457672,-2.55513953389924
653.5862070000001,,0.022650295196349746,653.328,0.5099999904632568,-2.487403909831326
654.051724,,0.004794665710202548,653.791,0.4869999885559082,-2.5373600894965387
654.517241,,0.018559705708137055,654.254,0.5049999952316284,-2.4980411294636453
654.982759,,0.029398853888782016,654.724,0.48399999737739563,-2.5437424400167203
655.448276,,0.021353581310637755,655.187,0.47600001096725464,-2.5611765082925393
655.9137929999999,,0.0025139034164553156,655.653,0.49000000953674316,-2.530735962827009
656.37931,,0.028288171530297425,656.115,0.47699999809265137,-2.5591727295636386
656.844828,,0.03352011408677642,656.581,0.48500001430511475,-2.5419082198071865
657.310345,,0.008008230896409962,657.047,0.48100000619888306,-2.5508329974020483
657.7758620000001,,0.02782613598972864,657.512,0.48899999260902405,-2.5336528725333287
658.241379,,0.037905168073947934,657.98,0.4970000088214874,-2.5165035482412117
658.7068969999999,,0.009139724200650649,658.445,0.5009999871253967,-2.5080906456726937
659.172414,,0.029589024478194254,658.91,0.5009999871253967,-2.5084044681756597
659.637931,,0.036152961169529145,659.376,0.47600001096725464,-2.563187403626434
660.103448,,0.004193845534361943,659.836,0.5210000276565552,-2.4654582092217896
660.568966,,0.02983665851346675,660.306,0.47999998927116394,-2.5550762965510074
661.034483,,0.033677230425514036,660.769,0.5090000033378601,-2.4921632923443884
661.5,,0.016253711971741632,661.231,0.4790000021457672,-2.557757117425912
661.965517,,0.00780887212585405,661.695,0.4690000116825104,-2.5797379926162907
662.4310340000001,,0.016851904558585734,662.165,0.515999972820282,-2.4774900811758935
662.8965519999999,,0.0206920411078089,662.63,0.4440000057220459,-2.63445054264297
663.362069,,0.0019828570656326384,663.095,0.49399998784065247,-2.5255629694222743
663.827586,,0.038003689946230365,663.56,0.47999998927116394,-2.5560542010484073
664.293103,,0.05013160081633885,664.024,0.49000000953674316,-2.5342026498759678
664.7586210000001,,0.022416017616533643,664.49,0.49000000953674316,-2.5340841870421382
665.224138,,0.018025402284687787,664.955,0.4950000047683716,-2.523022223542805
665.689655,,0.032493450117175256,665.42,0.5090000033378601,-2.4923067158570986
666.155172,,0.013791959477897917,665.88,0.5090000033378601,-2.4920524380042086
666.62069,,0.010834204188465852,666.346,0.492000013589859,-2.528803104974444
667.086207,,0.013936746933474098,666.81,0.5019999742507935,-2.506707498492655
667.5517239999999,,0.004365945054512081,667.279,0.5139999985694885,-2.4802408375624085
668.017241,,0.024010294711390007,667.739,0.5019999742507935,-2.506057820065352
668.482759,,0.030016109883577356,668.209,0.49799999594688416,-2.514451931186611
668.948276,,0.020233449564188447,668.675,0.4970000088214874,-2.516326948072501
669.413793,,0.0020240809049073007,669.14,0.49399998784065247,-2.522585873595456
669.87931,,0.0263490987655591,669.606,0.45100000500679016,-2.6160268934636455
670.3448279999999,,0.03262250899933717,670.066,0.48899999260902405,-2.5330421603257673
670.810345,,0.009341271879011917,670.532,0.4880000054836273,-2.535075052969613
671.275862,,0.02512908428170101,670.998,0.47699999809265137,-2.558948978936598
671.7413789999999,,0.03443330976487066,671.464,0.5130000114440918,-2.4804835017715927
672.206897,,0.003931095657682782,671.928,0.4880000054836273,-2.534973279350254
672.672414,,0.03753079475004619,672.394,0.4880000054836273,-2.535054033885712
673.137931,,0.0459672869604905,672.854,0.4860000014305115,-2.5395473989230584
673.6034480000001,,0.013360770261851387,673.324,0.4830000102519989,-2.546270667652026
674.068966,,0.023397312570296487,673.787,0.48500001430511475,-2.5421463320667503
674.5344829999999,,0.029689426244109945,674.25,0.4819999933242798,-2.548953761634112
675.0,,0.012391497746822881,674.721,0.5009999871253967,-2.507860634997271
675.465517,,0.002143798810044019,675.183,0.48100000619888306,-2.5517548847488065
675.931034,,0.009924405611997795,675.649,0.48399999737739563,-2.545550706504229
676.396552,,0.014986225613294449,676.112,0.48899999260902405,-2.534989485165932
676.862069,,0.004531608084121435,676.578,0.5049999952316284,-2.500452450251214
677.327586,,0.03781230340821707,677.043,0.4880000054836273,-2.537789740417283
677.793103,,0.04930638395005832,677.509,0.5400000214576721,-2.4247691113982146
678.2586210000001,,0.022540478229642436,677.969,0.503000020980835,-2.505607860913147
678.7241379999999,,0.017198508220856744,678.435,0.5040000081062317,-2.5036108336971474
679.1896549999999,,0.03227160724964623,678.899,0.46000000834465027,-2.59960175724813
679.655172,,0.01476482666661926,679.364,0.4959999918937683,-2.5212465052381323
680.12069,,0.009723439069664615,679.835,0.4959999918937683,-2.5212654602110973
680.5862070000001,,0.014401721249356115,680.298,0.5960000157356262,-2.3033591957545494
681.051724,,0.002122991731727098,680.761,0.47999998927116394,-2.5559808172462937
681.517241,,0.02218285703630745,681.224,0.49000000953674316,-2.5340376806729066
681.9827590000001,,0.0312579209791131,681.695,0.47999998927116394,-2.555619806514853
682.448276,,0.02481593363732505,682.157,0.49900001287460327,-2.5139795448828757
682.9137929999999,,0.0032658989300186876,682.623,0.46299999952316284,-2.592131523248472
683.3793099999999,,0.023784226389317386,683.09,0.4860000014305115,-2.541718938219536
683.844828,,0.034802113613319544,683.549,0.49900001287460327,-2.51307762413159
