Trial: ,21
Threshold: ,0.0
Maximum EMG: ,0.051025313009586175
Success: ,True

EMG Time,Raw EMG,Filtered EMG,Force Time,Raw Force (V),Filtered Force (N)
0.0,samples,3.865420812054949e-08,0.467,0.5929999947547913,-2.3076642144057162
0.46551699999999996,time,4.6718678750224856e-08,0.932,0.597000002861023,-2.2988858223866018
0.9310339999999999,value,5.4964920295154855e-08,1.397,0.6150000095367432,-2.2596203321415547
1.396552,,6.337139185702626e-08,1.862,0.5759999752044678,-2.3445533645461403
1.862069,,7.191505114843334e-08,2.33,0.6000000238418579,-2.292248403877962
2.327586,,8.057137177852173e-08,2.795,0.5649999976158142,-2.3685019420921023
2.793103,,8.931436657477876e-08,3.256,0.5849999785423279,-2.3249481517209327
3.258621,,9.811661711853397e-08,3.725,0.5720000267028809,-2.353307463582755
3.724138,,1.0694930965725454e-07,4.186,0.5730000138282776,-2.3511824329385873
4.189654999999999,,1.1578227754103612e-07,4.655,0.5789999961853027,-2.3381790267960927
4.655172,,1.2458405031380132e-07,5.115,0.5690000057220459,-2.3600464204529454
5.12069,,1.3332190957163646e-07,5.585,0.5339999794960022,-2.436390770156057
5.586207,,1.4196195168143352e-07,6.051,0.5879999995231628,-2.318843262703094
6.051723999999999,,1.5046915743257621e-07,6.516,0.5789999961853027,-2.3385541405541854
6.517241,,1.5880746867283983e-07,6.981,0.6079999804496765,-2.2754750888474544
6.982759,,1.669398719569919e-07,7.441,0.5669999718666077,-2.364896613693286
7.448276,,1.7482848921281555e-07,7.906,0.5759999752044678,-2.3453784062362497
7.913793000000001,,1.824346754044703e-07,8.37,0.5389999747276306,-2.4260690007784063
8.379309999999998,,1.8971912314729805e-07,8.836,0.5960000157356262,-2.3019549017325636
8.844828000000001,,1.9664197420142418e-07,9.308,0.5789999961853027,-2.3390460022259605
9.310345,,2.0316293774384746e-07,9.766,0.5709999799728394,-2.356512228075512
9.775862,,2.092414152902216e-07,10.234,0.5889999866485596,-2.317315599377167
10.241379,,2.1483663210826772e-07,10.696,0.5640000104904175,-2.3717822992650737
10.706897,,2.1990777493479402e-07,11.16,0.5680000185966492,-2.36305023508862
11.172414,,2.2441413577771116e-07,11.629,0.5730000138282776,-2.3521224551976547
11.637931,,2.28315261553302e-07,12.095,0.5690000057220459,-2.360786453118564
12.103447999999998,,2.3157110927742084e-07,12.558,0.5669999718666077,-2.3650789635788083
12.568966000000001,,2.3414220649735267e-07,13.024,0.5699999928474426,-2.3584661523154584
13.034483,,2.3598981661885395e-07,13.489,0.574999988079071,-2.347486552794107
13.5,,2.3707610875053085e-07,13.955,0.5929999947547913,-2.3081772490873114
13.965517,,2.3736433165528967e-07,14.42,0.5960000157356262,-2.301542724491985
14.431034,,2.3681899136623875e-07,14.886,0.5830000042915344,-2.3297648490538534
14.896552,,2.3540603199224432e-07,15.345,0.5519999861717224,-2.3972052902622627
15.362069,,2.3309301920646846e-07,15.811,0.5839999914169312,-2.32739753184566
15.827586000000002,,2.2984932587977341e-07,16.282,0.5960000157356262,-2.301171722318345
16.293103,,2.256463192899923e-07,16.744,0.5659999847412109,-2.3664606166644013
16.758621,,2.204575493078743e-07,17.207,0.4909999966621399,-2.5298046744736853
17.224138,,2.1425893693115498e-07,17.67,0.5910000205039978,-2.311904470349882
17.689655,,2.0702896250981525e-07,18.138,0.6050000190734863,-2.2813860545993587
18.155172,,1.9874885297832276e-07,18.6,0.5540000200271606,-2.3924967928112384
18.62069,,1.8940276738463856e-07,19.066,0.5830000042915344,-2.329333642053409
19.086207,,1.7897797998116986e-07,19.532,0.5659999847412109,-2.3664059151153127
19.551724,,1.6746506011980543e-07,19.998,0.5699999928474426,-2.357742820860099
20.017241000000002,,1.5485804817183e-07,20.464,0.5820000171661377,-2.331664975203574
20.482758999999998,,1.4115462667402987e-07,20.93,0.5709999799728394,-2.3557080778073862
20.948276,,1.2635628588482396e-07,21.396,0.5640000104904175,-2.3710459666976544
21.413793000000002,,1.1046848291892926e-07,21.855,0.5820000171661377,-2.331924351956939
21.87931,,9.350079361604762e-08,22.327,0.5699999928474426,-2.358165429342802
22.344828,,7.54670562884859e-08,22.785,0.550000011920929,-2.401835930027856
22.810344999999998,,5.6385506484635923e-08,23.253,0.6079999804496765,-2.2755687885442697
23.275862,,3.627890189998899e-08,23.715,0.5830000042915344,-2.330121757372029
23.741379,,1.5174636564974266e-08,24.185,0.5529999732971191,-2.3955579187171248
24.206897,,6.89515656047378e-09,24.648,0.5860000252723694,-2.323727232073104
24.672414,,2.9893515451970524e-08,25.116,0.5879999995231628,-2.3194201973069695
25.137931,,5.377857220471788e-08,25.578,0.5640000104904175,-2.371741413288209
25.603448,,7.850349038552374e-08,26.044,0.5820000171661377,-2.3325422564329075
26.068966,,1.040164173879742e-07,26.507,0.5540000200271606,-2.3935436495648776
26.534483,,1.3026045260852359e-07,26.973,0.5540000200271606,-2.3935263247793452
27.0,,1.5717363224019598e-07,27.441,0.6019999980926514,-2.288917565046034
27.465517,,1.8468893145577113e-07,27.906,0.5669999718666077,-2.3651203759926456
27.931034,,2.12734284723683e-07,28.371,0.546999990940094,-2.408629502582684
28.396552,,2.4123262496732935e-07,28.83,0.5879999995231628,-2.319229989779381
28.862069,,2.701019422420227e-07,29.304,0.578000009059906,-2.3409320605983
29.327586,,2.9925536256336744e-07,29.763,0.5879999995231628,-2.3190539123431018
29.793103000000002,,3.286012474763951e-07,30.226,0.578000009059906,-2.3407445250517473
30.258620999999998,,3.5804331490631715e-07,30.696,0.5669999718666077,-2.364613354468344
30.724138,,3.8748078177926295e-07,31.159,0.5540000200271606,-2.392842886584039
31.189655000000002,,4.1680852884486877e-07,31.622,0.5960000157356262,-2.3012534744403905
31.655172000000004,,4.4591728807210423e-07,32.088,0.574999988079071,-2.3469276517902253
32.12069,,4.74693852925305e-07,32.551,0.5339999794960022,-2.436186818377242
32.586207,,5.030213117590897e-07,33.016,0.5820000171661377,-2.3315614082036964
33.051724,,5.307793044987457e-07,33.482,0.574999988079071,-2.346777948976951
33.517241000000006,,5.578443026968708e-07,33.948,0.574999988079071,-2.346760481496943
33.982759,,5.840899129776606e-07,34.415,0.5839999914169312,-2.327152313611627
34.448276,,6.093872037973633e-07,34.881,0.4729999899864197,-2.5690009698515213
34.913793,,6.336050553632378e-07,35.341,0.5820000171661377,-2.3315669236062284
35.37931,,6.566105324639948e-07,35.807,0.5789999961853027,-2.3381585283368382
35.844828,,6.78269279872377e-07,36.274,0.574999988079071,-2.3469417180460717
36.310345,,6.984459398854248e-07,36.737,0.5540000200271606,-2.3927729805106503
36.775862,,7.170045914703077e-07,37.2,0.5490000247955322,-2.4037551838729945
37.241378999999995,,7.338092103836155e-07,37.67,0.5709999799728394,-2.355920270613853
37.706897000000005,,7.487241495299492e-07,38.13,0.5659999847412109,-2.3669110869597514
38.172414,,7.616146387218111e-07,38.6,0.6010000109672546,-2.290753881754448
38.637931,,7.723473028974501e-07,39.066,0.5669999718666077,-2.364917693801232
39.103448,,7.807906977467898e-07,39.532,0.5649999976158142,-2.3693562281703966
39.568965999999996,,7.868158615881814e-07,39.99,0.5720000267028809,-2.3541763520192434
40.034483,,7.902968822308191e-07,40.459,0.5920000076293945,-2.310660578770277
40.5,,7.911114774496117e-07,40.924,0.5830000042915344,-2.3303094130213315
40.965517,,7.891415875914734e-07,41.389,0.5789999961853027,-2.3390475435668914
41.431034,,7.842739787248009e-07,41.855,0.5809999704360962,-2.334695946490728
41.896552,,7.764008546377302e-07,42.32,0.5730000138282776,-2.352112926566959
42.362069000000005,,7.654204758860545e-07,42.785,0.5519999861717224,-2.397835973729951
42.827586000000004,,7.51237783988853e-07,43.248,0.5680000185966492,-2.362934121483467
43.293103,,7.337650287693971e-07,43.711,0.5799999833106995,-2.336733466036094
43.758621,,7.129223967412089e-07,44.182,0.5820000171661377,-2.3323068974167125
44.224138,,6.886386383447193e-07,44.644,0.597000002861023,-2.299547658786856
44.689655,,6.608516917492948e-07,45.108,0.574999988079071,-2.347390789321906
45.155172,,6.295093008489471e-07,45.57,0.5540000200271606,-2.3930515948991347
45.620689999999996,,5.945696249983097e-07,46.036,0.5960000157356262,-2.3014576731436014
46.086206999999995,,5.560018379589469e-07,46.501,0.5920000076293945,-2.3100838520239577
46.551724,,5.13786713455252e-07,46.967,0.5419999957084656,-2.41893358817203
47.017241,,4.6791719467460145e-07,47.433,0.5690000057220459,-2.3600373610269467
47.482759,,4.183989449885443e-07,47.899,0.5730000138282776,-2.3512625598562233
47.948276,,3.6525087712113034e-07,48.363,0.5929999947547913,-2.3076429836256773
48.413793,,3.085056579475001e-07,48.829,0.5540000200271606,-2.3925786837756418
48.879310000000004,,2.48210186071061e-07,49.296,0.5669999718666077,-2.36424176730652
49.344828,,1.8442603930144415e-07,49.759,0.5849999785423279,-2.3250288339649
49.810345,,1.1722988913842282e-07,50.223,0.5709999799728394,-2.355549214927989
50.275862,,4.6713879359555734e-08,50.685,0.5839999914169312,-2.327261767513513
50.741379,,2.7014034188086393e-08,51.156,0.5540000200271606,-2.3926709615435398
51.206897,,1.038297854787029e-07,51.619,0.5540000200271606,-2.392734559515304
51.672414,,1.8359294474374859e-07,52.085,0.5929999947547913,-2.3078422128189793
52.137931,,2.6614651228068256e-07,52.548,0.5720000267028809,-2.353676205261334
52.603448,,3.513167624153127e-07,53.014,0.5789999961853027,-2.338512587074283
53.068966,,4.389131403399076e-07,53.478,0.4729999899864197,-2.5695396716680254
53.534483,,5.287282144783559e-07,53.943,0.609000027179718,-2.273334916376251
54.0,,6.20537686946244e-07,54.408,0.5860000252723694,-2.3235307487033157
54.465517,,7.141004645775664e-07,54.874,0.5460000038146973,-2.4107547368842144
54.931034,,8.091587928806597e-07,55.342,0.5669999718666077,-2.3650708249838184
55.396552,,9.05438455163693e-07,55.8,0.5630000233650208,-2.3738401089474883
55.862069,,1.002649038934532e-06,56.27,0.597000002861023,-2.2998050231553
56.327586,,1.1004842715309106e-06,56.732,0.5879999995231628,-2.3194333877093753
56.793102999999995,,1.1986224267745776e-06,57.201,0.5860000252723694,-2.323791604111568
57.258621000000005,,1.2967268042673967e-06,57.663,0.6150000095367432,-2.2605918442270374
57.724138,,1.3944462827583595e-06,58.13,0.5669999718666077,-2.365128703465192
58.189655,,1.4914159488081737e-06,58.593,0.5630000233650208,-2.373788132438515
58.655172,,1.587257801762697e-06,59.059,0.6010000109672546,-2.2909301501632124
59.120689999999996,,1.681581535818178e-06,59.522,0.5789999961853027,-2.3387784943295102
59.586207,,1.773985399720319e-06,59.987,0.5630000233650208,-2.3735457045298642
60.051724,,1.8640571343858769e-06,60.453,0.5490000247955322,-2.4039512261216016
60.517241,,1.95137498847027e-06,60.919,0.574999988079071,-2.3472103387030976
60.982758999999994,,2.0355088116278514e-06,61.386,0.6000000238418579,-2.292649837682139
61.448276,,2.1160212249236556e-06,61.851,0.5759999752044678,-2.3448477972603365
61.913793,,2.1924688675570762e-06,62.316,0.5669999718666077,-2.3643743960007817
62.379310000000004,,2.264403718749687e-06,62.782,0.5789999961853027,-2.33816146766325
62.84482800000001,,2.3313744933319572e-06,63.245,0.5709999799728394,-2.355536346279036
63.310345000000005,,2.3929281092376522e-06,63.707,0.5799999833106995,-2.3358909565000876
63.775862000000004,,2.448611224781047e-06,64.175,0.5979999899864197,-2.29665557316455
64.241379,,2.4979718432516193e-06,64.637,0.5920000076293945,-2.3097258133061325
64.706897,,2.5405609820144783e-06,65.108,0.5989999771118164,-2.29449185147581
65.172414,,2.5759344029534544e-06,65.57,0.550000011920929,-2.4012806833750493
65.637931,,2.6036544007385063e-06,66.036,0.5669999718666077,-2.364297796637449
66.103448,,2.623291645041084e-06,66.5,0.5839999914169312,-2.3273319918019864
66.56896599999999,,2.6344270724613967e-06,66.966,0.5540000200271606,-2.3927771110117884
67.03448300000001,,2.636653823571403e-06,67.426,0.6340000033378601,-2.2185816938215703
67.5,,2.6295792201180453e-06,67.892,0.5669999718666077,-2.3646539694866884
67.965517,,2.6128267770741046e-06,68.357,0.5490000247955322,-2.403976193566235
68.431034,,2.586038243870405e-06,68.822,0.6019999980926514,-2.2886155590596076
68.896552,,2.548875668794382e-06,69.285,0.5699999928474426,-2.358436152666904
69.362069,,2.5010234801976927e-06,69.755,0.6000000238418579,-2.2931723067617993
69.827586,,2.4421905778210766e-06,70.219,0.5659999847412109,-2.3673305721091973
70.293103,,2.3721124272196238e-06,70.681,0.5849999785423279,-2.32600589138151
70.75862099999999,,2.29055314995751e-06,71.145,0.5789999961853027,-2.339130203109621
71.22413800000001,,2.1973076019397437e-06,71.615,0.5669999718666077,-2.365307218079704
71.689655,,2.092203431961117e-06,72.08,0.5669999718666077,-2.365320122608635
72.15517200000001,,1.9751031122810386e-06,72.543,0.5699999928474426,-2.3587760696967384
72.62069,,1.8459059327788628e-06,73.009,0.5830000042915344,-2.330424069515046
73.086207,,1.704549950009413e-06,73.474,0.5809999704360962,-2.334730516882431
73.551724,,1.5510138822642495e-06,73.94,0.47600001096725464,-2.563419432189706
74.017241,,1.3853189415525544e-06,74.405,0.5669999718666077,-2.3650792673517174
74.482759,,1.2075305932479392e-06,74.87,0.5839999914169312,-2.3279456746993152
74.94827599999999,,1.0177602340056416e-06,75.33,0.5709999799728394,-2.3561590741036436
75.41379300000001,,8.161667784401193e-07,75.795,0.5789999961853027,-2.3386116338030516
75.87931,,6.029581449675166e-07,76.263,0.5669999718666077,-2.3646320806700625
76.344828,,3.783926311624869e-07,76.725,0.5419999957084656,-2.418974504655855
76.810345,,1.4278016895585136e-07,77.193,0.5669999718666077,-2.3643890575993893
77.275862,,1.0351654998992259e-07,77.655,0.5849999785423279,-2.3250618403027516
77.741379,,3.600810883450542e-07,78.123,0.527999997138977,-2.4491448561671696
78.206897,,6.26442426152596e-07,78.585,0.6029999852180481,-2.285661780335791
78.67241399999999,,9.020742822612555e-07,79.051,0.5419999957084656,-2.4184930242720966
79.137931,,1.1863946034099049e-06,79.516,0.5509999990463257,-2.3988402140493954
79.603448,,1.4787652300251232e-06,79.981,0.5820000171661377,-2.331280613382161
80.068966,,1.778491747554617e-06,80.448,0.5979999899864197,-2.296423916252601
80.53448300000001,,2.084823531879123e-06,80.913,0.5799999833106995,-2.335663926185109
81.0,,2.396953997022596e-06,81.379,0.574999988079071,-2.346604374500572
81.465517,,2.714021053014466e-06,81.845,0.5540000200271606,-2.3924260005866778
81.931034,,3.0351077813479003e-06,82.305,0.5730000138282776,-2.351123375180019
82.396552,,3.3592433350239542e-06,82.77,0.5680000185966492,-2.3621272223629166
82.86206899999999,,3.685404069672913e-06,83.241,0.5690000057220459,-2.360074764849829
83.327586,,4.012514911700877e-06,83.703,0.5809999704360962,-2.334068845418879
83.79310299999999,,4.339450968821736e-06,84.167,0.5540000200271606,-2.39303751999858
84.258621,,4.6650393877022505e-06,84.637,0.5889999866485596,-2.31693317261133
84.72413800000001,,4.988061462771425e-06,85.095,0.5669999718666077,-2.3650097145645734
85.189655,,5.3072549995251095e-06,85.566,0.6060000061988831,-2.2801811537199144
85.65517200000001,,5.621316934893596e-06,86.025,0.5989999771118164,-2.295557701077933
86.12069,,5.928906216434633e-06,86.49,0.6010000109672546,-2.2913086549397663
86.586207,,6.228646941267949e-06,86.955,0.5669999718666077,-2.3654705468080257
87.051724,,6.519131754781179e-06,87.423,0.5699999928474426,-2.358999822717307
87.517241,,6.798925508212542e-06,87.888,0.5759999752044678,-2.345968795491855
87.98275899999999,,7.066569173254293e-06,88.353,0.5699999928474426,-2.35905520604669
88.448276,,7.320584010824831e-06,88.819,0.5410000085830688,-2.4222240524494203
88.913793,,7.559475990128256e-06,89.282,0.5699999928474426,-2.3590053781675664
89.37931,,7.78174045306051e-06,89.751,0.5669999718666077,-2.365477755896578
89.844828,,7.985867017933467e-06,90.215,0.6169999837875366,-2.256456031521761
90.310345,,8.170344715375019e-06,90.677,0.5830000042915344,-2.330416349070111
90.775862,,8.333667348127344e-06,91.141,0.5630000233650208,-2.3738549922067405
91.241379,,8.474339065310012e-06,91.611,0.5680000185966492,-2.362812060577992
91.706897,,8.590880140542891e-06,92.076,0.5879999995231628,-2.3190782808277293
92.17241399999999,,8.681832942139263e-06,92.539,0.5759999752044678,-2.3450543889606155
92.63793100000001,,8.745768082385934e-06,93.005,0.574999988079071,-2.347063631895738
93.103448,,8.781290731728095e-06,93.47,0.6100000143051147,-2.2706447446758444
93.568966,,8.78704708247666e-06,93.935,0.574999988079071,-2.3467393617591283
94.03448300000001,,8.761730945458548e-06,94.401,0.5540000200271606,-2.3923469259617987
94.5,,8.704090461840645e-06,94.867,0.5669999718666077,-2.3639007601415303
94.965517,,8.612934911180345e-06,95.326,0.5899999737739563,-2.3136918581751043
95.431034,,8.487141595594486e-06,95.792,0.5669999718666077,-2.3637275358048733
95.896552,,8.325662778798882e-06,96.259,0.5669999718666077,-2.3636841383719127
96.36206899999999,,8.127532657657562e-06,96.722,0.5879999995231628,-2.3179207616336455
96.827586,,7.89187434279941e-06,97.185,0.593999981880188,-2.3048688751875552
97.293103,,7.617906823815295e-06,97.655,0.5799999833106995,-2.3354210953212324
97.758621,,7.304951893546404e-06,98.119,0.5709999799728394,-2.3551107283254966
98.224138,,6.9524410050196115e-06,98.581,0.5789999961853027,-2.3377923113576093
98.689655,,6.559922033683978e-06,99.047,0.5799999833106995,-2.335750364962481
99.155172,,6.127065916759143e-06,99.512,0.5630000233650208,-2.3729461029035903
99.62069,,5.653673140727209e-06,99.977,0.5979999899864197,-2.296869676480253
100.086207,,5.139680047290076e-06,100.444,0.5709999799728394,-2.3558811400312982
100.551724,,4.585164927479798e-06,100.91,0.5720000267028809,-2.3538966254315032
101.017241,,3.9903538730557015e-06,101.374,0.5669999718666077,-2.36498512694711
101.482759,,3.3556263538543487e-06,101.84,0.5709999799728394,-2.3564605222836006
101.948276,,2.68152048938225e-06,102.304,0.5680000185966492,-2.363175202610929
102.413793,,1.968737982661876e-06,102.771,0.5839999914169312,-2.328478413863955
102.87931,,1.2181486841640866e-06,103.233,0.5929999947547913,-2.309008744574155
103.344828,,4.3079475358973165e-07,103.696,0.5669999718666077,-2.3657636448393538
103.810345,,3.921056126953575e-07,104.164,0.550000011920929,-2.4028796073207745
104.275862,,1.2491549206096865e-06,104.627,0.574999988079071,-2.3484591736470093
104.741379,,2.1387736154483395e-06,105.092,0.6000000238418579,-2.2940022692472137
105.206897,,3.0591978484723747e-06,105.555,0.5659999847412109,-2.3680478511602883
105.672414,,4.0084778038159865e-06,106.02,0.5699999928474426,-2.359267735345701
106.13793100000001,,4.984476615865489e-06,106.485,0.550000011920929,-2.4027406114569096
106.603448,,5.984869906461332e-06,106.95,0.5529999732971191,-2.396073317124233
107.068966,,7.007145970332211e-06,107.416,0.6629999876022339,-2.1562608571666546
107.534483,,8.04860663608619e-06,107.881,0.5870000123977661,-2.3216493806797427
108.0,,9.106368828855336e-06,108.346,0.5789999961853027,-2.3388686346082914
108.46551699999999,,1.0177366859315918e-05,108.811,0.5669999718666077,-2.3647896551607577
108.931034,,1.1258355462284127e-05,109.281,0.5889999866485596,-2.3166307786317986
109.396552,,1.2345913606416903e-05,109.744,0.5920000076293945,-2.309867030941668
109.862069,,1.3436449094727965e-05,110.211,0.5929999947547913,-2.307468206003497
110.32758600000001,,1.4526203973660949e-05,110.674,0.5540000200271606,-2.392230624102806
110.793103,,1.561126076634491e-05,111.137,0.546999990940094,-2.407300096370097
111.258621,,1.6687549543393814e-05,111.6,0.5680000185966492,-2.361397659772742
111.724138,,1.7750855842202508e-05,112.065,0.5690000057220459,-2.3591031614366673
112.189655,,1.8796829443139315e-05,112.532,0.5820000171661377,-2.3307030813025245
112.655172,,1.9820994008342914e-05,112.998,0.5339999794960022,-2.435242258887385
113.12069,,2.081875758600198e-05,113.466,0.5669999718666077,-2.363354853130079
113.586207,,2.1785423980034324e-05,113.925,0.5849999785423279,-2.324190721434278
114.051724,,2.271620498199314e-05,114.396,0.5540000200271606,-2.3918219520173163
114.51724100000001,,2.3606233458816085e-05,114.855,0.550000011920929,-2.400669719018705
114.982759,,2.4450577286705528e-05,115.32,0.5249999761581421,-2.455306453386017
115.448276,,2.524425411799167e-05,115.785,0.5920000076293945,-2.309539188423985
115.913793,,2.598224696429179e-05,116.255,0.5669999718666077,-2.3642318515658527
116.37931,,2.6659520575647124e-05,116.717,0.5669999718666077,-2.364474865483539
116.84482799999999,,2.7271038591602702e-05,117.186,0.6010000109672546,-2.290652561140641
117.310345,,2.7811781436404288e-05,117.648,0.5860000252723694,-2.323584000760071
117.77586199999999,,2.8276764926630793e-05,118.111,0.5540000200271606,-2.393544931518397
118.241379,,2.8661059555671103e-05,118.581,0.5699999928474426,-2.358916553638102
118.70689700000001,,2.8959810415502594e-05,119.04,0.6169999837875366,-2.2567275457223714
119.172414,,2.916825771224749e-05,119.505,0.5699999928474426,-2.3593011678684968
119.63793100000001,,2.9281757827984905e-05,119.971,0.6039999723434448,-2.2853683934132394
120.103448,,2.9295804877294906e-05,120.438,0.5759999752044678,-2.3464714574238386
120.568966,,2.9206052703020013e-05,120.904,0.6010000109672546,-2.292062277526727
121.034483,,2.9008337251764093e-05,121.371,0.5950000286102295,-2.3051452504321928
121.5,,2.8698699265723974e-05,121.836,0.5709999799728394,-2.3573977694215227
121.96551699999999,,2.8273407223580796e-05,122.297,0.5820000171661377,-2.333352900187097
122.431034,,2.772898045938227e-05,122.767,0.5740000009536743,-2.350660600338584
122.896552,,2.706221238464081e-05,123.23,0.5690000057220459,-2.361394339754728
123.362069,,2.627019373527221e-05,123.693,0.5879999995231628,-2.3198074581594272
123.827586,,2.5350335761523588e-05,124.156,0.5849999785423279,-2.326123235663929
124.293103,,2.430039327570448e-05,124.626,0.652999997138977,-2.177732523993733
124.758621,,2.3118487469359855e-05,125.091,0.5669999718666077,-2.3648383388845926
125.22413800000001,,2.1803128408526462e-05,125.554,0.5789999961853027,-2.338430802069147
125.68965500000002,,2.035323711291254e-05,126.02,0.5860000252723694,-2.3229203461822086
126.15517200000001,,1.8768167122254434e-05,126.485,0.5929999947547913,-2.3074215761338515
126.62069000000001,,1.7047725450749865e-05,126.951,0.5759999752044678,-2.3442298308615936
127.086207,,1.5192192828365642e-05,127.411,0.6000000238418579,-2.291740234807956
127.55172400000001,,1.3202343125985377e-05,127.877,0.5669999718666077,-2.3634673784578752
128.017241,,1.1079461859818753e-05,128.341,0.5680000185966492,-2.3611600234134342
128.48275900000002,,8.825363669255896e-06,128.806,0.5709999799728394,-2.35454010585813
128.948276,,6.442408661436085e-06,129.274,0.5699999928474426,-2.3566819033934925
129.413793,,3.9335175152267505e-06,129.737,0.5540000200271606,-2.39155217976299
129.87931,,1.3021852370931426e-06,130.2,0.5789999961853027,-2.3371465400108695
130.344828,,1.4475065385025837e-06,130.67,0.5619999766349792,-2.3742905135040964
130.81034499999998,,4.310878810986046e-06,131.133,0.5879999995231628,-2.3177950845254394
131.275862,,7.2826461436997735e-06,131.596,0.5830000042915344,-2.3288750574698995
131.741379,,1.035690936656636e-05,132.062,0.5720000267028809,-2.353058025805166
132.206897,,1.3527150154072293e-05,132.526,0.5649999976158142,-2.3685512827373625
132.67241399999997,,1.6786227579012135e-05,132.991,0.5809999704360962,-2.3339527361462493
133.13793099999998,,2.0126376739730504e-05,133.456,0.5860000252723694,-2.323327349301231
133.60344800000001,,2.353920955543156e-05,133.921,0.5910000205039978,-2.31270106880573
134.06896600000002,,2.7015717820483942e-05,134.389,0.5910000205039978,-2.3129581264310963
134.53448300000002,,3.0546278604525655e-05,134.855,0.5669999718666077,-2.3654850745820215
135.0,,3.4120662080561876e-05,135.32,0.5960000157356262,-2.302518298386723
135.465517,,3.7728041858144665e-05,135.785,0.5680000185966492,-2.3637025295543617
135.931034,,4.135700789312379e-05,136.248,0.5649999976158142,-2.3703832220862564
136.396552,,4.499558203936081e-05,136.711,0.5789999961853027,-2.339985202734493
136.862069,,4.863123630120485e-05,137.179,0.5720000267028809,-2.355293445255557
137.327586,,5.2250913838439046e-05,137.642,0.6039999723434448,-2.2855867575340993
137.793103,,5.584105276782637e-05,138.112,0.5529999732971191,-2.396659570806475
138.258621,,5.938761279731761e-05,138.574,0.5270000100135803,-2.4532207980231355
138.724138,,6.28761047204406e-05,139.039,0.6019999980926514,-2.2896964108936095
139.189655,,6.629162278937779e-05,139.504,0.5929999947547913,-2.309138153989752
139.655172,,6.961887997577057e-05,139.97,0.5839999914169312,-2.3285438261078033
140.12069,,7.284224611837815e-05,140.43,0.5529999732971191,-2.3958512332214523
140.586207,,7.59457889463822e-05,140.895,0.5789999961853027,-2.3389551415339414
141.05172399999998,,7.891331795638249e-05,141.367,0.5839999914169312,-2.3277978400367165
141.51724099999998,,8.172843110999692e-05,141.825,0.5720000267028809,-2.3536725418899347
141.982759,,8.437456430748078e-05,142.293,0.5540000200271606,-2.3926235609665087
142.44827600000002,,8.683504358094456e-05,142.756,0.5649999976158142,-2.368407259862699
142.913793,,8.909313993859895e-05,143.226,0.6169999837875366,-2.254886758699876
143.37931,,9.113212677902468e-05,143.689,0.5509999990463257,-2.398473700038099
143.844828,,9.293533978178145e-05,144.152,0.5770000219345093,-2.341659354547526
144.310345,,9.44862391677711e-05,144.615,0.5699999928474426,-2.3567808685408664
144.77586200000002,,9.576847420969088e-05,145.081,0.5730000138282776,-2.3501600062444252
145.241379,,9.67659498596912e-05,145.55,0.5789999961853027,-2.3370501909158015
145.706897,,9.746289534803047e-05,146.016,0.5669999718666077,-2.3632042199800973
146.172414,,9.784393459313963e-05,146.482,0.6039999723434448,-2.282651931233489
146.637931,,9.789415825011589e-05,146.94,0.5929999947547913,-2.30671961308742
147.103448,,9.759919721130624e-05,147.408,0.5879999995231628,-2.3177569717428135
147.568966,,9.694529735936489e-05,147.874,0.5770000219345093,-2.3419038983987686
148.034483,,9.591939536002438e-05,148.337,0.5789999961853027,-2.337761061841452
148.5,,9.450919526886258e-05,148.803,0.628000020980835,-2.2312467430640877
148.965517,,9.270324571362833e-05,149.271,0.5879999995231628,-2.3186488958886775
149.43103399999998,,9.049101740126447e-05,149.733,0.6169999837875366,-2.2557329412274227
149.89655199999999,,8.78629806866924e-05,150.196,0.5640000104904175,-2.371467316585559
150.362069,,8.481068292875769e-05,150.666,0.5709999799728394,-2.356477147929032
150.82758600000003,,8.132682534753881e-05,151.127,0.5789999961853027,-2.3392950254107117
151.293103,,7.740533908655032e-05,151.596,0.5669999718666077,-2.3656648540348275
151.758621,,7.304146017328929e-05,152.055,0.5419999957084656,-2.420329551508729
152.224138,,6.823180306213745e-05,152.526,0.5680000185966492,-2.363850017664577
152.68965500000002,,6.297443243490682e-05,152.992,0.5690000057220459,-2.361797762949053
153.155172,,5.726893292635999e-05,153.456,0.5950000286102295,-2.3052349258114306
153.62069,,5.111647643491162e-05,153.915,0.5839999914169312,-2.3292342986722505
154.086207,,4.451988667248521e-05,154.381,0.5799999833106995,-2.337933733529333
154.551724,,3.7483700602217774e-05,154.847,0.5789999961853027,-2.3400483823786367
155.017241,,3.0014226408434895e-05,155.311,0.5929999947547913,-2.309436079828952
155.482759,,2.2119597640117627e-05,155.777,0.5839999914169312,-2.3288883305081773
155.948276,,1.3809823167007344e-05,156.245,0.6000000238418579,-2.293834289162193
156.413793,,5.096832586600081e-06,156.707,0.5789999961853027,-2.3393563083527944
156.87931,,4.005483279378091e-06,157.175,0.5740000009536743,-2.349993410386162
157.34482799999998,,1.3481237158798152e-05,157.637,0.5649999976158142,-2.3693273447541046
157.81034499999998,,2.3312515730081924e-05,158.103,0.6060000061988831,-2.2797191883815566
158.275862,,3.347935600276754e-05,158.566,0.5540000200271606,-2.3927242606231687
158.741379,,4.395972802440899e-05,159.032,0.5540000200271606,-2.3924485815807395
159.20689700000003,,5.472952425330691e-05,159.5,0.5759999752044678,-2.3442609342612544
159.672414,,6.576255592784304e-05,159.966,0.5709999799728394,-2.354922306105079
160.137931,,7.703055675293492e-05,160.43,0.5680000185966492,-2.361259061439188
160.60344800000001,,8.850319421231077e-05,160.896,0.5920000076293945,-2.3088112319488996
161.06896600000002,,0.00010014808880190478,161.36,0.6010000109672546,-2.2890860748762685
161.534483,,0.00011193084146466967,161.826,0.5649999976158142,-2.3674468678536624
162.0,,0.00012381506949048278,162.289,0.5789999961853027,-2.3369252204452207
162.465517,,0.00013576245112657484,162.751,0.5540000200271606,-2.391422389016174
162.931034,,0.0001477327791240319,163.219,0.5680000185966492,-2.3610035206358098
163.396552,,0.00015968402342441635,163.681,0.5979999899864197,-2.295774573871829
163.862069,,0.0001715724031674253,164.149,0.5830000042915344,-2.3286280118168934
164.327586,,0.00018335246817577228,164.612,0.6449999809265137,-2.1937624176692303
164.793103,,0.00019497719004715953,165.077,0.5730000138282776,-2.3508655428900243
165.258621,,0.0002063980629553305,165.54,0.5879999995231628,-2.318450156658117
165.72413799999998,,0.00021756521423279025,166.006,0.5649999976158142,-2.3688405311859873
166.189655,,0.0002284275247768944,166.47,0.5730000138282776,-2.351701745694238
166.655172,,0.00023893275928868517,166.936,0.5799999833106995,-2.3367418344749895
167.12069,,0.0002490277063201489,167.401,0.5809999704360962,-2.334844520561107
167.58620699999997,,0.00025865832807054555,167.867,0.578000009059906,-2.341643596116469
168.051724,,0.00026776991983618975,168.334,0.574999988079071,-2.348416639110644
168.517241,,0.0002763072789806181,168.799,0.6000000238418579,-2.294153457334836
168.98275900000002,,0.00028421488325354693,169.26,0.5879999995231628,-2.3204593987456397
169.44827600000002,,0.00029143707824750247,169.729,0.5730000138282776,-2.353255232660902
169.913793,,0.0002979182737405849,170.196,0.5669999718666077,-2.36639446967895
170.37931,,0.00030360314863261804,170.659,0.5860000252723694,-2.325016211957139
170.844828,,0.000308436864140055,171.127,0.593999981880188,-2.3075507178680783
171.310345,,0.0003123652848725835,171.588,0.5839999914169312,-2.3292485731602004
171.775862,,0.0003153352073715356,172.054,0.4959999918937683,-2.5208331969292472
172.241379,,0.0003172945956470717,172.519,0.5630000233650208,-2.374685363604325
172.706897,,0.00031819282320781243,172.984,0.5630000233650208,-2.3744696003261905
173.172414,,0.000317980921033311,173.449,0.5759999752044678,-2.3458987397875
173.637931,,0.0003166118308966853,173.915,0.6060000061988831,-2.2802641120659044
174.103448,,0.00031404066340201043,174.382,0.5830000042915344,-2.3300785994031044
174.568966,,0.00031022496005877543,174.84,0.5699999928474426,-2.358096606357045
175.034483,,0.0003051249586739736,175.307,0.5669999718666077,-2.364328315627593
175.5,,0.000298703861301565,175.773,0.5709999799728394,-2.355319142291708
175.96551699999998,,0.0002909281039495183,176.241,0.5630000233650208,-2.37247249535726
176.43103399999998,,0.0002817676272064184,176.703,0.5720000267028809,-2.3526162772513266
176.896552,,0.0002711961469123383,177.167,0.5669999718666077,-2.3632962842397194
177.36206900000002,,0.0002591914239623991,177.63,0.5820000171661377,-2.330444539219984
177.827586,,0.00024573553229748627,178.096,0.574999988079071,-2.345569842696052
178.293103,,0.00023081512410623068,178.566,0.5830000042915344,-2.328065863061681
178.758621,,0.00021442169123441106,179.025,0.5929999947547913,-2.306257466204627
179.224138,,0.0001965518217692315,179.492,0.5960000157356262,-2.2997528575687287
179.68965500000002,,0.00017720745073686387,179.958,0.5649999976158142,-2.367375489148078
180.155172,,0.00015639610382947158,180.423,0.5830000042915344,-2.328296003560261
180.62069,,0.00013413113306805715,180.889,0.5540000200271606,-2.3916615284919582
181.086207,,0.0001104319432997741,181.356,0.5690000057220459,-2.359210338741474
181.551724,,8.532420840402108e-05,181.822,0.5669999718666077,-2.3638334388308846
182.01724099999998,,5.884007604697398e-05,182.282,0.5540000200271606,-2.3924509438114137
182.482759,,3.101835982326757e-05,182.745,0.5540000200271606,-2.3927672874901442
182.948276,,1.9047176789557874e-06,183.215,0.5860000252723694,-2.323378118352005
183.413793,,2.8448184450487374e-05,183.677,0.5680000185966492,-2.3629218622645496
183.87931,,5.9980524933244853e-05,184.141,0.5920000076293945,-2.3109523194303807
184.34482799999998,,9.262519594486214e-05,184.611,0.593999981880188,-2.3068926301879147
184.81034499999998,,0.00012630769138286874,185.077,0.5529999732971191,-2.396485347975559
185.27586200000002,,0.00016094601402357828,185.539,0.5860000252723694,-2.3248208967565884
185.74137900000002,,0.00019645060257925557,186.005,0.578000009059906,-2.3424365707815906
186.206897,,0.00023272427988236464,186.466,0.5979999899864197,-2.2989987257815305
186.672414,,0.0002696622241700169,186.932,0.6060000061988831,-2.2816480402435118
187.137931,,0.00030715196479416516,187.396,0.6010000109672546,-2.2925599699760673
187.60344800000001,,0.0003450734015466568,187.862,0.5630000233650208,-2.375307359618159
188.06896600000002,,0.00038329884631930664,188.326,0.5910000205039978,-2.314205989840675
188.534483,,0.00042169308973045484,188.792,0.6299999952316284,-2.2290833163380652
189.0,,0.00046011349931472537,189.26,0.5820000171661377,-2.3334502907025505
189.465517,,0.0004984101508626859,189.722,0.5860000252723694,-2.3244820468040923
189.931034,,0.0005364259822053544,190.189,0.550000011920929,-2.4026234540006994
190.39655199999999,,0.0005739969590823395,190.652,0.5680000185966492,-2.36309116016414
190.862069,,0.0006109522681175409,191.115,0.5789999961853027,-2.3387923075248844
191.327586,,0.0006471145712937782,191.585,0.5799999833106995,-2.3362721540595994
191.793103,,0.000682300319383044,192.051,0.597000002861023,-2.2988956292268856
192.25862099999998,,0.0007163200523063801,192.515,0.5759999752044678,-2.344320100015619
192.72413799999998,,0.0007489786347128724,192.98,0.5690000057220459,-2.3592662436052887
193.189655,,0.0007800755339312822,193.445,0.5630000233650208,-2.372066818464002
193.655172,,0.0008094053321738315,193.911,0.5540000200271606,-2.391445352245048
194.12069000000002,,0.0008367584055593222,194.371,0.5669999718666077,-2.362942962579351
194.586207,,0.0008619213212133433,194.837,0.5770000219345093,-2.34103062582692
195.051724,,0.0008846767325006093,195.309,0.5640000104904175,-2.3692851905562327
195.517241,,0.0009048035187680615,195.767,0.5730000138282776,-2.3496695249884416
195.98275900000002,,0.0009220782160790856,196.23,0.5929999947547913,-2.306148662265349
196.448276,,0.0009362770375378629,196.7,0.5669999718666077,-2.3629035921107198
196.913793,,0.00094717577018351,197.163,0.5830000042915344,-2.3282100516674173
197.37931,,0.0009545468246007697,197.625,0.46399998664855957,-2.587686321263541
197.844828,,0.0009581584362575086,198.091,0.5669999718666077,-2.3635501042034677
198.310345,,0.0009577814921464684,198.561,0.5709999799728394,-2.3551378581966875
198.775862,,0.0009531980669434522,199.027,0.5649999976158142,-2.3685384382355603
199.241379,,0.0009441956916177142,199.486,0.5730000138282776,-2.351454039040703
199.706897,,0.0009305467708002915,199.952,0.5889999866485596,-2.3169454214490814
200.172414,,0.0009120055326122077,200.418,0.5540000200271606,-2.3935416995440546
200.63793099999998,,0.0008883495394974388,200.884,0.5920000076293945,-2.3110802398967167
201.103448,,0.0008594207273210031,201.349,0.574999988079071,-2.3484174806306304
201.568966,,0.0008250744687768787,201.815,0.5899999737739563,-2.3160012902664113
202.034483,,0.0007850562635147526,202.278,0.5709999799728394,-2.3576145040845495
202.5,,0.000739009842128853,202.74,0.5910000205039978,-2.314209075569349
202.965517,,0.0006867389304782399,203.208,0.5799999833106995,-2.338285446164539
203.431034,,0.0006284011461821203,203.67,0.550000011920929,-2.403696825176994
203.896552,,0.0005641261727842908,204.141,0.5699999928474426,-2.360116168838138
204.36206900000002,,0.0004933142390060281,204.603,0.5759999752044678,-2.3469769993067926
204.827586,,0.00041486340507530296,205.069,0.5669999718666077,-2.3664597083223935
205.293103,,0.00032879511062703005,205.533,0.5759999752044678,-2.346672920787013
205.758621,,0.00023708522230129068,205.999,0.550000011920929,-2.403090930531595
206.224138,,0.0001409861151213665,206.463,0.5879999995231628,-2.3200348137739675
206.689655,,3.7183352687699906e-05,206.928,0.5540000200271606,-2.393808693622335
207.155172,,7.976197483526133e-05,207.394,0.5879999995231628,-2.319411053850965
207.62069,,0.00020756058933223012,207.859,0.5759999752044678,-2.3452174110880835
208.086207,,0.00033335616852231235,208.327,0.5789999961853027,-2.3383402281956753
208.551724,,0.0004517188716315863,208.785,0.5830000042915344,-2.3292912889902553
209.01724099999998,,0.0005848345378708068,209.253,0.5979999899864197,-2.296293955497767
209.482759,,0.000761608803461287,209.722,0.5540000200271606,-2.3918635331316422
209.948276,,0.0009594834570210993,210.185,0.5649999976158142,-2.3676443782405134
210.413793,,0.0011009905092470502,210.648,0.5730000138282776,-2.350006047586565
210.87930999999998,,0.0011706425796707807,211.112,0.5759999752044678,-2.3433119005267926
211.344828,,0.001315251804400744,211.581,0.5230000019073486,-2.45867834567261
211.810345,,0.0016835577579240707,212.047,0.5460000038146973,-2.408528427370887
212.27586200000002,,0.0020919499842488314,212.512,0.5540000200271606,-2.391120219090525
212.741379,,0.002087794214409738,212.97,0.5540000200271606,-2.391201625469251
213.206897,,0.0016892365912676663,213.437,0.5649999976158142,-2.367375172773094
213.672414,,0.0018511951114093613,213.903,0.550000011920929,-2.4002460352847077
214.137931,,0.0033173917355845224,214.367,0.5669999718666077,-2.363446573007125
214.60344800000001,,0.0046694982313302495,214.833,0.5540000200271606,-2.3920449637864927
215.068966,,0.0027516825916098523,215.296,0.5669999718666077,-2.3640283455653526
215.534483,,0.003683140715003617,215.766,0.5920000076293945,-2.3098869809572578
216.0,,0.011747047411115106,216.23,0.5540000200271606,-2.393009063638144
216.465517,,0.01754535338352205,216.692,0.5910000205039978,-2.312730779266946
216.93103399999998,,0.020567021225073846,217.156,0.5540000200271606,-2.3936605259116583
217.39655199999999,,0.02289794284483891,217.626,0.574999988079071,-2.3482070787745037
217.862069,,0.024880710160566227,218.091,0.5669999718666077,-2.3659037145182715
218.327586,,0.023848301220164788,218.555,0.5789999961853027,-2.3399880973415614
218.793103,,0.017168992950486062,219.02,0.5709999799728394,-2.357599347521063
219.25862099999998,,0.005151023761079993,219.481,0.6010000109672546,-2.292369748342957
219.724138,,0.0091779823286,219.947,0.5669999718666077,-2.366517737187891
220.18965500000002,,0.022499901957828985,220.411,0.5540000200271606,-2.3948568376487085
220.65517200000002,,0.0334052162411539,220.877,0.5669999718666077,-2.366494974815286
221.12069,,0.04240234557326053,221.345,0.5669999718666077,-2.366400538075713
221.586207,,0.049743216351294674,221.811,0.5699999928474426,-2.359718210227806
222.051724,,0.053680089406586175,222.271,0.5889999866485596,-2.3181300873254256
222.517241,,0.05167488847768287,222.74,0.6000000238418579,-2.2939289788129438
222.98275900000002,,0.043382277715110475,223.201,0.5529999732971191,-2.396055401011678
223.448276,,0.03171477510535404,223.67,0.5799999833106995,-2.3369370839390307
223.913793,,0.020660031162674928,224.134,0.5699999928474426,-2.3584136980966828
224.37931,,0.01241184332344571,224.596,0.5540000200271606,-2.392957065914277
224.844828,,0.006627014113239452,225.062,0.5849999785423279,-2.325109074717298
225.31034499999998,,0.0017254151417011164,225.526,0.6019999980926514,-2.2877755346273165
225.775862,,0.003573394472483383,225.991,0.5759999752044678,-2.3441459666103888
226.241379,,0.009472407816934465,226.455,0.6039999723434448,-2.2828998745608744
226.706897,,0.015032169489271708,226.921,0.5680000185966492,-2.3611254233360235
227.172414,,0.018771851362940614,227.385,0.5929999947547913,-2.3064983617287758
227.63793099999998,,0.01980036265610537,227.851,0.5509999990463257,-2.3978909590581354
228.103448,,0.018648716412135783,228.317,0.5009999871253967,-2.5067682886231366
228.56896600000002,,0.016887463661960138,228.783,0.5839999914169312,-2.3259432577919346
229.03448300000002,,0.01577277787460491,229.245,0.5839999914169312,-2.3260014728878295
229.5,,0.015301203304834653,229.714,0.550000011920929,-2.4001858722538483
229.965517,,0.014650143069905548,230.178,0.5540000200271606,-2.391631064897177
230.431034,,0.013422145805148335,230.64,0.550000011920929,-2.4005500062880443
230.896552,,0.01227714353576992,231.108,0.5830000042915344,-2.3288960115536868
231.362069,,0.01234541955917186,231.571,0.5950000286102295,-2.3030212445997114
231.827586,,0.01417923224503312,232.036,0.5799999833106995,-2.3359881945954495
232.293103,,0.0173850301516505,232.501,0.5950000286102295,-2.3036042537940253
232.758621,,0.02119351378524109,232.966,0.5289999842643738,-2.4476913565822906
233.224138,,0.025210322785413502,233.433,0.6019999980926514,-2.2889377723649713
233.689655,,0.02962799218661848,233.899,0.578000009059906,-2.341494738681443
234.155172,,0.03490356933839486,234.364,0.5659999847412109,-2.3678809199174444
234.62069,,0.04117758641246703,234.829,0.574999988079071,-2.348481616582965
235.086207,,0.0476120234542145,235.292,0.5849999785423279,-2.326863291894093
235.55172399999998,,0.05205213914364253,235.756,0.6079999804496765,-2.2768761648366356
236.01724099999998,,0.0515592945392366,236.226,0.5540000200271606,-2.39459515420162
236.482759,,0.04376248125223209,236.689,0.531000018119812,-2.444726556815893
236.94827600000002,,0.02819976666091167,237.152,0.5669999718666077,-2.3662691860939127
237.413793,,0.006754256036970215,237.615,0.5659999847412109,-2.3683735236532026
237.87931,,0.017094618255897472,238.08,0.5490000247955322,-2.405290446824487
238.344828,,0.03964248474719201,238.55,0.4729999899864197,-2.570708326718463
238.810345,,0.05788711930073912,239.015,0.5879999995231628,-2.3199708975913937
239.27586200000002,,0.0696212569762215,239.475,0.5979999899864197,-2.2979616091746604
239.741379,,0.07364623915318225,239.941,0.5759999752044678,-2.345644012089608
240.206897,,0.0706569495941146,240.408,0.578000009059906,-2.341022101651142
240.672414,,0.06328054845281707,240.873,0.5720000267028809,-2.353821621336265
241.137931,,0.054073779540458826,241.338,0.5770000219345093,-2.3426569348999475
241.603448,,0.04357383429095324,241.804,0.5540000200271606,-2.3925041912994747
242.068966,,0.031127851762930047,242.267,0.6100000143051147,-2.2702558342700856
242.534483,,0.017299432034204316,242.736,0.5709999799728394,-2.3550035399507117
243.0,,0.004367676300660482,243.197,0.5789999961853027,-2.337386023329806
243.465517,,0.005589465225162464,243.667,0.5540000200271606,-2.391702033793089
243.93103399999998,,0.012264572833213284,244.13,0.5640000104904175,-2.3698087002972956
244.39655199999999,,0.016645482054986685,244.592,0.5730000138282776,-2.350140403577419
244.862069,,0.01970772510989263,245.058,0.5180000066757202,-2.469954285577917
245.327586,,0.021911187714681427,245.522,0.574999988079071,-2.3458090134203373
245.793103,,0.023367389833253115,245.988,0.5849999785423279,-2.3241069743853853
246.258621,,0.02384775908295832,246.453,0.5720000267028809,-2.3525562922548944
246.724138,,0.02280441209458566,246.918,0.5669999718666077,-2.3636152793291
247.18965500000002,,0.019871585842469983,247.386,0.5929999947547913,-2.307169063514495
247.655172,,0.01543029552344733,247.851,0.5839999914169312,-2.327001519779187
248.12069,,0.010658589487587628,248.315,0.5830000042915344,-2.3294232670272494
248.586207,,0.007071825623881325,248.781,0.5630000233650208,-2.373250685992871
249.051724,,0.0056505775132841985,249.244,0.5730000138282776,-2.3517225727989253
249.517241,,0.005900301779889486,249.707,0.5839999914169312,-2.328011392806277
249.982759,,0.005954575720760157,250.175,0.5699999928474426,-2.358753676835626
250.44827600000002,,0.004320051680707815,250.637,0.5709999799728394,-2.356796360495521
250.913793,,0.001673120901000067,251.108,0.5770000219345093,-2.3439190917983894
251.37931000000003,,0.00024686589856744926,251.57,0.5699999928474426,-2.3593317867265857
251.844828,,0.0010136633694233686,252.036,0.5879999995231628,-2.320240482723999
252.31034499999998,,0.002192821245104322,252.5,0.546999990940094,-2.4096483961547017
252.77586200000002,,0.0013867438168630234,252.966,0.5960000157356262,-2.3029346210920156
253.241379,,0.0013568735558532612,253.431,0.5910000205039978,-2.3138228108739605
253.706897,,0.0036414123439657757,253.897,0.6060000061988831,-2.281092370827344
254.172414,,0.0035455135450515886,254.356,0.5630000233650208,-2.3746801044857087
254.63793099999998,,0.0015179013291589868,254.821,0.5690000057220459,-2.361475225368637
255.10344800000001,,0.0002370787553747852,255.285,0.5730000138282776,-2.3525937402379737
255.56896600000002,,0.00023417074887021762,255.755,0.5680000185966492,-2.3632916288574437
256.03448299999997,,0.002817726363775546,256.215,0.5699999928474426,-2.3587170195803333
256.5,,0.0053156876369003314,256.685,0.574999988079071,-2.347591335683802
256.965517,,0.005704333244500055,257.148,0.5690000057220459,-2.3604229743988316
257.431034,,0.004207009640126104,257.611,0.5960000157356262,-2.301358664969257
257.896552,,0.0024418837708666246,258.077,0.5709999799728394,-2.3555908129341074
258.362069,,0.0009905927990121546,258.547,0.5730000138282776,-2.3510135864724964
258.827586,,0.0009561067487111061,259.005,0.5669999718666077,-2.363887346384414
259.29310300000003,,0.003563566544255233,259.47,0.5680000185966492,-2.3615382381734378
259.758621,,0.00529413664924117,259.936,0.5709999799728394,-2.3548650416807484
260.224138,,0.004526433440237941,260.401,0.550000011920929,-2.4005165995693845
260.689655,,0.0014916475141043555,260.867,0.5950000286102295,-2.3024173676309
261.155172,,0.002023033857785848,261.334,0.5659999847412109,-2.3655791035375175
261.62068999999997,,0.004405265423829743,261.8,0.5720000267028809,-2.3525290723416066
262.086207,,0.0052264889495805215,262.263,0.5789999961853027,-2.3373408053485987
262.551724,,0.00521875285545626,262.725,0.5889999866485596,-2.3156539064586905
263.017241,,0.005908183519380112,263.193,0.550000011920929,-2.400754853171406
263.482759,,0.008613014247242761,263.655,0.5659999847412109,-2.3660607719508935
263.94827599999996,,0.012786541823882452,264.123,0.5820000171661377,-2.331391502136355
264.413793,,0.015599738688849741,264.586,0.578000009059906,-2.3403132154772326
264.87931,,0.014310969133326827,265.052,0.5830000042915344,-2.3296380343553276
265.34482799999995,,0.009394180159234959,265.518,0.5669999718666077,-2.364718708725761
265.810345,,0.004533702399402296,265.984,0.5669999718666077,-2.364938550274922
266.27586199999996,,0.0030587136245092306,266.448,0.5659999847412109,-2.36732805035611
266.741379,,0.004922971661297607,266.914,0.5730000138282776,-2.352272691026268
267.206897,,0.007409153046695108,267.379,0.5669999718666077,-2.3655181328466273
267.672414,,0.007887778220430085,267.844,0.5950000286102295,-2.304661765517481
268.137931,,0.005411096366965305,268.311,0.5540000200271606,-2.39410027598452
268.603448,,0.0006883531136307007,268.77,0.5540000200271606,-2.3941797842631107
269.06896600000005,,0.004474508798517405,269.238,0.5659999847412109,-2.3680795434877115
269.53448299999997,,0.008188937876748612,269.7,0.5920000076293945,-2.311440034627832
270.0,,0.00977485189067493,270.17,0.5910000205039978,-2.3135849746067487
270.465517,,0.01004273471413001,270.633,0.5720000267028809,-2.354907812162895
270.931034,,0.010166646677197506,271.099,0.5540000200271606,-2.3940179005308933
271.396552,,0.01058623292795418,271.565,0.550000011920929,-2.402597549292909
271.86206899999996,,0.011069942542847346,272.031,0.5789999961853027,-2.339256923804162
272.327586,,0.011289170727564772,272.496,0.5659999847412109,-2.367399190241156
272.793103,,0.010851917331783052,272.955,0.5799999833106995,-2.3367030804010893
273.258621,,0.009077210545193204,273.426,0.5630000233650208,-2.3735365020099066
273.724138,,0.0055183605417570385,273.891,0.5830000042915344,-2.3297580299569995
274.18965499999996,,0.0009974261200993858,274.356,0.5649999976158142,-2.368772625155219
274.655172,,0.0023996307033127486,274.815,0.5669999718666077,-2.3642252913131534
275.12069,,0.002978351645698581,275.285,0.5889999866485596,-2.3161216772280295
275.586207,,0.0012454213744241343,275.748,0.5540000200271606,-2.392222967104781
276.051724,,0.00018666425463444207,276.216,0.5540000200271606,-2.392099059329121
276.517241,,0.001016555880688828,276.678,0.5929999947547913,-2.3070389591112663
276.98275900000004,,0.00439671026419532,277.141,0.5690000057220459,-2.3592664112441146
277.448276,,0.007032668029165937,277.611,0.5860000252723694,-2.3222034241249223
277.913793,,0.006815158915041002,278.076,0.5799999833106995,-2.335284166343351
278.37931,,0.004921866876065428,278.539,0.5830000042915344,-2.3287908984603347
278.844828,,0.004423473568810589,279.005,0.5830000042915344,-2.3288660020666865
279.31034500000004,,0.006756817360624862,279.466,0.5659999847412109,-2.3660082411676027
279.77586199999996,,0.010245030866630598,279.932,0.593999981880188,-2.305137893384
280.241379,,0.012079523082755148,280.396,0.6060000061988831,-2.279147275671802
280.706897,,0.011216607172903076,280.862,0.5640000104904175,-2.3708200509638004
281.172414,,0.00897628088345216,281.327,0.5989999771118164,-2.2947485304825155
281.637931,,0.007061110943744652,281.793,0.5830000042915344,-2.3297936969667323
282.10344799999996,,0.005744590025683141,282.256,0.5839999914169312,-2.327801741552772
282.568966,,0.004368096819012647,282.725,0.5669999718666077,-2.3650201487212676
283.034483,,0.0029326760061404436,283.186,0.5839999914169312,-2.3281538150691112
283.5,,0.0023094623285794453,283.656,0.574999988079071,-2.3479164924301856
283.965517,,0.002922585620197753,284.119,0.5669999718666077,-2.3654801288945473
284.431034,,0.0038237598671555855,284.581,0.5490000247955322,-2.4048064706539387
284.89655200000004,,0.0032503174921567346,285.047,0.5960000157356262,-2.3024937571368107
285.362069,,1.4618573497033596e-05,285.512,0.6060000061988831,-2.2807599980387385
285.827586,,0.005631949873264024,285.978,0.5789999961853027,-2.339602965947651
286.293103,,0.011772322203718485,286.445,0.5860000252723694,-2.324338767392585
286.758621,,0.01643514605192226,286.91,0.6579999923706055,-2.1674290398310068
287.22413800000004,,0.019206047402408388,287.375,0.5540000200271606,-2.393928835213143
287.689655,,0.02174394144926887,287.841,0.5730000138282776,-2.3524272246431788
288.155172,,0.02613202091644891,288.307,0.5730000138282776,-2.3522971956449026
288.62069,,0.03256118978014873,288.765,0.5879999995231628,-2.3194683854813074
289.086207,,0.03892495731086152,289.234,0.6060000061988831,-2.2800884591320756
289.55172400000004,,0.043048352139003744,289.696,0.5889999866485596,-2.3169508458810477
290.01724099999996,,0.04513886982929854,290.163,0.5979999899864197,-2.297163567499898
290.482759,,0.04728391691119258,290.626,0.5709999799728394,-2.355809167518643
290.948276,,0.05005799395841377,291.091,0.5730000138282776,-2.3512817628789735
291.413793,,0.0502442631024147,291.561,0.574999988079071,-2.346768124451618
291.87931,,0.04298284876389406,292.027,0.5860000252723694,-2.322664646274025
292.344828,,0.02642387408300051,292.486,0.5899999737739563,-2.313833711614992
292.81034500000004,,0.003881375753281032,292.951,0.5989999771118164,-2.2941341534668833
293.275862,,0.01840436706347474,293.418,0.5540000200271606,-2.392109398353744
293.74137900000005,,0.035033354801151065,293.884,0.5680000185966492,-2.361575271694118
294.206897,,0.04345751901644399,294.349,0.5720000267028809,-2.3528594268204146
294.672414,,0.04398274800738337,294.815,0.5669999718666077,-2.3637827314779685
295.13793100000004,,0.03914976803638211,295.278,0.6119999885559082,-2.265802522166762
295.603448,,0.03279357778289227,295.741,0.5699999928474426,-2.3573908712629543
296.068966,,0.02828970287757887,296.211,0.5950000286102295,-2.3030329232453397
296.534483,,0.0269098817541139,296.674,0.5680000185966492,-2.361984727797717
297.0,,0.028113349948732585,297.142,0.5759999752044678,-2.3446998451197123
297.46551700000003,,0.03128698993186383,297.604,0.574999988079071,-2.3470340811436605
297.931034,,0.0361662192986932,298.07,0.5870000123977661,-2.3210518017616946
298.396552,,0.041355464106421456,298.533,0.5849999785423279,-2.3255710472453908
298.862069,,0.04394464326757814,298.999,0.5690000057220459,-2.3605865152369834
299.327586,,0.04192786242782164,299.464,0.5669999718666077,-2.365091986808407
299.79310300000003,,0.036548535210176404,299.929,0.5950000286102295,-2.3042239479187026
300.258621,,0.03108242695556344,300.396,0.5699999928474426,-2.3588059821531875
300.724138,,0.027216168397561885,300.855,0.5860000252723694,-2.3240413088482392
301.189655,,0.023500260110133377,301.323,0.4009999930858612,-2.7271638839653076
301.65517200000005,,0.017631762407905885,301.789,0.5759999752044678,-2.3459525078314196
302.12069,,0.009384870327472896,302.252,0.5879999995231628,-2.3198357118889192
302.586207,,0.0007384651520087862,302.722,0.5730000138282776,-2.3525129623664682
303.05172400000004,,0.006095777435518812,303.182,0.5659999847412109,-2.3677321334920443
303.517241,,0.010006016092922418,303.652,0.5699999928474426,-2.3589585768351786
303.982759,,0.011054212577179841,304.115,0.6079999804496765,-2.2760846565466126
304.448276,,0.010382233101094356,304.578,0.5669999718666077,-2.3652997272461276
304.913793,,0.01004072145882109,305.043,0.5879999995231628,-2.3194182031963515
305.37931000000003,,0.011902615143620713,305.507,0.546999990940094,-2.4085977759745525
305.844828,,0.015965484146929335,305.973,0.5540000200271606,-2.393192655320531
306.310345,,0.019859497940921178,306.441,0.5709999799728394,-2.355996990833185
306.775862,,0.020688980178231918,306.906,0.5889999866485596,-2.316622435704458
307.241379,,0.017712372197477025,307.37,0.578000009059906,-2.3404329172185143
307.70689699999997,,0.013096057803886486,307.836,0.6060000061988831,-2.279284978778542
308.172414,,0.009907618898384736,308.297,0.5659999847412109,-2.366298777985598
308.637931,,0.009378195576240266,308.766,0.5910000205039978,-2.3117186974018518
309.103448,,0.010253765416293109,309.227,0.5690000057220459,-2.3595577232667244
309.568966,,0.011010978141279637,309.697,0.5809999704360962,-2.333348425186628
310.034483,,0.012313872955422253,310.16,0.5849999785423279,-2.3245960807330883
310.5,,0.016260243945067258,310.622,0.6079999804496765,-2.274477825396233
310.96551700000003,,0.023190545525949315,311.088,0.5799999833106995,-2.3354991377658036
311.431034,,0.030818345077722235,311.551,0.5419999957084656,-2.418336266721455
311.896552,,0.03717719332951785,312.016,0.5979999899864197,-2.296409241968218
312.362069,,0.042641751293442436,312.482,0.5669999718666077,-2.364050374914533
312.827586,,0.047446080087231966,312.948,0.5669999718666077,-2.3641758553279195
313.29310300000003,,0.048418378443272944,313.415,0.5789999961853027,-2.3381763500318398
313.758621,,0.04048948642352971,313.881,0.5709999799728394,-2.3557638104984195
314.224138,,0.021888169928334505,314.345,0.5910000205039978,-2.312357406915046
314.689655,,0.0032131003458780822,314.81,0.574999988079071,-2.347385215107263
315.155172,,0.02748888370265716,315.271,0.5879999995231628,-2.3192291946335124
315.62068999999997,,0.045333378996708154,315.74,0.578000009059906,-2.3411737147289333
316.086207,,0.05540347524454838,316.201,0.5929999947547913,-2.308638275901468
316.551724,,0.059773493069703455,316.67,0.597000002861023,-2.300048905334222
317.017241,,0.06115123900879858,317.134,0.5709999799728394,-2.356795937078801
317.482759,,0.06024622290069344,317.596,0.6069999933242798,-2.278440302894762
317.94827599999996,,0.05542207394939423,318.062,0.578000009059906,-2.34166765494978
318.413793,,0.04518612013912708,318.525,0.5759999752044678,-2.3460412289907597
318.87931000000003,,0.030936531524834672,318.991,0.5830000042915344,-2.330776345095874
319.344828,,0.016586749124854916,319.456,0.5920000076293945,-2.31112372544211
319.810345,,0.0052006878216842006,319.922,0.5849999785423279,-2.3263001069719578
320.275862,,0.0035199821406242614,320.389,0.5759999752044678,-2.3458068808183055
320.741379,,0.011994438093876089,320.855,0.574999988079071,-2.3478612907700827
321.20689699999997,,0.021342464765454074,321.319,0.5789999961853027,-2.3390034431675253
321.672414,,0.029810036310061253,321.785,0.5960000157356262,-2.3018082601996523
322.137931,,0.03464555947212065,322.248,0.5720000267028809,-2.3539276787848227
322.603448,,0.03506048702428171,322.711,0.5680000185966492,-2.3624702151729955
323.068966,,0.03307396041496949,323.182,0.5839999914169312,-2.3274417453137675
323.53448299999997,,0.031574633332293524,323.644,0.5789999961853027,-2.338171860539357
324.0,,0.03169756361647522,324.112,0.5789999961853027,-2.338020944551546
324.465517,,0.03218321140346399,324.574,0.5849999785423279,-2.3248152720930824
324.931034,,0.031330314973807,325.039,0.5809999704360962,-2.3334173978076125
325.396552,,0.02929960115786649,325.505,0.5669999718666077,-2.3638313225509133
325.86206899999996,,0.028077674456887372,325.97,0.5680000185966492,-2.3615942058244186
326.327586,,0.02916515653715091,326.43,0.5920000076293945,-2.309278802027657
326.793103,,0.031770209557376465,326.896,0.5600000023841858,-2.3789988998187632
327.258621,,0.03363407944915422,327.363,0.5699999928474426,-2.3572474024958936
327.724138,,0.03332316557185402,327.829,0.5659999847412109,-2.3660278599439573
328.189655,,0.03106141643487253,328.297,0.5730000138282776,-2.3508716774100327
328.655172,,0.027366512670353588,328.759,0.5879999995231628,-2.318311447326506
329.12068999999997,,0.021699513685482827,329.226,0.5809999704360962,-2.3337021414620542
329.586207,,0.012814919240404865,329.689,0.5899999737739563,-2.3142502568684975
330.051724,,2.020438965640868e-05,330.152,0.5669999718666077,-2.364526219361769
330.517241,,0.0163214605796654,330.615,0.5720000267028809,-2.353806140897267
330.982759,,0.034341410739529614,331.081,0.5659999847412109,-2.3670524202837897
331.44827599999996,,0.05127611601800152,331.551,0.5740000009536743,-2.3497928044905123
331.913793,,0.0638229215935395,332.016,0.578000009059906,-2.3412373263011244
332.37931,,0.06947094899677507,332.475,0.5759999752044678,-2.345737884933989
332.844828,,0.06803630323789708,332.94,0.6079999804496765,-2.276143036497071
333.310345,,0.06181822995106774,333.408,0.5889999866485596,-2.317633247412548
333.77586199999996,,0.05366298756963506,333.873,0.5839999914169312,-2.3285934079872437
334.241379,,0.04486369094495789,334.337,0.5989999771118164,-2.295949771951322
334.706897,,0.03527847649941787,334.803,0.5669999718666077,-2.365670779246076
335.17241399999995,,0.025123737496631913,335.271,0.5669999718666077,-2.3656439830138694
335.637931,,0.015810398415180723,335.733,0.5759999752044678,-2.3459796638589134
336.103448,,0.008779346440003449,336.197,0.5920000076293945,-2.3110362824025117
336.56896600000005,,0.0039427210437741455,336.667,0.5130000114440918,-2.483039662334078
337.034483,,0.00023068013432590867,337.13,0.5830000042915344,-2.3304042428788825
337.5,,0.004830406121206694,337.592,0.5879999995231628,-2.3193638361789923
337.965517,,0.008939940889180919,338.058,0.5669999718666077,-2.364954741622356
338.431034,,0.010619945048553653,338.522,0.5889999866485596,-2.316855413267511
338.89655200000004,,0.009649787278152225,338.987,0.5680000185966492,-2.362435087675831
339.36206899999996,,0.008510030160967276,339.452,0.5699999928474426,-2.357908899564436
339.827586,,0.009878518699008612,339.918,0.5929999947547913,-2.307639241468735
340.293103,,0.013443178384743846,340.385,0.5839999914169312,-2.3270990008355623
340.758621,,0.016028924491207304,340.851,0.5699999928474426,-2.357469549867799
341.224138,,0.015073779984278354,341.315,0.5920000076293945,-2.3094307462865453
341.68965499999996,,0.011364406312734443,341.781,0.6190000176429749,-2.2505232159198933
342.155172,,0.007895095591231357,342.241,0.5879999995231628,-2.31800385368742
342.62069,,0.006481362677120601,342.711,0.5830000042915344,-2.3288687574486935
343.086207,,0.006224843672593526,343.174,0.6069999933242798,-2.2765834839393513
343.551724,,0.005233415105918723,343.637,0.5709999799728394,-2.355047802718025
344.01724099999996,,0.0030511693218042207,344.103,0.6150000095367432,-2.259249983857007
344.48275900000004,,0.0009416648798244891,344.566,0.5709999799728394,-2.3552014145687297
344.948276,,0.00016115127533932914,345.032,0.5730000138282776,-2.350960967643984
345.413793,,0.0005603437559838148,345.497,0.5789999961853027,-2.338029291068429
345.87931,,0.0009885645672524088,345.962,0.5640000104904175,-2.3708681555367326
346.344828,,0.0006833772393025308,346.427,0.5519999861717224,-2.3971858446362617
346.81034500000004,,5.707365467065776e-05,346.893,0.597000002861023,-2.2993295052903444
347.275862,,0.0004276222508540006,347.359,0.5690000057220459,-2.3605168485836154
347.741379,,5.584353750226019e-05,347.825,0.628000020980835,-2.232157044672742
348.206897,,0.0013579796458005455,348.286,0.5669999718666077,-2.3652242383538975
348.672414,,0.0031652679931246266,348.756,0.5770000219345093,-2.3435915323703576
349.13793100000004,,0.004996513397393483,349.219,0.5460000038146973,-2.4112642916326275
349.60344799999996,,0.006275573012830601,349.681,0.6079999804496765,-2.2762986891400865
350.068966,,0.0067090751377437184,350.145,0.5690000057220459,-2.3613477592881083
350.534483,,0.006613744146722672,350.615,0.5929999947547913,-2.3091101716836198
351.0,,0.00662315583536068,351.081,0.5669999718666077,-2.3657716747597215
351.465517,,0.0070778670052798615,351.543,0.6060000061988831,-2.2807864318737394
351.93103399999995,,0.007865216701711648,352.009,0.5699999928474426,-2.359165555826239
352.396552,,0.008788608915832693,352.474,0.5680000185966492,-2.3634381577029986
352.862069,,0.009874328676731,352.94,0.5669999718666077,-2.3655031320436084
353.32758600000005,,0.01112715745089265,353.404,0.5839999914169312,-2.3283262889169056
353.793103,,0.011921049163352593,353.87,0.5860000252723694,-2.3238067491287486
354.258621,,0.01096777389833743,354.335,0.574999988079071,-2.347592204273797
354.72413800000004,,0.007475931649426216,354.8,0.5929999947547913,-2.3081847772070936
355.189655,,0.002443399535537155,355.263,0.5879999995231628,-2.318879995710205
355.655172,,0.0017080254441010376,355.725,0.5709999799728394,-2.3557192448388764
356.12069,,0.003227424123760431,356.193,0.5770000219345093,-2.3424565981496825
356.586207,,0.002825914242042194,356.656,0.6060000061988831,-2.2790980531044793
357.05172400000004,,0.0032121908174897536,357.126,0.5669999718666077,-2.3639059682901253
357.517241,,0.0065380065569184504,357.588,0.5929999947547913,-2.3071255703825257
357.982759,,0.012080975286650687,358.054,0.5419999957084656,-2.418130524090071
358.448276,,0.016575370908429234,358.518,0.5979999899864197,-2.2960533842836117
358.913793,,0.017055794012783745,358.984,0.6169999837875366,-2.254620745734972
359.37931000000003,,0.013405556689808544,359.45,0.574999988079071,-2.3461207407849414
359.844828,,0.008161004130393433,359.916,0.5849999785423279,-2.324367563147135
360.310345,,0.004091556716047227,360.382,0.5540000200271606,-2.391975763955188
360.775862,,0.0021657151375362956,360.84,0.5879999995231628,-2.318007226501693
361.241379,,0.0015711171511499484,361.305,0.578000009059906,-2.339930958505576
361.706897,,0.0010030400067205217,361.771,0.5889999866485596,-2.3161303161270355
362.172414,,0.000380391911590558,362.241,0.5490000247955322,-2.403463347015024
362.63793100000004,,0.0026119960443360584,362.703,0.503000020980835,-2.5038874001669114
363.103448,,0.004769682385298973,363.167,0.5730000138282776,-2.3516018012340667
363.568966,,0.005540523048099434,363.637,0.5929999947547913,-2.3082530776043746
364.034483,,0.004751753967363676,364.095,0.5699999928474426,-2.3585816207389514
364.5,,0.004177495746904559,364.566,0.6060000061988831,-2.2803577494763094
364.96551700000003,,0.006034696859135736,365.032,0.5920000076293945,-2.3110467138213013
365.431034,,0.010598516006347588,365.49,0.6079999804496765,-2.2763498625205107
365.896552,,0.0158512866247831,365.955,0.5730000138282776,-2.3527324647648227
366.362069,,0.01963348989023386,366.423,0.593999981880188,-2.3070755217270977
366.827586,,0.021729159231401625,366.888,0.5899999737739563,-2.3158460844249844
367.29310300000003,,0.023549778179691592,367.353,0.5929999947547913,-2.309325029349719
367.758621,,0.02600470031922712,367.818,0.5759999752044678,-2.346335618485818
368.224138,,0.02801927710690914,368.281,0.5879999995231628,-2.320124861912394
368.689655,,0.027043209979436617,368.751,0.5410000085830688,-2.4224167337286406
369.155172,,0.020801961235849924,369.215,0.5789999961853027,-2.3394897550927363
369.62068999999997,,0.0088143816744961,369.677,0.6039999723434448,-2.284854764563224
370.086207,,0.0073476442401529864,370.145,0.5899999737739563,-2.3151604206291454
370.55172400000004,,0.025011716878661546,370.608,0.6060000061988831,-2.2800858273218476
371.017241,,0.04131539020665577,371.073,0.5989999771118164,-2.2951062866522185
371.482759,,0.053254804668063545,371.536,0.5899999737739563,-2.314477533787707
371.948276,,0.05797623792312791,372.002,0.5730000138282776,-2.3512799232746757
372.413793,,0.054333004263291074,372.467,0.6000000238418579,-2.29223185493462
372.87931000000003,,0.04421242351304276,372.933,0.5680000185966492,-2.3617414941371413
373.344828,,0.03156012013076271,373.397,0.5680000185966492,-2.3615593040798664
373.810345,,0.019736051050849947,373.863,0.5709999799728394,-2.3548728564845534
374.275862,,0.009814385265052683,374.327,0.5709999799728394,-2.3547588468804683
374.741379,,0.001143772972406611,374.793,0.574999988079071,-2.3459705564637576
375.20689699999997,,0.00702814710641327,375.256,0.6150000095367432,-2.2587928796263705
375.672414,,0.014738390104329523,375.726,0.5709999799728394,-2.354664348304984
376.137931,,0.021588882861759882,376.186,0.5540000200271606,-2.3917557277305015
376.603448,,0.027045303456621407,376.656,0.6209999918937683,-2.2458829738405015
377.068966,,0.030389106068636318,377.119,0.6169999837875366,-2.2547314831792784
377.53448299999997,,0.031028743452286053,377.581,0.5989999771118164,-2.2941134135505905
378.0,,0.02916549555663277,378.046,0.5699999928474426,-2.3574889437111346
378.465517,,0.025807647829078042,378.512,0.5669999718666077,-2.3642436152279465
378.931034,,0.022006830029389187,378.977,0.6060000061988831,-2.279511899575924
379.396552,,0.01846943169767247,379.444,0.5320000052452087,-2.4409771339469506
379.862069,,0.015981840660593685,379.91,0.5789999961853027,-2.338828649924947
380.327586,,0.015569630060309168,380.374,0.6100000143051147,-2.2715323312350364
380.79310300000003,,0.01765922216246847,380.84,0.6190000176429749,-2.2521500576924387
381.258621,,0.021313487283807157,381.304,0.6129999756813049,-2.2654231615334357
381.724138,,0.025000478499523637,381.77,0.609000027179718,-2.2743078552422338
382.189655,,0.028345325440742378,382.231,0.6050000190734863,-2.283156543150528
382.655172,,0.03248179580010907,382.701,0.6050000190734863,-2.2832503171967073
383.12068999999997,,0.03777186255086235,383.163,0.6209999918937683,-2.2484421574312012
383.586207,,0.040966859219661485,383.626,0.5820000171661377,-2.3334144539713413
384.051724,,0.035587278612295443,384.091,0.5669999718666077,-2.36605542402075
384.517241,,0.016715465183946968,384.555,0.6159999966621399,-2.259220353416688
384.982759,,0.013764117767117718,385.02,0.5709999799728394,-2.3571378715658446
385.44827599999996,,0.047258327236680386,385.485,0.5950000286102295,-2.304692044039365
385.913793,,0.07452576023843074,385.951,0.6019999980926514,-2.2892517942363946
386.37931,,0.09159486688680939,386.419,0.574999988079071,-2.3478597072514793
386.84482799999995,,0.09981552234443658,386.884,0.6190000176429749,-2.2517644324510777
387.310345,,0.1014731629374849,387.352,0.5960000157356262,-2.301626432837365
387.775862,,0.09699965162797297,387.81,0.5709999799728394,-2.3558418644096575
388.241379,,0.0864428139415741,388.278,0.5649999976158142,-2.368668369983708
388.70689699999997,,0.07176790036931871,388.74,0.5960000157356262,-2.3008982863930605
389.172414,,0.05610150605646549,389.208,0.6019999980926514,-2.2876141331517736
389.637931,,0.0412055815795863,389.67,0.6060000061988831,-2.278712697826757
390.103448,,0.027035253413843753,390.138,0.628000020980835,-2.230626323781405
390.56896600000005,,0.013434470134613559,390.601,0.5879999995231628,-2.3176519311780153
391.03448299999997,,0.0007950027698027174,391.066,0.5759999752044678,-2.343716283926259
391.5,,0.010769178552937256,391.532,0.6119999885559082,-2.265249510442272
391.965517,,0.021285831355618862,391.998,0.5809999704360962,-2.3327971574008095
392.431034,,0.029877190292443966,392.463,0.5759999752044678,-2.3437451626832138
392.896552,,0.03537798706321681,392.929,0.5830000042915344,-2.3285936512946543
393.36206899999996,,0.03827074775615678,393.394,0.593999981880188,-2.3047685692677176
393.827586,,0.04054695434299889,393.859,0.6230000257492065,-2.241763120122475
394.293103,,0.04306632593640138,394.326,0.5899999737739563,-2.313863429078123
394.75862099999995,,0.04427232164928098,394.785,0.5799999833106995,-2.3358784349404833
395.224138,,0.042332933533659384,395.252,0.5950000286102295,-2.3034444274376984
395.68965499999996,,0.03765406742069995,395.715,0.6039999723434448,-2.284091529792684
396.155172,,0.032406883614011874,396.185,0.5789999961853027,-2.3388133063768635
396.62069,,0.028177268384692013,396.648,0.6309999823570251,-2.2257716306004824
397.086207,,0.0248334182378345,397.111,0.5929999947547913,-2.3087921349596243
397.551724,,0.02130987287915136,397.581,0.5820000171661377,-2.332966183063645
398.017241,,0.016966492198833085,398.04,0.6119999885559082,-2.267786730964275
398.48275900000004,,0.012405456402633226,398.512,0.6209999918937683,-2.248323015715302
398.94827599999996,,0.009159897865669854,398.97,0.5989999771118164,-2.296356543434414
399.413793,,0.008307301022556486,399.437,0.6039999723434448,-2.285522865555067
399.87931,,0.009261503707242533,399.903,0.6019999980926514,-2.2898943719403304
400.344828,,0.01013072510205271,400.367,0.5720000267028809,-2.3552228316124064
400.810345,,0.009402759528452941,400.833,0.5799999833106995,-2.3377195154630823
401.27586199999996,,0.007254266460052939,401.296,0.5929999947547913,-2.309281867093756
401.741379,,0.005180652691633745,401.766,0.6039999723434448,-2.285163316731122
402.206897,,0.004463116698741895,402.226,0.593999981880188,-2.306762319826697
402.672414,,0.005161153503852527,402.696,0.6330000162124634,-2.221578696598458
403.137931,,0.006407646971551623,403.16,0.609000027179718,-2.273627192470024
403.60344799999996,,0.007216811958979149,403.622,0.6119999885559082,-2.2668370669987974
404.068966,,0.0069730455041164836,404.088,0.578000009059906,-2.340650658483195
404.534483,,0.005608532159905612,404.551,0.6039999723434448,-2.283748244454938
405.0,,0.0035730443320313573,405.016,0.6039999723434448,-2.283501303769147
405.465517,,0.0015262561639193754,405.481,0.6269999742507935,-2.2331630435347916
405.931034,,4.755199216595254e-05,405.947,0.5910000205039978,-2.31138975905978
406.39655200000004,,0.0010263799213147725,406.415,0.5839999914169312,-2.326468215550912
406.862069,,0.001576598077066076,406.88,0.6190000176429749,-2.250081542075883
407.327586,,0.0018574049896033739,407.345,0.5830000042915344,-2.3284211638140673
407.793103,,0.001848149084012176,407.81,0.5720000267028809,-2.352340515986104
408.258621,,0.0016996917399102536,408.274,0.621999979019165,-2.2434101560993582
408.72413800000004,,0.0020301277738776526,408.736,0.6150000095367432,-2.2587088505154784
409.18965499999996,,0.003196439656677415,409.2,0.5879999995231628,-2.317625225635307
409.655172,,0.004275369786078148,409.67,0.5199999809265137,-2.465910410539972
410.12069,,0.003673404999523355,410.13,0.5860000252723694,-2.3222981427544056
410.586207,,0.0012387722709659324,410.6,0.5929999947547913,-2.3072609688064665
411.05172400000004,,0.0009034209695295378,411.065,0.6010000109672546,-2.2900711261537765
411.51724099999996,,0.0003984915355538497,411.532,0.5950000286102295,-2.3034003856147516
411.982759,,0.002736305731031591,411.99,0.5799999833106995,-2.3363476687244535
412.448276,,0.006254716710276162,412.455,0.5770000219345093,-2.3431530912947203
412.913793,,0.00817567434176213,412.921,0.6169999837875366,-2.256269769636695
413.37931,,0.008331515327287348,413.386,0.6269999742507935,-2.2347287023375926
413.844828,,0.007671070436317587,413.851,0.6050000190734863,-2.282878464444501
414.31034500000004,,0.007201423242579849,414.315,0.6140000224113464,-2.2634577559343954
414.775862,,0.007855626926881444,414.781,0.5910000205039978,-2.3137159147406274
415.241379,,0.010142638326636548,415.245,0.625,-2.239748500064095
415.706897,,0.012966276960705646,415.714,0.5860000252723694,-2.324776308756789
416.172414,,0.013582142935995077,416.175,0.5799999833106995,-2.3378618518543126
416.63793100000004,,0.01019006710058116,416.645,0.6100000143051147,-2.27246892255081
417.103448,,0.004627207054282292,417.108,0.515999972820282,-2.4771836035174433
417.568966,,0.0011160555975333697,417.571,0.5849999785423279,-2.32673750698493
418.034483,,0.0017674403591162967,418.036,0.6449999809265137,-2.195860236938785
418.5,,0.004491302699362751,418.501,0.597000002861023,-2.3002403725459426
418.96551700000003,,0.006072662110190055,418.967,0.6060000061988831,-2.280407583138051
419.43103399999995,,0.005994690151185207,419.433,0.5759999752044678,-2.3455205514013366
419.896552,,0.00595425826618975,419.899,0.6140000224113464,-2.262471706498523
420.362069,,0.006538661593216988,420.364,0.5950000286102295,-2.3036002898797547
420.827586,,0.006094999705816746,420.83,0.593999981880188,-2.30551617850703
421.293103,,0.003074960442538845,421.293,0.6200000047683716,-2.2486196151289652
421.758621,,0.0015510589530410529,421.756,0.5879999995231628,-2.3181037458556513
422.22413800000004,,0.004908437513592181,422.226,0.6190000176429749,-2.2503595511660457
422.689655,,0.005150418001939083,422.689,0.5989999771118164,-2.293759723864291
423.15517200000005,,0.003485044681969089,423.152,0.6069999933242798,-2.2761963916666286
423.62069,,0.0030839016345178103,423.615,0.5920000076293945,-2.3087855757304703
424.086207,,0.005786607122007508,424.08,0.5740000009536743,-2.347958117327934
424.55172400000004,,0.009920206215379172,424.55,0.5910000205039978,-2.310927378962665
425.017241,,0.011826186565315176,425.016,0.6069999933242798,-2.2761241714490725
425.482759,,0.009769434478317324,425.482,0.609000027179718,-2.271868036788466
425.948276,,0.005833249789632605,425.94,0.5849999785423279,-2.3242999636168995
426.413793,,0.0035485623648327837,426.411,0.5929999947547913,-2.307054112894937
426.87931000000003,,0.004095897864045156,426.87,0.6060000061988831,-2.2789482217331387
427.344828,,0.005298396002375679,427.342,0.5910000205039978,-2.311870405203388
427.810345,,0.004057992927664073,427.8,0.6010000109672546,-2.290344658716575
428.275862,,0.0005331599015869763,428.271,0.6060000061988831,-2.2797218233823697
428.741379,,0.006261129559959172,428.733,0.6449999809265137,-2.195024823708666
429.20689699999997,,0.009767980318203752,429.201,0.6190000176429749,-2.2519300055501175
429.672414,,0.00961976742600336,429.663,0.5920000076293945,-2.3109964815530413
430.137931,,0.007517888104701593,430.126,0.5849999785423279,-2.3264664475944765
430.603448,,0.006473556862319282,430.596,0.6019999980926514,-2.2896186077941434
431.068966,,0.007825179776157699,431.062,0.5929999947547913,-2.3093791736683817
431.534483,,0.010056409509675042,431.525,0.6019999980926514,-2.2898824375600677
432.0,,0.010600176014898818,431.991,0.5899999737739563,-2.316092233388645
432.46551700000003,,0.008850366302396523,432.455,0.6010000109672546,-2.292145682355843
432.931034,,0.006988803796993786,432.921,0.5879999995231628,-2.3204388941145258
433.396552,,0.00727958322957395,433.386,0.6370000243186951,-2.2136080292928866
433.862069,,0.009000832101192655,433.852,0.5709999799728394,-2.3572762228624353
434.327586,,0.009370635242916179,434.311,0.597000002861023,-2.300467673874664
434.79310300000003,,0.007632922038198797,434.777,0.5960000157356262,-2.3024472121228956
435.258621,,0.006422299051370472,435.245,0.5709999799728394,-2.3566852348417373
435.724138,,0.007867482625476669,435.707,0.6370000243186951,-2.212643684732656
436.189655,,0.009856533864588074,436.17,0.6119999885559082,-2.266843424181674
436.655172,,0.008353375733620464,436.64,0.5920000076293945,-2.310142349736566
437.12068999999997,,0.0029597905121549863,437.1,0.5929999947547913,-2.307692189111065
437.586207,,0.002107630662338097,437.565,0.6060000061988831,-2.2791094290763154
438.051724,,0.003048155802526175,438.03,0.5460000038146973,-2.4095882837041853
438.517241,,0.0006771993931043293,438.497,0.5989999771118164,-2.29390870883722
438.982759,,0.0013231944578745076,438.963,0.5929999947547913,-2.306804209361198
439.448276,,0.0009446949273254613,439.43,0.5910000205039978,-2.311024845126011
439.913793,,0.0008528938310809822,439.896,0.574999988079071,-2.3457912865521564
440.37931000000003,,0.0027052106638173084,440.36,0.5540000200271606,-2.3914993807707177
440.844828,,0.004754841404046999,440.826,0.6299999952316284,-2.2259281865754397
441.310345,,0.007466096729612229,441.289,0.6079999804496765,-2.273911879886405
441.775862,,0.010033983279833512,441.751,0.5950000286102295,-2.302332808351256
442.241379,,0.011265806881190086,442.219,0.5879999995231628,-2.3177251461846615
442.70689699999997,,0.011466855404237648,442.681,0.5910000205039978,-2.311370007077585
443.172414,,0.012173290813733006,443.145,0.6050000190734863,-2.281082955409037
443.637931,,0.013860205184560643,443.615,0.6309999823570251,-2.224677557245258
444.103448,,0.014911789170333074,444.08,0.5649999976158142,-2.3687256225512905
444.568966,,0.013595734451142373,444.543,0.5759999752044678,-2.3450293412711782
445.03448299999997,,0.010467595341729669,445.009,0.6439999938011169,-2.1971526326946273
445.5,,0.007729190751530282,445.474,0.6039999723434448,-2.2845622573158724
445.965517,,0.006373277906558693,445.94,0.5989999771118164,-2.2957032931124157
446.431034,,0.005174502462975728,446.405,0.5910000205039978,-2.313357742394706
446.896552,,0.002775764346167115,446.871,0.6119999885559082,-2.267802059562069
447.36206899999996,,0.00028988528167528095,447.33,0.593999981880188,-2.307177779938846
447.827586,,0.002378818818897046,447.795,0.6039999723434448,-2.2855105944418854
448.29310300000003,,0.003040554226544817,448.264,0.5960000157356262,-2.3030146724302605
448.758621,,0.0037371934407682958,448.726,0.5929999947547913,-2.30957920460825
449.224138,,0.006132037179321136,449.197,0.5929999947547913,-2.3095607101921485
449.689655,,0.010017648176485068,449.659,0.6060000061988831,-2.281173132261326
450.155172,,0.013037854294728328,450.12,0.5879999995231628,-2.3202790010040046
450.62068999999997,,0.01232022320603229,450.589,0.6230000257492065,-2.243874886266674
451.086207,,0.006703407900725822,451.055,0.5830000042915344,-2.3308325812663275
451.551724,,0.0020259576479482308,451.522,0.6169999837875366,-2.2565393515230743
452.017241,,0.010143804668140464,451.981,0.6019999980926514,-2.2889756064691023
452.482759,,0.014875943903643713,452.446,0.5889999866485596,-2.317038170468715
452.94827599999996,,0.016599239324518518,452.911,0.6169999837875366,-2.255768043574877
453.413793,,0.01816275466007061,453.378,0.597000002861023,-2.299072949611624
453.87931,,0.02209681514018768,453.844,0.5879999995231628,-2.3184214813786626
454.344828,,0.028200636144435243,454.311,0.5709999799728394,-2.3552171185836834
454.810345,,0.03323380538093363,454.777,0.5860000252723694,-2.3223217745598985
455.27586199999996,,0.03301647425577309,455.237,0.5860000252723694,-2.32213863658717
455.741379,,0.025594742824054197,455.707,0.5910000205039978,-2.3110998806219056
456.206897,,0.012749444666582621,456.171,0.6079999804496765,-2.273958943879309
456.672414,,0.0017271696474366021,456.633,0.593999981880188,-2.3044002227659295
457.137931,,0.01526404135680544,457.099,0.6299999952316284,-2.225954469314914
457.603448,,0.027868302090691858,457.565,0.5809999704360962,-2.3327396212995453
458.06896600000005,,0.040204042464006065,458.031,0.5929999947547913,-2.306672591331504
458.53448299999997,,0.050721659136527354,458.49,0.6079999804496765,-2.2741129591009392
459.0,,0.055678248147294926,458.955,0.6060000061988831,-2.278628992397579
459.465517,,0.052652399522258135,459.422,0.6000000238418579,-2.2918932825527496
459.931034,,0.04344750726542881,459.888,0.6039999723434448,-2.283399060610573
460.39655200000004,,0.03260040215453408,460.356,0.5849999785423279,-2.325034949559215
460.86206899999996,,0.023218322410901594,460.815,0.6039999723434448,-2.2838962852684186
461.327586,,0.015106154244330995,461.285,0.6119999885559082,-2.266728372638761
461.793103,,0.006751846492740396,461.748,0.574999988079071,-2.347597320554755
462.258621,,0.002250458343172506,462.215,0.6039999723434448,-2.284665751270152
462.724138,,0.011420249575337958,462.677,0.5730000138282776,-2.352435791327086
463.18965499999996,,0.02093042687887454,463.145,0.5879999995231628,-2.3199640170884397
463.655172,,0.03162558476155537,463.608,0.6119999885559082,-2.26785342792861
464.12069,,0.04365560377333246,464.073,0.5830000042915344,-2.3311740754866186
464.58620699999994,,0.05592481995489154,464.537,0.5910000205039978,-2.3138437129727016
465.051724,,0.06679651844342986,465.002,0.5860000252723694,-2.324792071482489
465.517241,,0.07451557049939005,465.467,0.6179999709129333,-2.255084482395553
465.98275900000004,,0.07687709815500444,465.933,0.6069999933242798,-2.279011373239196
466.448276,,0.07157265379396408,466.4,0.5839999914169312,-2.3290362565047853
466.913793,,0.057845922380322386,466.865,0.6069999933242798,-2.2788006710227373
467.37931,,0.03772390330626234,467.33,0.5989999771118164,-2.2960643235148743
467.844828,,0.015216582250499995,467.796,0.7020000219345093,-2.0714619659993527
468.31034500000004,,0.0055526421569599095,468.26,0.6209999918937683,-2.247699589725497
468.77586199999996,,0.021525918088394977,468.722,0.5789999961853027,-2.33894752926296
469.241379,,0.03116674774067161,469.185,0.5540000200271606,-2.3931478755966977
469.706897,,0.03482267061299863,469.656,0.5910000205039978,-2.3122710473170094
470.172414,,0.03459011110691656,470.119,0.6179999709129333,-2.2531868932677206
470.63793100000004,,0.033300911130546236,470.581,0.5929999947547913,-2.3074054103503374
471.10344799999996,,0.03328559569959158,471.047,0.5929999947547913,-2.3071790586596888
471.568966,,0.0355902292851339,471.512,0.5759999752044678,-2.344019000582876
472.034483,,0.0398365969363188,471.978,0.6140000224113464,-2.2610683876187925
472.5,,0.04482020874576313,472.445,0.5920000076293945,-2.308876482817702
472.965517,,0.04932728202678618,472.911,0.6129999756813049,-2.263045785673693
473.43103399999995,,0.05215115242529118,473.371,0.5910000205039978,-2.310942352059938
473.89655200000004,,0.05163930462513929,473.836,0.5989999771118164,-2.2935263818259153
474.362069,,0.046400833051782324,474.308,0.593999981880188,-2.3044791774393314
474.827586,,0.03706759963451401,474.766,0.609000027179718,-2.2719030949657224
475.293103,,0.026544596470422083,475.234,0.6010000109672546,-2.289476574038106
475.758621,,0.017501720285748257,475.696,0.6209999918937683,-2.2460833782670693
476.22413800000004,,0.009731759962807477,476.16,0.5929999947547913,-2.3072949882351272
476.689655,,0.0007628026324091115,476.629,0.5899999737739563,-2.314064200895574
477.155172,,0.010794939832265841,477.095,0.6209999918937683,-2.246775719010562
477.62069,,0.023006858009578083,477.559,0.5839999914169312,-2.3276435992764917
478.086207,,0.031540790568141665,478.025,0.5920000076293945,-2.3104729376203257
478.55172400000004,,0.03212754567471414,478.489,0.6700000166893005,-2.140788356889529
479.01724099999996,,0.022670735761278583,478.954,0.593999981880188,-2.3065978912761564
479.482759,,0.004830587390019941,479.421,0.6060000061988831,-2.280662169061724
479.948276,,0.015679087651498273,479.886,0.5789999961853027,-2.339664930291657
480.413793,,0.031646555802188205,480.345,0.5899999737739563,-2.3158452280776567
480.87931000000003,,0.0386297694531647,480.81,0.5830000042915344,-2.331203051342699
481.344828,,0.03701400411406777,481.281,0.5889999866485596,-2.31819714653683
481.810345,,0.03012146479605659,481.743,0.5879999995231628,-2.3203982234288665
482.275862,,0.02109207054998182,482.211,0.5429999828338623,-2.418416499440224
482.74137900000005,,0.011769382123304384,482.674,0.6050000190734863,-2.283276905285901
483.206897,,0.0033068116629002874,483.137,0.5899999737739563,-2.315851858962743
483.672414,,0.0037101122799658576,483.6,0.6079999804496765,-2.2764918523732156
484.13793100000004,,0.009728784012375492,484.066,0.593999981880188,-2.306813447654275
484.603448,,0.015673303354291027,484.531,0.6100000143051147,-2.2717456813544867
485.068966,,0.02171833076545401,484.997,0.6349999904632568,-2.2170460083517862
485.534483,,0.027424279396844036,485.463,0.5419999957084656,-2.419410435612356
486.0,,0.03300083785266648,485.928,0.597000002861023,-2.299328086784127
486.46551700000003,,0.039167754366063026,486.394,0.5929999947547913,-2.30778712024578
486.931034,,0.04523693792317388,486.859,0.6019999980926514,-2.287931613122086
487.396552,,0.04845421769533666,487.327,0.5789999961853027,-2.337808681440828
487.862069,,0.046479818856927244,487.792,0.4959999918937683,-2.5184299535185795
488.327586,,0.04023340495605029,488.252,0.6460000276565552,-2.191458217086086
488.79310300000003,,0.033127700639382425,488.715,0.574999988079071,-2.3460030548549744
489.258621,,0.027349999347370636,489.185,0.5960000157356262,-2.30015062909492
489.724138,,0.021926727518245873,489.648,0.6039999723434448,-2.2826628582331554
490.189655,,0.014924355527341998,490.111,0.6079999804496765,-2.2739326378856743
490.655172,,0.0066635546711278915,490.581,0.6190000176429749,-2.249994849907269
491.12069,,0.00032197301695340084,491.047,0.5789999961853027,-2.3372108043763293
491.586207,,0.0044445788551003155,491.512,0.6060000061988831,-2.278498411327711
492.05172400000004,,0.007074826983770114,491.97,0.5920000076293945,-2.309148553214901
492.517241,,0.010592742343208094,492.437,0.6159999966621399,-2.257043040578997
492.982759,,0.014999862904868884,492.903,0.5659999847412109,-2.3661853860247506
493.448276,,0.017714256292079872,493.367,0.597000002861023,-2.2988794037905604
493.913793,,0.016827131652615582,493.833,0.5830000042915344,-2.3296280004560512
494.37931000000003,,0.013355146613839575,494.305,0.5799999833106995,-2.336419294298357
494.844828,,0.009722112574130462,494.763,0.5849999785423279,-2.3257816203895443
495.310345,,0.007050305738412832,495.226,0.6060000061988831,-2.280277369556417
495.775862,,0.0049049430739390954,495.696,0.6359999775886536,-2.215148209833709
496.241379,,0.003003003066434692,496.156,0.5910000205039978,-2.3133926401848783
496.70689699999997,,0.0017430080816927991,496.625,0.5799999833106995,-2.337533266282188
497.172414,,0.0009213743318923676,497.091,0.6079999804496765,-2.276671955063496
497.637931,,0.0006791716917744166,497.554,0.5910000205039978,-2.313810373257503
498.103448,,0.0034580332506987596,498.02,0.6060000061988831,-2.281189446120335
498.568966,,0.0056229654676844395,498.485,0.5799999833106995,-2.337848890532264
499.03448299999997,,0.004988478283599785,498.95,0.6079999804496765,-2.276816663262818
499.5,,0.001796645740863621,499.415,0.5960000157356262,-2.3028863003721245
499.96551700000003,,0.0015797256303059966,499.881,0.5910000205039978,-2.3136636873434906
500.431034,,0.0035333231969441278,500.341,0.6190000176429749,-2.2525072940798796
500.89655200000004,,0.004389904108385404,500.807,0.5849999785423279,-2.326393236296764
501.362069,,0.004741585695592052,501.275,0.6000000238418579,-2.2934974023567896
501.827586,,0.00428403805845731,501.737,0.6060000061988831,-2.2801883359355926
502.293103,,0.0029506546033595963,502.2,0.5920000076293945,-2.3104380160577778
502.758621,,0.0019560557112903187,502.67,0.6019999980926514,-2.288393871152231
503.224138,,0.002558416034332296,503.13,0.5960000157356262,-2.301209690968683
503.68965499999996,,0.0041607518372931565,503.6,0.6140000224113464,-2.2617471496973818
504.15517200000005,,0.004622229477331372,504.066,0.5979999899864197,-2.2963752951208893
504.62068999999997,,0.0025853854562660913,504.532,0.5429999828338623,-2.415995626807915
505.08620699999994,,0.0011029961088397286,504.99,0.5799999833106995,-2.335213117119932
505.55172400000004,,0.0044340776891608705,505.456,0.5789999961853027,-2.337257067035629
506.017241,,0.006122144153787781,505.921,0.5960000157356262,-2.3001261907719575
506.48275899999993,,0.006180291004391949,506.386,0.625,-2.2368940694334394
506.948276,,0.0053348959360679776,506.851,0.6069999933242798,-2.2761013111446875
507.413793,,0.004672727971823837,507.317,0.5989999771118164,-2.293565427975075
507.87931,,0.005434430619006438,507.783,0.6039999723434448,-2.2827498803605266
508.344828,,0.00794161148650968,508.245,0.6039999723434448,-2.2828679604790025
508.810345,,0.010566917854374669,508.715,0.6000000238418579,-2.2917373172669753
509.27586199999996,,0.010892852591533195,509.178,0.6169999837875366,-2.254887181905405
509.74137900000005,,0.00841948257843748,509.641,0.5759999752044678,-2.344425150670242
510.20689699999997,,0.005261116914750026,510.112,0.5839999914169312,-2.327230409854427
510.67241399999995,,0.0035501845720661437,510.574,0.5929999947547913,-2.307871416667648
511.13793100000004,,0.0029268293478623563,511.04,0.5809999704360962,-2.334270670468177
511.603448,,0.0014109665999094646,511.5,0.5809999704360962,-2.3345251342636772
512.0689659999999,,0.0018439278236329316,511.965,0.6100000143051147,-2.271589628952217
512.534483,,0.0057526187258825565,512.43,0.6060000061988831,-2.2805320800532676
513.0,,0.009051593135188106,512.895,0.5839999914169312,-2.328665685355862
513.465517,,0.011699509673504992,513.36,0.5789999961853027,-2.3397324272630526
513.931034,,0.014239012072838848,513.826,0.5960000157356262,-2.302834012621188
514.396552,,0.01659795285921114,514.296,0.6290000081062317,-2.2310369704975925
514.862069,,0.017993912352938395,514.758,0.5860000252723694,-2.3247731091195676
515.327586,,0.01772565414514036,515.226,0.6029999852180481,-2.2877452995682135
515.793103,,0.015986799482427285,515.69,0.5889999866485596,-2.3182105449622346
516.258621,,0.014031227093430975,516.152,0.48500001430511475,-2.5447124102655785
516.724138,,0.013138423163278597,516.615,0.6190000176429749,-2.2526579888805065
517.189655,,0.013108819768988091,517.08,0.5849999785423279,-2.3265798214752236
517.655172,,0.012315708353840044,517.55,0.6190000176429749,-2.252318989702893
518.1206900000001,,0.009655610698543959,518.016,0.5929999947547913,-2.3087482617400106
518.5862070000001,,0.005915481868555915,518.481,0.5920000076293945,-2.3106890309203423
519.051724,,0.0027705063488712685,518.94,0.6060000061988831,-2.2799353112624714
519.517241,,0.0009718273149361791,519.411,0.597000002861023,-2.2992830463846197
519.982759,,0.00011126780741586315,519.877,0.5799999833106995,-2.3360608292741873
520.448276,,0.00026402266856465946,520.342,0.6269999742507935,-2.233413700532207
520.9137929999999,,0.00013025407520698975,520.8,0.593999981880188,-2.3050740076334852
521.37931,,0.0005002666123976855,521.27,0.5809999704360962,-2.3331847794984717
521.844828,,0.0013203489036032949,521.733,0.6060000061988831,-2.2785374229965782
522.310345,,0.0021499376496178614,522.201,0.574999988079071,-2.3459307594205305
522.7758620000001,,0.0030360372471020147,522.663,0.6200000047683716,-2.2477873411564198
523.241379,,0.00373052147501093,523.126,0.6069999933242798,-2.2760488129753518
523.7068969999999,,0.003500799686190633,523.596,0.5950000286102295,-2.3021766610436
524.172414,,0.0017124409329034042,524.061,0.593999981880188,-2.304386121621445
524.637931,,0.0014474179645400295,524.525,0.628000020980835,-2.2303881952863125
525.103448,,0.004785976243073559,524.99,0.5910000205039978,-2.3111173526198017
525.568966,,0.006768332245031615,525.455,0.5879999995231628,-2.3178128268694635
526.034483,,0.006711694805480351,525.921,0.5960000157356262,-2.3005794705748124
526.5,,0.005258361112806755,526.385,0.5809999704360962,-2.333485845934922
526.9655170000001,,0.00335221574707623,526.851,0.5809999704360962,-2.333736704427679
527.4310340000001,,0.0010872897771748483,527.316,0.6209999918937683,-2.246857831213963
527.8965519999999,,0.00171583893838467,527.782,0.6209999918937683,-2.2471316394704663
528.362069,,0.0040324752260507135,528.245,0.609000027179718,-2.2735469573789997
528.827586,,0.003994054824472401,528.707,0.5529999732971191,-2.395814042094739
529.293103,,0.001325786208497745,529.175,0.593999981880188,-2.306736514364372
529.7586210000001,,0.0015709774063788783,529.637,0.6079999804496765,-2.276458617142511
530.224138,,0.002069421999804515,530.108,0.5920000076293945,-2.311508214058537
530.689655,,0.00034689677127107535,530.57,0.628000020980835,-2.2332297560535217
531.155172,,0.0011327842952810353,531.036,0.6150000095367432,-2.2616611261009334
531.62069,,0.0007741628424503568,531.5,0.6330000162124634,-2.2225062201481274
532.086207,,0.0007919477351515634,531.965,0.6119999885559082,-2.268268522189797
532.5517239999999,,0.0023306974943181984,532.43,0.5870000123977661,-2.322695575874645
533.017241,,0.0035037905841045734,532.896,0.593999981880188,-2.3073585151012295
533.482759,,0.00438317121211061,533.356,0.6190000176429749,-2.252760427538498
533.9482760000001,,0.004708944197593967,533.822,0.6150000095367432,-2.2613009837438818
534.413793,,0.004459623184256488,534.29,0.6119999885559082,-2.267625610066635
534.87931,,0.0045077925486126675,534.753,0.6340000033378601,-2.219452813697351
535.344828,,0.005806283529080051,535.215,0.6299999952316284,-2.2279005679810053
535.810345,,0.008039874627472084,535.685,0.6129999756813049,-2.2646547089648474
536.275862,,0.009762150170977132,536.148,0.6449999809265137,-2.194647825015183
536.7413789999999,,0.009981094967417954,536.611,0.6190000176429749,-2.2510040690329625
537.206897,,0.009155776815040043,537.077,0.671999990940094,-2.135257199469645
537.672414,,0.00848534447974496,537.547,0.6190000176429749,-2.2504654522926453
538.137931,,0.008594626177350894,538.005,0.6190000176429749,-2.2502331667804047
538.6034480000001,,0.009198691488665974,538.47,0.5460000038146973,-2.409080062404214
539.0689659999999,,0.009871440719154136,538.937,0.640999972820282,-2.201959023521406
539.5344829999999,,0.010741590853472099,539.404,0.6470000147819519,-2.188785337969736
540.0,,0.012322273562615092,539.869,0.6389999985694885,-2.206162186189904
540.465517,,0.015029005385499184,540.334,0.6859999895095825,-2.103763880336228
540.931034,,0.019130271863128826,540.799,0.6039999723434448,-2.2824622614665344
541.396552,,0.024775160330920223,541.26,0.6850000023841858,-2.106091186925976
541.862069,,0.03161430752615077,541.729,0.6439999938011169,-2.1955624758308048
542.327586,,0.03852607074804432,542.193,0.6959999799728394,-2.082461402361571
542.7931030000001,,0.04380311690626829,542.655,0.6480000019073486,-2.1872615140353573
543.258621,,0.045237449920049626,543.126,0.6710000038146973,-2.13740781777125
543.7241379999999,,0.040166912189939785,543.589,0.640999972820282,-2.203046018889817
544.189655,,0.02653931010887746,544.055,0.7200000286102295,-2.031225712701052
544.655172,,0.0048303320488751605,544.519,0.6690000295639038,-2.1426342834572885
545.12069,,0.02120712521038591,544.984,0.6919999718666077,-2.09281850938209
545.5862070000001,,0.04626212689093694,545.449,0.6949999928474426,-2.0865625010093702
546.051724,,0.06627265410154974,545.915,0.6320000290870667,-2.2240766218174617
546.517241,,0.07968870979239023,546.381,0.6669999957084656,-2.1480565361481436
546.982759,,0.08637019859126291,546.847,0.6990000009536743,-2.0785378818977955
547.448276,,0.08607200423943426,547.305,0.6880000233650208,-2.1026590297682213
547.9137929999999,,0.07861675263795503,547.77,0.6700000166893005,-2.1419841017103565
548.3793099999999,,0.06521720626892598,548.241,0.7129999995231628,-2.0483616134816613
548.844828,,0.04888606872884655,548.703,0.7160000205039978,-2.041831822808418
549.310345,,0.03330585226389756,549.167,0.7329999804496765,-2.0047463963052774
549.775862,,0.021129557569072675,549.63,0.6480000019073486,-2.1898307241704935
550.241379,,0.012501689263740446,550.096,0.7350000143051147,-2.0001393631137883
550.706897,,0.004418629773702242,550.567,0.6470000147819519,-2.19166809409096
551.172414,,0.007689912359538222,551.025,0.7070000171661377,-2.0607195409295147
551.637931,,0.025809862018923404,551.49,0.6660000085830688,-2.1497844768926506
552.103448,,0.04622360239076499,551.956,0.722000002861023,-2.027497488188436
552.568966,,0.062258340388639345,552.422,0.6919999718666077,-2.0925591683892466
553.034483,,0.07124914352089429,552.888,0.6959999799728394,-2.0835404344189072
553.5,,0.07722942627141897,553.352,0.656000018119812,-2.1703862780790453
553.965517,,0.08532975703907182,553.818,0.7099999785423279,-2.052452787922147
554.4310340000001,,0.0950218742894856,554.286,0.7260000109672546,-2.0173283752422
554.896552,,0.1007238175662863,554.748,0.6499999761581421,-2.1826682236892188
555.3620689999999,,0.09781991229786798,555.211,0.6570000052452087,-2.167218018237963
555.827586,,0.08562898400070339,555.681,0.6570000052452087,-2.167063541081106
556.293103,,0.06489173769865969,556.145,0.6710000038146973,-2.136457258386922
556.758621,,0.03552447406424475,556.607,0.6700000166893005,-2.1385824620579243
557.224138,,0.0012663892479052741,557.073,0.6660000085830688,-2.1472966862200282
557.689655,,0.040098568427720506,557.536,0.6700000166893005,-2.1386345680552914
558.155172,,0.07295984404025595,558.001,0.6629999876022339,-2.153988760331667
558.6206900000001,,0.09405964070452287,558.467,0.6600000262260437,-2.160676122553752
559.0862070000001,,0.1024965720585664,558.932,0.6850000023841858,-2.1064042536116068
559.5517239999999,,0.10063893328128509,559.397,0.6510000228881836,-2.1807089895939415
560.017241,,0.09135784925757844,559.863,0.7480000257492065,-1.9696388485936287
560.482759,,0.07728550782644492,560.33,0.6959999799728394,-2.083205623090992
560.948276,,0.06154347793899769,560.796,0.7459999918937683,-1.974558853519595
561.413793,,0.04759723052354765,561.259,0.6949999928474426,-2.0859559613048875
561.87931,,0.037715420301857976,561.722,0.7369999885559082,-1.9947307311732818
562.344828,,0.03180394689439046,562.185,0.6819999814033508,-2.114818864900377
562.8103450000001,,0.0280518654552393,562.655,0.6949999928474426,-2.086736744720964
563.275862,,0.024573345338669502,563.119,0.6259999871253967,-2.237276923289726
563.7413789999999,,0.020307927826161636,563.581,0.6990000009536743,-2.078416932103583
564.206897,,0.014879460547201292,564.047,0.6299999952316284,-2.22888807421377
564.672414,,0.008373921241065634,564.512,0.7110000252723694,-2.0525203952706232
565.137931,,0.0013728279588088468,564.977,0.6890000104904175,-2.1005082295065858
565.603448,,0.005281556970440305,565.445,0.6700000166893005,-2.1419128418518345
566.068966,,0.011018768201498434,565.911,0.628000020980835,-2.2333810192456753
566.534483,,0.015686440420947606,566.37,0.6600000262260437,-2.1635863271083355
567.0,,0.019136999191337746,566.836,0.6700000166893005,-2.1416808994482306
567.465517,,0.02099388025994099,567.308,0.6570000052452087,-2.169846109879838
567.931034,,0.021099203751778334,567.766,0.6449999809265137,-2.1957994552576934
568.396552,,0.020074799614997946,568.23,0.6430000066757202,-2.19993910629012
568.862069,,0.01913681743637058,568.7,0.6779999732971191,-2.1234475345472785
569.327586,,0.01917601401309699,569.163,0.6660000085830688,-2.1493366156925706
569.793103,,0.019951776605956022,569.626,0.6639999747276306,-2.1534305630001715
570.2586210000001,,0.02018813662256266,570.091,0.6420000195503235,-2.201096567980918
570.724138,,0.018638675172761913,570.561,0.6389999985694885,-2.2073758624497
571.189655,,0.015320488537800967,571.027,0.7039999961853027,-2.0655208233119966
571.655172,,0.011711436592086674,571.488,0.6700000166893005,-2.1393707835617404
572.12069,,0.009428913804373374,571.954,0.6399999856948853,-2.204531819634734
572.586207,,0.008546228641207904,572.418,0.6700000166893005,-2.139006002774588
573.051724,,0.007586954593165623,572.884,0.6110000014305115,-2.2674174179817395
573.517241,,0.005618645891635783,573.348,0.6460000276565552,-2.19107755626451
573.982759,,0.003921848114190275,573.814,0.6100000143051147,-2.2694664672717164
574.4482760000001,,0.004692743310709219,574.282,0.6439999938011169,-2.195395568213605
574.913793,,0.00822530216839463,574.744,0.5929999947547913,-2.3065554255958878
575.37931,,0.012400230326647494,575.207,0.6370000243186951,-2.2107879169796436
575.844828,,0.01512235364694619,575.67,0.6240000128746033,-2.239244435264879
576.310345,,0.016387152003071496,576.141,0.6309999823570251,-2.224164299447373
576.775862,,0.017635615498850787,576.603,0.6330000162124634,-2.2200083049660617
577.241379,,0.01974986499147639,577.069,0.6420000195503235,-2.200626437068376
577.706897,,0.022202723855303527,577.533,0.5809999704360962,-2.333768786142374
578.172414,,0.02390936238294714,577.999,0.6179999709129333,-2.253416258573106
578.6379310000001,,0.024229732948496018,578.464,0.6140000224113464,-2.2623933333619477
579.1034480000001,,0.022791672087199084,578.93,0.6039999723434448,-2.284439527003043
579.5689659999999,,0.018941813604366416,579.397,0.6060000061988831,-2.2803315255887306
580.034483,,0.012348004930169802,579.862,0.6200000047683716,-2.2500621094507705
580.5,,0.004072796965529489,580.327,0.6050000190734863,-2.282948703617014
580.965517,,0.003874946193038262,580.785,0.6200000047683716,-2.2504450590124554
581.431034,,0.010122768195968043,581.256,0.6209999918937683,-2.2484062383455385
581.896552,,0.01426824060861871,581.718,0.6069999933242798,-2.279006753938351
582.362069,,0.01589678676891219,582.18,0.6169999837875366,-2.2572768120153075
582.827586,,0.014796059964739731,582.65,0.6060000061988831,-2.2812540513823665
583.2931030000001,,0.012579834099020066,583.112,0.628000020980835,-2.2332910430626214
583.758621,,0.012465615201294135,583.581,0.5839999914169312,-2.3290753998467824
584.2241379999999,,0.016041551984489966,584.047,0.6330000162124634,-2.2222043248480694
584.689655,,0.02092224376646026,584.512,0.6179999709129333,-2.254728808693211
585.155172,,0.02283537774978681,584.97,0.6309999823570251,-2.2262168904537334
585.6206900000001,,0.019899016706689896,585.438,0.6060000061988831,-2.280465442964311
586.0862070000001,,0.014181268062243554,585.904,0.5929999947547913,-2.3085495445235327
586.551724,,0.009351559836483215,586.371,0.6209999918937683,-2.24729579201023
587.017241,,0.007476186790360808,586.836,0.5839999914169312,-2.3276483483651127
587.482759,,0.00795303092839351,587.297,0.574999988079071,-2.347001451167759
587.948276,,0.008801875365670384,587.767,0.5820000171661377,-2.3315071415258513
588.4137929999999,,0.008473003683933139,588.23,0.6069999933242798,-2.276814761462621
588.87931,,0.0065676830507243635,588.692,0.5839999914169312,-2.326720792631347
589.344828,,0.0036106813655519395,589.156,0.5899999737739563,-2.3134753070715837
589.810345,,0.000785128090566666,589.625,0.5960000157356262,-2.3002638603016194
590.2758620000001,,0.000502158663831323,590.091,0.5830000042915344,-2.328484699807616
590.741379,,0.00031572297848153267,590.554,0.5879999995231628,-2.3175305784309512
591.2068969999999,,0.002241913808590217,591.02,0.6039999723434448,-2.2826532721804518
591.672414,,0.0035522595400486077,591.486,0.5809999704360962,-2.3327850585392977
592.137931,,0.0033719184365305953,591.952,0.5979999899864197,-2.2958118718973233
592.603448,,0.0021377367471283352,592.411,0.593999981880188,-2.3046290853571003
593.068966,,0.0007032234972334367,592.877,0.5789999961853027,-2.337446905263984
593.534483,,0.0006017436540116824,593.342,0.6169999837875366,-2.2548275108472073
594.0,,0.002052013795051499,593.808,0.5979999899864197,-2.2964162750295194
594.4655170000001,,0.003951370060108832,594.271,0.5669999718666077,-2.364168837718107
594.9310340000001,,0.006125102293113372,594.741,0.5789999961853027,-2.3382542997862155
595.3965519999999,,0.008067857545655333,595.201,0.6039999723434448,-2.2840252596757717
595.862069,,0.009548426391358396,595.671,0.5920000076293945,-2.310406082415189
596.327586,,0.010753022572235028,596.134,0.6119999885559082,-2.2670629639262945
596.793103,,0.011704526758748777,596.596,0.5759999752044678,-2.3457104831015827
597.2586210000001,,0.01200444533726357,597.062,0.5809999704360962,-2.3350144293361828
597.724138,,0.011521583658000167,597.526,0.5889999866485596,-2.317758262529472
598.189655,,0.010980228612347903,597.991,0.5929999947547913,-2.3091873220837185
598.655172,,0.01154125835108915,598.458,0.6190000176429749,-2.252651969699228
599.12069,,0.014103887095194794,598.923,0.5979999899864197,-2.2984755981269323
599.586207,,0.019065368826891416,599.389,0.6019999980926514,-2.2897937486405002
600.0517239999999,,0.02610993128230517,599.855,0.5929999947547913,-2.3093950269274712
600.517241,,0.03388387005036489,600.32,0.5860000252723694,-2.324600559301533
600.982759,,0.040360013931109245,600.785,0.5849999785423279,-2.3266981077810787
601.448276,,0.04413051575672756,601.248,0.5929999947547913,-2.309154117224535
601.913793,,0.045416350581158164,601.711,0.5929999947547913,-2.309009117645446
602.37931,,0.04526227830293086,602.178,0.550000011920929,-2.402520837443705
602.844828,,0.04311385307782081,602.641,0.6150000095367432,-2.260718788804663
603.310345,,0.03551058484253579,603.111,0.6399999856948853,-2.2060465258378765
603.775862,,0.018505777187592783,603.574,0.5839999914169312,-2.327833448586563
604.2413789999999,,0.007820189274812112,604.04,0.5920000076293945,-2.3101832599037624
604.706897,,0.037865111960641684,604.5,0.6000000238418579,-2.292536520297807
605.172414,,0.06424964831473223,604.966,0.6050000190734863,-2.2814349138982744
605.637931,,0.08278395216429689,605.431,0.6069999933242798,-2.2768839964151706
606.1034480000001,,0.09345732879419416,605.896,0.5920000076293945,-2.3093903173153314
606.5689659999999,,0.09756373438474099,606.364,0.5839999914169312,-2.326671993065985
607.0344829999999,,0.09539445822061175,606.829,0.574999988079071,-2.346162957227525
607.5,,0.08699216184950027,607.293,0.6010000109672546,-2.2894349543053023
607.965517,,0.07391340983168192,607.756,0.5860000252723694,-2.3220670010907027
608.431034,,0.05899776237161863,608.226,0.6029999852180481,-2.2850186364659635
608.896552,,0.04427471171417524,608.689,0.6140000224113464,-2.2610777100660098
609.362069,,0.029793393739605767,609.152,0.5920000076293945,-2.3090667328796393
609.827586,,0.0150893498387329,609.615,0.6069999933242798,-2.2764785457828105
610.293103,,0.0015458481126123175,610.081,0.5920000076293945,-2.3092798751143255
610.758621,,0.0078088947446830394,610.551,0.5789999961853027,-2.3377509160242087
611.2241379999999,,0.011685261716734112,611.016,0.6169999837875366,-2.255133438761915
611.689655,,0.013024367746657176,611.481,0.5910000205039978,-2.311966266129167
612.155172,,0.016710589203547205,611.94,0.5799999833106995,-2.3361313704341673
612.62069,,0.02463813762155925,612.407,0.6110000014305115,-2.268799484275529
613.0862070000001,,0.033887905964730104,612.873,0.5360000133514404,-2.4324053478985452
613.551724,,0.03979306783762189,613.337,0.5820000171661377,-2.3323910080171046
614.017241,,0.04007756073731183,613.803,0.5059999823570251,-2.4981635269665032
614.4827590000001,,0.03606457126177011,614.27,0.5920000076293945,-2.3109809837838897
614.948276,,0.030740427750609086,614.733,0.5960000157356262,-2.302426717342599
615.4137929999999,,0.026230789857623452,615.201,0.578000009059906,-2.3417755620066085
615.8793099999999,,0.022973436689685583,615.664,0.6140000224113464,-2.2634460554554745
616.344828,,0.020599001856768977,616.126,0.5910000205039978,-2.3136220328979484
616.810345,,0.018893533096131225,616.596,0.6150000095367432,-2.2613644405666924
617.275862,,0.017904173862354076,617.062,0.6019999980926514,-2.2896787525285633
617.741379,,0.0177039632641078,617.525,0.5389999747276306,-2.426889002434999
618.206897,,0.01837529135803276,617.991,0.6190000176429749,-2.252518261625519
618.672414,,0.019960519995078824,618.456,0.6179999709129333,-2.2545849277787613
619.137931,,0.022077530319411787,618.921,0.6029999852180481,-2.287121427030752
619.603448,,0.02362830089618688,619.386,0.5979999899864197,-2.29784540707699
620.068966,,0.023297495734695098,619.852,0.5699999928474426,-2.3586584689429455
620.534483,,0.020584246544368686,620.311,0.6079999804496765,-2.275667072848031
621.0,,0.016087590548053362,620.777,0.574999988079071,-2.3473519689704765
621.465517,,0.010563755517784865,621.245,0.5799999833106995,-2.336247257791229
621.9310340000001,,0.004095362114844013,621.707,0.5830000042915344,-2.3295055546191796
622.396552,,0.0033573341164370558,622.17,0.6159999966621399,-2.2574155126337914
622.862069,,0.010846808991149495,622.64,0.5789999961853027,-2.337847154266059
623.327586,,0.016540394489648086,623.108,0.5789999961853027,-2.33769107145174
623.793103,,0.019165861264436795,623.57,0.5690000057220459,-2.3593492217140497
624.258621,,0.019051616062838592,624.036,0.5910000205039978,-2.311322013361892
624.724138,,0.017513626094419307,624.5,0.5799999833106995,-2.3352240601573353
625.189655,,0.015516633792456977,624.965,0.6000000238418579,-2.2916228370324228
625.655172,,0.013255984207332984,625.43,0.593999981880188,-2.3047018957309042
626.1206900000001,,0.010694842999442124,625.896,0.6159999966621399,-2.2568128976432913
626.5862070000001,,0.007934850426875147,626.356,0.6190000176429749,-2.250350296746202
627.0517239999999,,0.005129255454386196,626.822,0.578000009059906,-2.3397783437154134
627.5172409999999,,0.0024560877419779223,627.285,0.5720000267028809,-2.352982073868569
627.982759,,0.00022533364528852203,627.755,0.5839999914169312,-2.326995483469162
628.448276,,0.001189090139978748,628.215,0.5709999799728394,-2.3554954849686576
628.913793,,0.0015737949591496062,628.685,0.5920000076293945,-2.3099362473337055
629.37931,,0.000997818367479565,629.148,0.5979999899864197,-2.297065304086253
629.844828,,0.00023809259276747483,629.611,0.5690000057220459,-2.3604493504635573
630.3103450000001,,0.001695395368664932,630.077,0.5540000200271606,-2.3933298082063077
630.7758620000001,,0.002919006665424981,630.54,0.6060000061988831,-2.280232424496818
631.2413789999999,,0.0036761790477305547,631.005,0.5139999985694885,-2.4808463691504317
631.706897,,0.004059685328849585,631.47,0.6190000176429749,-2.2522473131286023
632.172414,,0.004131159976920072,631.936,0.5699999928474426,-2.35913514362192
632.637931,,0.003648132735858641,632.401,0.5669999718666077,-2.3657757345139268
633.103448,,0.002599412334449718,632.866,0.6050000190734863,-2.2830593008833318
633.568966,,0.0017121886855053549,633.333,0.5709999799728394,-2.3571705795610067
634.034483,,0.0016005899585727322,633.799,0.597000002861023,-2.3005264710348388
634.5,,0.0015633500178603228,634.26,0.5630000233650208,-2.3745652866976967
634.9655170000001,,0.0002792579250949492,634.729,0.5929999947547913,-2.309135910119012
635.431034,,0.0022089841168509345,635.197,0.6000000238418579,-2.2937820939000355
635.8965519999999,,0.004312656584448519,635.659,0.5680000185966492,-2.363365346592729
636.362069,,0.005002674564278277,636.12,0.6039999723434448,-2.284774694972066
636.827586,,0.004984313374211395,636.59,0.5680000185966492,-2.3630255520921417
637.293103,,0.005224297103902472,637.055,0.5669999718666077,-2.365009079751212
637.7586210000001,,0.0053558002719889695,637.522,0.5730000138282776,-2.351733632705251
638.224138,,0.00439524916586772,637.98,0.5109999775886536,-2.4866054131762874
638.689655,,0.0023275430834964403,638.452,0.5730000138282776,-2.351330651219736
639.155172,,0.00012822358623835255,638.91,0.6060000061988831,-2.2792470537760923
639.62069,,0.0013801696268838694,639.376,0.5879999995231628,-2.318288304282198
640.086207,,0.0021063359225525595,639.842,0.5649999976158142,-2.3682421828275646
640.551724,,0.0024913346576817823,640.308,0.5419999957084656,-2.4182216817519073
641.017241,,0.003121137958925327,640.774,0.5879999995231628,-2.3179042278215656
641.482759,,0.004177337432160479,641.237,0.5879999995231628,-2.317836089251303
641.9482760000001,,0.005037981029330126,641.707,0.5979999899864197,-2.2960138088742257
642.413793,,0.004800080678157194,642.167,0.5669999718666077,-2.363549702382038
642.87931,,0.0034080912592839474,642.63,0.6309999823570251,-2.2241472000446367
643.344828,,0.0020001777654843956,643.095,0.5669999718666077,-2.3636436496405286
643.810345,,0.001916293324178834,643.566,0.5690000057220459,-2.359380296433567
644.275862,,0.0033433366461582074,644.025,0.5789999961853027,-2.3377171934256213
644.7413789999999,,0.004995928090095288,644.497,0.5669999718666077,-2.3640099545303896
645.206897,,0.005307232890819448,644.955,0.5830000042915344,-2.3293215388136077
645.672414,,0.004012241054126804,645.423,0.5709999799728394,-2.3556513753299844
646.1379310000001,,0.002355091432471359,645.888,0.5669999718666077,-2.364562646849397
646.6034480000001,,0.0016662255083041578,646.356,0.5830000042915344,-2.3299057406422494
647.0689659999999,,0.0020200629430752936,646.822,0.5419999957084656,-2.4194310591401953
647.534483,,0.002449557298013454,647.282,0.5690000057220459,-2.360802034497111
648.0,,0.002238236252307706,647.751,0.5669999718666077,-2.3653416969957077
648.465517,,0.0017085427923914304,648.215,0.5830000042915344,-2.3306470121166774
648.931034,,0.001689144672162321,648.677,0.578000009059906,-2.341680022434614
649.396552,,0.002330138708821963,649.145,0.5699999928474426,-2.3592207672668284
649.862069,,0.0026573003716312527,649.608,0.574999988079071,-2.3484076381179637
650.327586,,0.0015744872419387167,650.074,0.5720000267028809,-2.3549897067093246
650.7931030000001,,0.0006717939906461304,650.537,0.5789999961853027,-2.3397499232672025
651.258621,,0.0025153704477617325,651.002,0.5789999961853027,-2.3397244754920896
651.7241379999999,,0.002887476756634976,651.467,0.597000002861023,-2.300447389586727
652.189655,,0.002507372797101949,651.933,0.578000009059906,-2.341745853338521
652.655172,,0.002887353689398463,652.397,0.628000020980835,-2.2326853337127974
653.12069,,0.004575681528657262,652.863,0.5419999957084656,-2.419892997087993
653.5862070000001,,0.006885346001434185,653.33,0.5540000200271606,-2.3935715729733538
654.051724,,0.008727438694998101,653.796,0.5720000267028809,-2.3541631784618215
654.517241,,0.00907275634539554,654.259,0.5669999718666077,-2.364853771282106
654.982759,,0.007227813089378094,654.722,0.593999981880188,-2.305822839522906
655.448276,,0.003623991554587471,655.19,0.5680000185966492,-2.362261490057525
655.9137929999999,,0.00023151035812701907,655.652,0.5960000157356262,-2.3010605909115913
656.37931,,0.0006675805463632293,656.115,0.5979999899864197,-2.296517491092108
656.844828,,0.0013473456965029573,656.585,0.5519999861717224,-2.3965683281078927
657.310345,,0.004026272801824846,657.051,0.6079999804496765,-2.274421551011807
657.7758620000001,,0.0043084746871568545,657.515,0.6079999804496765,-2.274306901762168
658.241379,,0.0013038454644017843,657.981,0.5669999718666077,-2.363548002455098
658.7068969999999,,0.0027676356528153843,658.44,0.5709999799728394,-2.354785130230815
659.172414,,0.004879591548934577,658.906,0.6029999852180481,-2.2850570223549465
659.637931,,0.004226195636886699,659.371,0.5789999961853027,-2.337369885008477
660.103448,,0.0025616711129502374,659.837,0.5879999995231628,-2.3178235047654008
660.568966,,0.001701504737196641,660.304,0.5789999961853027,-2.3375275837637486
661.034483,,0.0013606454482469857,660.77,0.593999981880188,-2.304975997737059
661.5,,0.0002402244228757875,661.23,0.6000000238418579,-2.292059785806372
661.965517,,0.004128690779337991,661.699,0.5759999752044678,-2.3445262673797433
662.4310340000001,,0.009499828684908802,662.163,0.6060000061988831,-2.2793634755825973
662.8965519999999,,0.014767138885214437,662.626,0.5669999718666077,-2.364539791461039
663.362069,,0.01930593864064704,663.091,0.5529999732971191,-2.395256882107173
663.827586,,0.024040643347675538,663.561,0.6100000143051147,-2.271290542379317
664.293103,,0.03022952816223847,664.027,0.5730000138282776,-2.3521102870916173
664.7586210000001,,0.03744518942878136,664.486,0.5879999995231628,-2.3196268733864414
665.224138,,0.04276364434496573,664.952,0.6060000061988831,-2.2805877768302145
665.689655,,0.042401979026017556,665.418,0.5759999752044678,-2.346098362938564
666.155172,,0.03476765714201012,665.884,0.6079999804496765,-2.2765025273563624
666.62069,,0.02214629450511289,666.348,0.5920000076293945,-2.3114475719242944
667.086207,,0.00905758160876641,666.814,0.5929999947547913,-2.3093186468641385
667.5517239999999,,0.0013281548378423066,667.282,0.5889999866485596,-2.318044640834929
668.017241,,0.00883592823807543,667.744,0.5860000252723694,-2.3245532869725323
668.482759,,0.01446029385155719,668.212,0.5799999833106995,-2.33756046391474
668.948276,,0.01822061099507728,668.674,0.5979999899864197,-2.2982441473353905
669.413793,,0.019912659210954826,669.137,0.6179999709129333,-2.254536780930252
669.87931,,0.021271400195348334,669.6,0.578000009059906,-2.341518091800098
670.3448279999999,,0.025881173031489277,670.066,0.5920000076293945,-2.310828088578644
670.810345,,0.03623259352777042,670.532,0.5879999995231628,-2.3193354573493177
671.275862,,0.050817157284741885,670.998,0.5799999833106995,-2.336545433756732
671.7413789999999,,0.06424456398470181,671.463,0.5910000205039978,-2.3123557812198876
672.206897,,0.07071357960899599,671.929,0.6069999933242798,-2.277274113596027
672.672414,,0.06809737895301797,672.393,0.5519999861717224,-2.3968846319201234
673.137931,,0.059066860980732036,672.859,0.574999988079071,-2.3465765367001428
673.6034480000001,,0.04830740447900049,673.326,0.5370000004768372,-2.42918902187514
674.068966,,0.03858004954574591,673.792,0.5960000157356262,-2.300500738018042
674.5344829999999,,0.02930368022068036,674.252,0.5929999947547913,-2.306919983528767
675.0,,0.018608859770661,674.722,0.5669999718666077,-2.363482330797237
675.465517,,0.006348529116054875,675.185,0.5820000171661377,-2.330757271225658
675.931034,,0.005078412390061711,675.648,0.5910000205039978,-2.311142626845707
676.396552,,0.012688074069087412,676.111,0.574999988079071,-2.3460325506873017
676.862069,,0.015534181874096309,676.581,0.5809999704360962,-2.3330297377977254
677.327586,,0.015431769453726233,677.04,0.5720000267028809,-2.352742192491263
677.793103,,0.01507053071308311,677.507,0.5830000042915344,-2.328914328938162
678.2586210000001,,0.01546544304119376,677.973,0.5709999799728394,-2.3552236796087263
678.7241379999999,,0.015553693362484631,678.438,0.578000009059906,-2.3401619132532847
679.1896549999999,,0.014265091475136592,678.903,0.5540000200271606,-2.3926562946187118
679.655172,,0.012364023258113529,679.37,0.5699999928474426,-2.3580169164797935
