Trial: ,12
Threshold: ,0.0
Maximum EMG: ,0.034357402053533714
Success: ,True

EMG Time,Raw EMG,Filtered EMG,Force Time,Raw Force (V),Filtered Force (N)
0.0,samples,3.642300182870361e-05,0.469,0.4740000069141388,-2.5674171003996675
0.46551699999999996,time,3.634352839468665e-05,0.931,0.47699999809265137,-2.560605589796375
0.9310339999999999,value,3.613111287622339e-05,1.396,0.44999998807907104,-2.6191578170079883
1.396552,,3.57807714646869e-05,1.86,0.4699999988079071,-2.5753265150758855
1.862069,,3.5287796665636376e-05,2.327,0.47600001096725464,-2.5620167941858414
2.327586,,3.464778600350318e-05,2.791,0.5659999847412109,-2.3657260703284546
2.793103,,3.3856670878165686e-05,3.257,0.46399998664855957,-2.5877663812081035
3.258621,,3.2910745477075586e-05,3.724,0.4169999957084656,-2.6900201951557077
3.724138,,3.180669564223689e-05,4.189,0.460999995470047,-2.5940636481853607
4.189654999999999,,3.0541627587147714e-05,4.654,0.4620000123977661,-2.59183806867623
4.655172,,2.911309635481708e-05,5.12,0.4659999907016754,-2.5831264282410347
5.12069,,2.75191339041858e-05,5.583,0.4620000123977661,-2.5918937199366194
5.586207,,2.5758276708735755e-05,6.046,0.45100000500679016,-2.615960327061192
6.051723999999999,,2.382959274778797e-05,6.509,0.43799999356269836,-2.644430761910305
6.517241,,2.1732707767990006e-05,6.979,0.45899999141693115,-2.598869536652288
6.982759,,1.9467830689800165e-05,7.446,0.46000000834465027,-2.596917385913691
7.448276,,1.7035778031412732e-05,7.908,0.46000000834465027,-2.5971727283708157
7.913793000000001,,1.4437997220557659e-05,8.374,0.45500001311302185,-2.608342376918687
8.379309999999998,,1.1676588662971998e-05,8.839,0.4339999854564667,-2.6543836389866637
8.844828000000001,,8.754326435101326e-06,9.305,0.46399998664855957,-2.5893182494020346
9.310345,,5.674677467768375e-06,9.764,0.45500001311302185,-2.609214938660925
9.775862,,2.4418190871647343e-06,10.23,0.46799999475479126,-2.581166759427744
10.241379,,9.393452204003083e-07,10.695,0.5320000052452087,-2.44198261222245
10.706897,,4.463171953002221e-06,11.16,0.4749999940395355,-2.5663809005097993
11.172414,,8.123265778807882e-06,11.624,0.4690000116825104,-2.5796282115104514
11.637931,,1.1912469893368096e-05,12.093,0.46399998664855957,-2.590653139314488
12.103447999999998,,1.5822858676773988e-05,12.561,0.47600001096725464,-2.564593123228562
12.568966000000001,,1.9845732776303653e-05,13.023,0.4519999921321869,-2.61691429647046
13.034483,,2.3971616736971712e-05,13.487,0.4699999988079071,-2.577681182248679
13.5,,2.8190259298605763e-05,13.949,0.4659999907016754,-2.5863278075829226
13.965517,,3.2490636473698604e-05,14.415,0.45899999141693115,-2.60146181878376
14.431034,,3.686095751531422e-05,14.886,0.45100000500679016,-2.6187299737099154
14.896552,,4.128867387875025e-05,15.344,0.4729999899864197,-2.570599187156359
15.362069,,4.576049127447411e-05,15.809,0.46700000762939453,-2.5834365538806394
15.827586000000002,,5.026238490305009e-05,16.275,0.4950000047683716,-2.522172407000709
16.293103,,5.477961795535729e-05,16.742,0.46399998664855957,-2.589428809039903
16.758621,,5.929676345336447e-05,17.208,0.45100000500679016,-2.6174592265997534
17.224138,,6.3797729498078e-05,17.672,0.4560000002384186,-2.6062737769414634
17.689655,,6.826578798201877e-05,18.138,0.44600000977516174,-2.6277770495760926
18.155172,,7.268360681371854e-05,18.601,0.46799999475479126,-2.579581182239453
18.62069,,7.70332856912666e-05,19.064,0.47999998927116394,-2.553196643851583
19.086207,,8.129639545089255e-05,19.534,0.45899999141693115,-2.5987392766809734
19.551724,,8.545402100495785e-05,19.997,0.47200000286102295,-2.570246308897504
20.017241000000002,,8.948680787156088e-05,20.465,0.4699999988079071,-2.5744767910819024
20.482758999999998,,9.337501228526042e-05,20.927,0.4659999907016754,-2.583112073478858
20.948276,,9.709855486521013e-05,21.393,0.46299999952316284,-2.5896188675118195
21.413793000000002,,0.00010063707780329814,21.857,0.46399998664855957,-2.5874624026973665
21.87931,,0.00010397000552072858,22.322,0.460999995470047,-2.5940712014455785
22.344828,,0.00010707660872689669,22.786,0.46799999475479126,-2.578941991365432
22.810344999999998,,0.00010993607179942898,23.252,0.46299999952316284,-2.5900012044333414
23.275862,,0.00011252756338892148,23.717,0.47999998927116394,-2.5531694707210315
23.741379,,0.00011483031013625108,24.183,0.47699999809265137,-2.559943218137125
24.206897,,0.0001168236733743996,24.65,0.4620000123977661,-2.5928860960270694
24.672414,,0.00011848722867056239,25.115,0.46399998664855957,-2.588809929704092
25.137931,,0.00011980084804795945,25.576,0.45100000500679016,-2.6174231807977484
25.603448,,0.00012074478471027905,26.046,0.45500001311302185,-2.609000666860514
26.068966,,0.00012129976007511228,26.509,0.4519999921321869,-2.6158211905664586
26.534483,,0.00012144705290613962,26.971,0.46299999952316284,-2.5921240506390864
27.0,,0.000121168590317264,27.437,0.45500001311302185,-2.6097962162768082
27.465517,,0.00012044704040540817,27.901,0.45500001311302185,-2.6100067402095775
27.931034,,0.00011926590625237209,28.367,0.4650000035762787,-2.588391697201904
28.396552,,0.0001176096210200418,28.832,0.46399998664855957,-2.590696962966745
28.862069,,0.00011546364384742245,29.297,0.45500001311302185,-2.610382471155004
29.327586,,0.00011281455624250077,29.764,0.44699999690055847,-2.627838542257322
29.793103000000002,,0.0001096501586469003,30.23,0.46000000834465027,-2.599491285137403
30.258620999999998,,0.00010595956683674445,30.695,0.46700000762939453,-2.584164444328265
30.724138,,0.00010173330780916239,31.161,0.49000000953674316,-2.533928953527271
31.189655000000002,,9.696341479053513e-05,31.623,0.46299999952316284,-2.5925789727202613
31.655172000000004,,9.164352098995737e-05,32.085,0.46399998664855957,-2.5901856644167895
32.12069,,8.576895170956322e-05,32.553,0.46000000834465027,-2.5986514824493954
32.586207,,7.933681441240279e-05,33.016,0.45899999141693115,-2.60055518384159
33.051724,,7.234608633854233e-05,33.483,0.4569999873638153,-2.6046198734808943
33.517241000000006,,6.479769925106537e-05,33.945,0.460999995470047,-2.5956040567605685
33.982759,,5.6694620885754996e-05,34.411,0.453000009059906,-2.6127327810074563
34.448276,,4.804193267151055e-05,34.875,0.4690000116825104,-2.577583933858606
34.913793,,3.8846903283071544e-05,35.341,0.46299999952316284,-2.5903840586989535
35.37931,,2.9119057583458974e-05,35.807,0.46299999952316284,-2.590139297814399
35.844828,,1.8870240510771584e-05,36.273,0.46799999475479126,-2.5790360005973807
36.310345,,8.114675462660643e-06,36.739,0.47600001096725464,-2.5614376693568515
36.775862,,3.130983267981057e-06,37.204,0.45899999141693115,-2.5983518919742377
37.241378999999995,,1.4847604450777947e-05,37.664,0.46299999952316284,-2.589565035356408
37.706897000000005,,2.7013540710285605e-05,38.13,0.44699999690055847,-2.624404675092771
38.172414,,3.960459658910271e-05,38.598,0.4729999899864197,-2.5677953279398573
38.637931,,5.259400431079434e-05,39.06,0.46299999952316284,-2.5896701593907068
39.103448,,6.59524076629948e-05,39.528,0.49000000953674316,-2.5309846124874316
39.568965999999996,,7.964785441045166e-05,39.99,0.4490000009536743,-2.6204927364105948
40.034483,,9.364579763526174e-05,40.454,0.45100000500679016,-2.616359880599225
40.5,,0.00010790910638709946,40.923,0.47200000286102295,-2.5708671663204052
40.965517,,0.00012239808600981607,41.389,0.45100000500679016,-2.616903838550221
41.431034,,0.00013707050849236967,41.854,0.49900001287460327,-2.5126305789482957
41.896552,,0.00015188165317161066,42.32,0.453000009059906,-2.613157423352089
42.362069000000005,,0.00016678435809198256,42.779,0.46399998664855957,-2.5894994578821096
42.827586000000004,,0.00018172908230269978,43.245,0.46399998664855957,-2.5897957119696398
43.293103,,0.00019666397934642765,43.709,0.4690000116825104,-2.579178314156283
43.758621,,0.00021153498216493002,44.175,0.4659999907016754,-2.5859611486718843
44.224138,,0.00022628589961657671,44.649,0.45100000500679016,-2.61885122748854
44.689655,,0.00024085852476804506,45.108,0.46399998664855957,-2.5906964918333855
45.155172,,0.0002551927550880352,45.572,0.46000000834465027,-2.599530538778527
45.620689999999996,,0.00026922672463438913,46.034,0.453000009059906,-2.614848577072107
46.086206999999995,,0.0002828969482877082,46.505,0.4650000035762787,-2.5887181111780757
46.551724,,0.000296138478044461,46.968,0.46000000834465027,-2.5995696125520915
47.017241,,0.000308885071340728,47.433,0.45899999141693115,-2.6016525475923564
47.482759,,0.0003210693713342212,47.896,0.47699999809265137,-2.5622895904770844
47.948276,,0.00033262309902712465,48.362,0.4620000123977661,-2.594774483228868
48.413793,,0.0003434772570657281,48.827,0.4690000116825104,-2.579287479873155
48.879310000000004,,0.00035356234500486867,49.293,0.4569999873638153,-2.605160600320576
49.344828,,0.00036280858577597287,49.757,0.46399998664855957,-2.5896134876728216
49.810345,,0.0003711461630471226,50.223,0.414000004529953,-2.698233449296478
50.275862,,0.00037850546911219127,50.687,0.453000009059906,-2.61294833004935
50.741379,,0.0003848173628938466,51.153,0.45100000500679016,-2.6169917368506126
51.206897,,0.00039001343759225034,51.616,0.46399998664855957,-2.5883680089958903
51.672414,,0.00039402629745776346,52.086,0.46700000762939453,-2.5815519769439157
52.137931,,0.0003967898431120538,52.546,0.4429999887943268,-2.6335895530341924
52.603448,,0.0003982395647878857,53.009,0.4569999873638153,-2.6028767194970714
53.068966,,0.00039831284280373013,53.479,0.44699999690055847,-2.6244964300104807
53.534483,,0.00039694925453536654,53.942,0.46399998664855957,-2.5873426453439574
54.0,,0.0003940908870930584,54.408,0.4560000002384186,-2.604708427355999
54.465517,,0.0003896826548598799,54.874,0.4339999854564667,-2.6526312210266894
54.931034,,0.00038367262099457753,55.34,0.46799999475479126,-2.5786061768636452
55.396552,,0.00037601232195118127,55.805,0.49300000071525574,-2.5242428652370865
55.862069,,0.0003666570940176744,56.27,0.46000000834465027,-2.596291147701424
56.327586,,0.00035556640082762156,56.735,0.4569999873638153,-2.6030263097229116
56.793102999999995,,0.00034270416075198084,57.194,0.4519999921321869,-2.61415996218437
57.258621000000005,,0.0003280390730336373,57.661,0.46799999475479126,-2.5795760341739618
57.724138,,0.00031154494148473763,58.127,0.46399998664855957,-2.588590529480787
58.189655,,0.00029320099452692964,58.595,0.460999995470047,-2.5954426653189095
58.655172,,0.0002729922003173742,59.057,0.453000009059906,-2.6131951884559865
59.120689999999996,,0.0002509095756691499,59.52,0.46299999952316284,-2.591729633913776
59.586207,,0.00022695048744367244,59.99,0.45399999618530273,-2.611646176156578
60.051724,,0.0002011189450652525,60.453,0.45899999141693115,-2.60104006685017
60.517241,,0.00017342588278417343,60.916,0.45100000500679016,-2.6187261404234317
60.982758999999994,,0.0001438894302949308,61.382,0.46399998664855957,-2.5906224867489827
61.448276,,0.00011253517030079349,61.849,0.45500001311302185,-2.6104038990903415
61.913793,,7.93963816048517e-05,62.315,0.45899999141693115,-2.6018124266424674
62.379310000000004,,4.451426630145773e-05,62.779,0.4779999852180481,-2.5604863577686197
62.84482800000001,,7.93815964066124e-06,63.245,0.45899999141693115,-2.601891397246206
63.310345000000005,,3.0274278857872786e-05,63.709,0.46399998664855957,-2.5909510796563953
63.775862000000004,,7.005689445569273e-05,64.174,0.46700000762939453,-2.5843115567401473
64.241379,,0.00011133488781048912,64.635,0.45100000500679016,-2.619013031704736
64.706897,,0.00015402468853382604,65.106,0.4490000009536743,-2.6231652103537693
65.172414,,0.00019803385304375935,65.569,0.46299999952316284,-2.5924169639687547
65.637931,,0.0002432609880316507,66.031,0.4690000116825104,-2.579062600421321
66.103448,,0.0002895957008234173,66.494,0.46299999952316284,-2.5918248716415224
66.56896599999999,,0.00033691857787001883,66.964,0.46299999952316284,-2.59149743843809
67.03448300000001,,0.00038510119255008725,67.429,0.45100000500679016,-2.6173062347435696
67.5,,0.00043400614340906145,67.892,0.453000009059906,-2.612616966613708
67.965517,,0.00048348712389379014,68.358,0.45399999618530273,-2.6101196283951986
68.431034,,0.0005333890245693561,68.824,0.47699999809265137,-2.559714422810603
68.896552,,0.0005835480687261595,69.29,0.47699999809265137,-2.559448784991185
69.362069,,0.0006337919822001667,69.754,0.46399998664855957,-2.5875442449269235
69.827586,,0.0006839401981370479,70.22,0.460999995470047,-2.593899417788078
70.293103,,0.0007338040973310677,70.679,0.4959999918937683,-2.51751760854356
70.75862099999999,,0.0007831872846628947,71.145,0.47600001096725464,-2.561016427327421
71.22413800000001,,0.0008318859020490748,71.612,0.3790000081062317,-2.7723307310908534
71.689655,,0.0008796889781999386,72.075,0.46000000834465027,-2.595908150847739
72.15517200000001,,0.0009263788153582008,72.542,0.4650000035762787,-2.585123068858585
72.62069,,0.0009717314130543254,73.005,0.4620000123977661,-2.5918225314003247
73.086207,,0.0010155169287728867,73.472,0.46399998664855957,-2.587679362834187
73.551724,,0.0010575001752884566,73.935,0.4880000054836273,-2.535649511456468
74.017241,,0.0010974411542975274,74.401,0.45899999141693115,-2.599123735033772
74.482759,,0.0011350956258190607,74.864,0.45899999141693115,-2.5994445333530414
74.94827599999999,,0.0011702157126457747,75.33,0.46700000762939453,-2.5823542753640156
75.41379300000001,,0.0012025505389429703,75.794,0.45399999618530273,-2.6110235850519037
75.87931,,0.001231846901975749,76.259,0.46399998664855957,-2.5895814579824368
76.344828,,0.001257849975865393,76.724,0.46399998664855957,-2.589912679685392
76.810345,,0.0012803040460735516,77.189,0.46299999952316284,-2.5923990976313114
77.275862,,0.0012989532729329647,77.654,0.4690000116825104,-2.579602016497695
77.741379,,0.0013135424822669109,78.119,0.45899999141693115,-2.6016219353980046
78.206897,,0.0013238179813068443,78.59,0.4650000035762787,-2.58873483819205
78.67241399999999,,0.0013295283984233021,79.053,0.4519999921321869,-2.6171879780168137
79.137931,,0.0013304255446870495,79.52,0.46000000834465027,-2.5998313201611074
79.603448,,0.0013262652938535924,79.982,0.4429999887943268,-2.6368806909805897
80.068966,,0.001316808476856149,80.45,0.45399999618530273,-2.612867190876511
80.53448300000001,,0.0013018217890213807,80.912,0.4519999921321869,-2.617116648054538
81.0,,0.0012810787105769134,81.378,0.46399998664855957,-2.5908081301458523
81.465517,,0.0012543604381382552,81.842,0.460999995470047,-2.59712678187073
81.931034,,0.0012214568173494092,82.308,0.45500001311302185,-2.6099351501786736
82.396552,,0.0011821672664208778,82.773,0.47200000286102295,-2.572596160607388
82.86206899999999,,0.001136301695064982,83.239,0.4620000123977661,-2.5940508100052204
83.327586,,0.001083681435649934,83.705,0.45399999618530273,-2.6111285150796175
83.79310299999999,,0.0010241401825625892,84.171,0.4690000116825104,-2.5780883181168264
84.258621,,0.0009575248935179357,84.634,0.4699999988079071,-2.5755508639771234
84.72413800000001,,0.0008836966154073197,85.097,0.46299999952316284,-2.590454920734441
85.189655,,0.0008025312909673084,85.565,0.45500001311302185,-2.6075609767166372
85.65517200000001,,0.0007139206588536106,86.027,0.4560000002384186,-2.605093023536059
86.12069,,0.0006177732117679269,86.49,0.4659999907016754,-2.583059924472176
86.586207,,0.0005140149433387212,86.96,0.47200000286102295,-2.5697913184774794
87.051724,,0.00040258973190118535,87.419,0.4970000088214874,-2.5151837275423468
87.517241,,0.00028345978396213345,87.889,0.43799999356269836,-2.6436427636797637
87.98275899999999,,0.000156606776966507,88.355,0.46000000834465027,-2.5956953928583006
88.448276,,2.2033332322688462e-05,88.819,0.45100000500679016,-2.6153518053311164
88.913793,,0.00012023680078600395,89.285,0.44699999690055847,-2.624179499770569
89.37931,,0.0002701603935996496,89.751,0.4749999940395355,-2.563351618873817
89.844828,,0.00042767533061071944,90.209,0.453000009059906,-2.6115118072861936
90.310345,,0.0005926967371746193,90.676,0.460999995470047,-2.5943616426161955
90.775862,,0.0007651118683617999,91.142,0.46399998664855957,-2.5881455571353853
91.241379,,0.0009447833532714536,91.61,0.4429999887943268,-2.6342484300226245
91.706897,,0.0011315618222518422,92.072,0.4650000035762787,-2.586690481245882
92.17241399999999,,0.0013252890167169767,92.535,0.4620000123977661,-2.5936082107883722
92.63793100000001,,0.0015257742000675094,93.004,0.453000009059906,-2.6135954952000047
93.103448,,0.0017327690352649478,93.468,0.45399999618530273,-2.6117826521130123
93.568966,,0.001945996339472481,93.931,0.45500001311302185,-2.6099448827433753
94.03448300000001,,0.002165225175305662,94.396,0.46399998664855957,-2.5906422989293225
94.5,,0.002390272331155172,94.861,0.4519999921321869,-2.6170458359330073
94.965517,,0.0026208500191357673,95.326,0.47600001096725464,-2.564964103365584
95.431034,,0.0028564424846172945,95.79,0.45399999618530273,-2.6130395370226798
95.896552,,0.0030965221156209056,96.255,0.45899999141693115,-2.6022261273395757
96.36206899999999,,0.0033409771416533147,96.72,0.46399998664855957,-2.591344740075747
96.827586,,0.003590010241519903,97.186,0.46799999475479126,-2.582572899678023
97.293103,,0.0038431802421720284,97.65,0.46399998664855957,-2.5911624334359775
97.758621,,0.004098848435315626,98.115,0.46399998664855957,-2.5909730678381337
98.224138,,0.0043557098912719175,98.583,0.46399998664855957,-2.590724995340799
98.689655,,0.00461515616875536,99.046,0.44999998807907104,-2.6209269101363435
99.155172,,0.004880014144641756,99.509,0.4749999940395355,-2.56611940946861
99.62069,,0.00514868474867885,99.979,0.46399998664855957,-2.5897110562245675
100.086207,,0.005413064047711845,100.446,0.4009999930858612,-2.7265726525185454
100.551724,,0.005668940599355304,100.908,0.4650000035762787,-2.5867393664104257
101.017241,,0.00592856768881829,101.374,0.47600001096725464,-2.562378854034989
101.482759,,0.006209316249836372,101.839,0.46299999952316284,-2.590321066070197
101.948276,,0.006498775719630277,102.305,0.46399998664855957,-2.5877892835830583
102.413793,,0.006750252160015856,102.765,0.4620000123977661,-2.5918316742054426
102.87931,,0.006950942710274097,103.23,0.4729999899864197,-2.5675997565233377
103.344828,,0.007185573839515745,103.694,0.45399999618530273,-2.608783719655067
103.810345,,0.007546961671451917,104.16,0.4659999907016754,-2.5824931102773085
104.275862,,0.007933773267281808,104.628,0.45899999141693115,-2.5976652611336477
104.741379,,0.00807325004704796,105.09,0.4560000002384186,-2.6041941282193815
105.206897,,0.007956383311417951,105.561,0.4869999885559082,-2.536720583809101
105.672414,,0.008142043857967119,106.023,0.45500001311302185,-2.606571411853861
106.13793100000001,,0.00910556642241756,106.491,0.47999998927116394,-2.552305350595596
106.603448,,0.010046066898792665,106.953,0.4519999921321869,-2.6135681211730413
107.068966,,0.00904110414492739,107.418,0.4620000123977661,-2.5920954567407977
107.534483,,0.005195526962888746,107.881,0.4519999921321869,-2.61424019327115
108.0,,0.00017312189393443143,108.347,0.3889999985694885,-2.7518882579137247
108.46551699999999,,0.003386452961262826,108.812,0.4740000069141388,-2.567120252322491
108.931034,,0.004631703933398135,109.278,0.45500001311302185,-2.6089413537185306
109.396552,,0.004801734664839682,109.743,0.4569999873638153,-2.60500636025998
109.862069,,0.005244036711997519,110.209,0.45399999618530273,-2.6119472082619426
110.32758600000001,,0.006082161081497632,110.675,0.4869999885559082,-2.5404261666523436
110.793103,,0.006655937525203185,111.134,0.4659999907016754,-2.58650902531255
111.258621,,0.006650137068691705,111.602,0.4569999873638153,-2.606394802908545
111.724138,,0.006699337302533339,112.064,0.453000009059906,-2.615325891301063
112.189655,,0.007869926203933952,112.535,0.453000009059906,-2.6154743173462127
112.655172,,0.01044016892117881,112.997,0.45100000500679016,-2.6199070641466773
113.12069,,0.013422480981556503,113.461,0.47699999809265137,-2.563261470710307
113.586207,,0.01554252590736965,113.93,0.5659999847412109,-2.3692817979140584
114.051724,,0.016488688392182007,114.396,0.460999995470047,-2.597881080487466
114.51724100000001,,0.016969300150632846,114.86,0.4699999988079071,-2.5780421878146536
114.982759,,0.017719091021577333,115.319,0.46299999952316284,-2.5929982606096993
115.448276,,0.018710668077715497,115.79,0.46299999952316284,-2.592649453906981
115.913793,,0.01936105160793441,116.249,0.46399998664855957,-2.5900785200587073
116.37931,,0.019390907096808085,116.721,0.46299999952316284,-2.5918334068372553
116.84482799999999,,0.01936232445056505,117.179,0.4519999921321869,-2.6153567473934967
117.310345,,0.02036066663426017,117.646,0.45899999141693115,-2.599660311190476
117.77586199999999,,0.02325427823305863,118.112,0.47999998927116394,-2.5534721240651037
118.241379,,0.028164616671618143,118.579,0.47600001096725464,-2.561772218324659
118.70689700000001,,0.0342084288442961,119.041,0.4830000102519989,-2.546141930706535
119.172414,,0.039575501037059264,119.505,0.45500001311302185,-2.6068113786784957
119.63793100000001,,0.04234631017843906,119.975,0.46399998664855957,-2.5869292028744035
120.103448,,0.04160258067721998,120.441,0.45100000500679016,-2.6150447579138003
120.568966,,0.03736121523187693,120.899,0.45399999618530273,-2.6083764803461094
121.034483,,0.029206719599200456,121.365,0.4569999873638153,-2.601787138757429
121.5,,0.01584135483336865,121.831,0.43799999356269836,-2.643209063466766
121.96551699999999,,0.003012295148328118,122.296,0.45100000500679016,-2.6149949711220035
122.431034,,0.024438054798642927,122.765,0.46399998664855957,-2.5868581246011257
122.896552,,0.04300564693006337,123.231,0.45899999141693115,-2.5980078026224964
123.362069,,0.05409421911135312,123.69,0.46399998664855957,-2.5874338592332955
123.827586,,0.056504705809855574,124.156,0.460999995470047,-2.594342024403668
124.293103,,0.052276200604994646,124.624,0.4569999873638153,-2.603470372188673
124.758621,,0.044987309659520434,125.086,0.45100000500679016,-2.616984914111781
125.22413800000001,,0.03829032235702993,125.549,0.47600001096725464,-2.5629763366747373
125.68965500000002,,0.03449356835694963,126.019,0.46399998664855957,-2.589577928867238
126.15517200000001,,0.03316622268294657,126.48,0.45399999618530273,-2.6118080776606423
126.62069000000001,,0.03153530648195094,126.949,0.45899999141693115,-2.6013310498238575
127.086207,,0.02731022057878687,127.415,0.46299999952316284,-2.592992021416543
127.55172400000001,,0.02120251373467688,127.878,0.46399998664855957,-2.5911362640318516
128.017241,,0.016184007566790875,128.344,0.46399998664855957,-2.591396080838298
128.48275900000002,,0.014246515306499296,128.809,0.4819999933242798,-2.552368539103204
128.948276,,0.014287302554097873,129.275,0.45399999618530273,-2.6134810469870713
129.413793,,0.013402108551102715,129.735,0.45399999618530273,-2.6135106912955135
129.87931,,0.00998973057292742,130.2,0.4659999907016754,-2.5873151006686874
130.344828,,0.00508976569922631,130.665,0.45500001311302185,-2.6111481519938
130.81034499999998,,0.0007286151248236047,131.131,0.4659999907016754,-2.5869747433810333
131.275862,,0.0022609495421696377,131.594,0.45100000500679016,-2.619376296264394
131.741379,,0.004438929445531046,132.064,0.46399998664855957,-2.5907145644416616
132.206897,,0.006609406461436522,132.524,0.45500001311302185,-2.609932272440314
132.67241399999997,,0.009215909428113352,132.994,0.45899999141693115,-2.6007889857339492
133.13793099999998,,0.012429934176856568,133.454,0.46700000762939453,-2.5829055217896832
133.60344800000001,,0.016135481760656427,133.924,0.45100000500679016,-2.61729822181075
134.06896600000002,,0.019972759175555806,134.389,0.47699999809265137,-2.560190668406041
134.53448300000002,,0.02379119460404124,134.849,0.45100000500679016,-2.6163901043172624
135.0,,0.027849101754548234,135.315,0.45100000500679016,-2.6159763596411465
135.465517,,0.032096965783526415,135.783,0.45100000500679016,-2.615607759896307
135.931034,,0.0351775908006971,136.248,0.4690000116825104,-2.5760798433192793
136.396552,,0.03452444067477473,136.712,0.4519999921321869,-2.6128705681809725
136.862069,,0.028049757942513853,137.178,0.4729999899864197,-2.5669461523666577
137.327586,,0.016094325721840583,137.65,0.46399998664855957,-2.586460015262496
137.793103,,0.0016008988533527512,138.108,0.46000000834465027,-2.5951624944184286
138.258621,,0.011811555447808826,138.569,0.45100000500679016,-2.614841242930299
138.724138,,0.02192111613503901,139.039,0.45399999618530273,-2.6084575167265007
139.189655,,0.028348243915023583,139.502,0.4480000138282776,-2.621758479036226
139.655172,,0.031711235281286776,139.964,0.4690000116825104,-2.5763056417731445
140.12069,,0.03278042823765959,140.43,0.46399998664855957,-2.5875576540162215
140.586207,,0.03209823789532319,140.9,0.4490000009536743,-2.62064499862978
141.05172399999998,,0.029883363941565853,141.366,0.46299999952316284,-2.590588256080419
141.51724099999998,,0.026177028358463927,141.824,0.45500001311302185,-2.608484589764489
141.982759,,0.021218567927568564,142.29,0.4830000102519989,-2.5479573965520355
142.44827600000002,,0.015763647957902843,142.757,0.45399999618530273,-2.6116058961306177
142.913793,,0.0109290996081796,143.223,0.4659999907016754,-2.5859081812814586
143.37931,,0.0074618962583006205,143.688,0.4740000069141388,-2.568889461234847
143.844828,,0.005052771366794553,144.153,0.46399998664855957,-2.5910377843358443
144.310345,,0.0025684641420421687,144.616,0.45500001311302185,-2.6109477040647744
144.77586200000002,,0.0008807738268413917,145.086,0.4699999988079071,-2.5785012404247594
145.241379,,0.005111296744193983,145.546,0.45500001311302185,-2.6113378315708156
145.706897,,0.008982868381038829,146.009,0.46399998664855957,-2.5918056854224885
146.172414,,0.011255527946830319,146.479,0.4740000069141388,-2.5700108184893997
146.637931,,0.011583529619221593,146.942,0.45500001311302185,-2.611312780207242
147.103448,,0.010865963147561018,147.407,0.46399998664855957,-2.5915317058320277
147.568966,,0.010428310439249919,147.874,0.47999998927116394,-2.5564240798128317
148.034483,,0.010744433104980645,148.34,0.46299999952316284,-2.593143110580243
148.5,,0.011212173981376403,148.805,0.47200000286102295,-2.5731585006954516
148.965517,,0.011236613274926163,149.27,0.5410000085830688,-2.4224065150575185
149.43103399999998,,0.011073375724982844,149.735,0.45100000500679016,-2.6180235391791054
149.89655199999999,,0.011290649822579489,150.194,0.45500001311302185,-2.608827733547099
150.362069,,0.011759491648542278,150.661,0.45899999141693115,-2.599628793006572
150.82758600000003,,0.011675351620320544,151.126,0.45399999618530273,-2.610049519400789
151.293103,,0.010545494729532725,151.595,0.47200000286102295,-2.570387799450271
151.758621,,0.008796808833018347,152.057,0.46399998664855957,-2.5874110731527287
152.224138,,0.007268160598406106,152.52,0.45899999141693115,-2.597951232084129
152.68965500000002,,0.0063071468159540825,152.99,0.46399998664855957,-2.5867691527211356
153.155172,,0.005649917238943039,153.454,0.4830000102519989,-2.5451588095883704
153.62069,,0.005129008677411404,153.916,0.4560000002384186,-2.6038458255144334
154.086207,,0.005016498833440772,154.382,0.46700000762939453,-2.579828365524694
154.551724,,0.005408179403803289,154.849,0.4569999873638153,-2.6016488434468115
155.017241,,0.005700902426521223,155.315,0.46000000834465027,-2.595232170137898
155.482759,,0.005198025781772894,155.779,0.47200000286102295,-2.5692892773868268
155.948276,,0.004099359741255461,156.245,0.4830000102519989,-2.545599634709215
156.413793,,0.0034039377293521725,156.705,0.4650000035762787,-2.585156623599438
156.87931,,0.003693405178741593,157.171,0.45500001311302185,-2.607340206160742
157.34482799999998,,0.004259244870589474,157.638,0.4519999921321869,-2.6143175390441318
157.81034499999998,,0.0036537994227117915,158.101,0.47600001096725464,-2.562501557529232
158.275862,,0.0011751019125108527,158.564,0.4569999873638153,-2.604382644939754
158.741379,,0.0021503103938242066,159.034,0.46700000762939453,-2.583082695568542
159.20689700000003,,0.004152705952184175,159.498,0.4659999907016754,-2.5857325914377665
159.672414,,0.0033929658372132835,159.96,0.4620000123977661,-2.5948880959861005
160.137931,,0.0005431836057947953,160.426,0.4339999854564667,-2.656287850186305
160.60344800000001,,0.002481258140840564,160.889,0.460999995470047,-2.5978064435423027
161.06896600000002,,0.004964269635965316,161.354,0.47200000286102295,-2.574116500084061
161.534483,,0.008494609034147237,161.819,0.4620000123977661,-2.5961017282464565
162.0,,0.015178326098993515,162.285,0.46399998664855957,-2.5918605081948125
162.465517,,0.024990731589916784,162.75,0.45500001311302185,-2.6114980454921892
162.931034,,0.03535960615561602,163.216,0.47999998927116394,-2.5569740629420243
163.396552,,0.04330836584523155,163.684,0.46000000834465027,-2.6004028882691173
163.862069,,0.047544438253257604,164.149,0.4749999940395355,-2.567497109203166
164.327586,,0.048171850920236264,164.613,0.453000009059906,-2.615126514660364
164.793103,,0.04466138724672439,165.075,0.4569999873638153,-2.606046137975474
165.258621,,0.03489379534588072,165.546,0.45899999141693115,-2.601269622078577
165.72413799999998,,0.01696406499119024,166.008,0.47200000286102295,-2.5724872362763573
166.189655,,0.007855111272215939,166.469,0.46399998664855957,-2.589429822403857
166.655172,,0.03429899310788831,166.939,0.47600001096725464,-2.5627876849200057
167.12069,,0.055753060928785875,167.405,0.45100000500679016,-2.6167598025043373
167.58620699999997,,0.06812233220120163,167.869,0.4309999942779541,-2.65985949242123
168.051724,,0.07162855578335973,168.334,0.453000009059906,-2.611492382068881
168.517241,,0.06951476606039213,168.794,0.4690000116825104,-2.5762467204333563
168.98275900000002,,0.06529285705232271,169.26,0.4819999933242798,-2.547597528558179
169.44827600000002,,0.06071691367528277,169.724,0.4519999921321869,-2.6127008101192013
169.913793,,0.055567106823874286,170.189,0.46700000762939453,-2.5798442003690765
170.37931,,0.04896419651594913,170.657,0.47999998927116394,-2.5514297848352037
170.844828,,0.040950528423435696,171.123,0.45899999141693115,-2.59717691598411
171.310345,,0.03290682594849942,171.586,0.4569999873638153,-2.6016181743003073
171.775862,,0.026327440171262022,172.049,0.4659999907016754,-2.5821806092314836
172.241379,,0.02110223774089903,172.52,0.45500001311302185,-2.606397098887732
172.706897,,0.015349756984255475,172.983,0.453000009059906,-2.6110795081575215
173.172414,,0.007497277438366907,173.453,0.46399998664855957,-2.5875032720168165
173.637931,,0.0015519588261573725,173.916,0.46700000762939453,-2.581407401472282
174.103448,,0.009035719628698318,174.374,0.45899999141693115,-2.5993141575285414
174.568966,,0.013299420321168603,174.842,0.47699999809265137,-2.560598400862095
175.034483,,0.015377568246677941,175.307,0.46000000834465027,-2.598141949231837
175.5,,0.01718520599307514,175.773,0.4699999988079071,-2.576852860735826
175.96551699999998,,0.019029303912255716,176.238,0.45899999141693115,-2.6012908075086374
176.43103399999998,,0.019921759686495375,176.705,0.43799999356269836,-2.6474763926577496
176.896552,,0.01980385875863538,177.171,0.4650000035762787,-2.589034760821749
177.36206900000002,,0.020061610425894823,177.631,0.45500001311302185,-2.6111385663704896
177.827586,,0.021701286189123266,178.094,0.46299999952316284,-2.593951728564275
178.293103,,0.024246528929688784,178.564,0.46299999952316284,-2.5941111116802844
178.758621,,0.027057077328583794,179.027,0.45100000500679016,-2.620326157813474
179.224138,,0.0307834493271361,179.49,0.492000013589859,-2.530981851917374
179.68965500000002,,0.03639834104840558,179.96,0.4779999852180481,-2.5613717021620026
180.155172,,0.04311538955983014,180.426,0.4749999940395355,-2.567707769551781
180.62069,,0.04846351276800677,180.888,0.453000009059906,-2.6153564681544763
181.086207,,0.05067979760325013,181.354,0.49000000953674316,-2.5343920701355223
181.551724,,0.05019401593320461,181.815,0.46299999952316284,-2.59279895371411
182.01724099999998,,0.048379290764474996,182.281,0.46399998664855957,-2.5901546711466423
182.482759,,0.045462990146048106,182.746,0.46799999475479126,-2.58094037352786
182.948276,,0.04013675608944616,183.211,0.4560000002384186,-2.6065661845809958
183.413793,,0.030926317942924,183.677,0.46000000834465027,-2.597331901868747
183.87931,,0.017676515374991205,184.142,0.45100000500679016,-2.616434988465318
184.34482799999998,,0.001998719238804601,184.605,0.46799999475479126,-2.578923967187619
184.81034499999998,,0.013386586909077184,185.075,0.46299999952316284,-2.589388539244039
185.27586200000002,,0.02588550382214641,185.535,0.43799999356269836,-2.643485357481133
185.74137900000002,,0.0341460118068311,186.005,0.47600001096725464,-2.56039849001503
186.206897,,0.03855695470917192,186.468,0.44999998807907104,-2.6168255373401452
186.672414,,0.04094984266063523,186.931,0.4519999921321869,-2.6123378122051624
187.137931,,0.04345737418555079,187.396,0.46700000762939453,-2.579619437651036
187.60344800000001,,0.0469462382214793,187.861,0.4659999907016754,-2.581852090235694
188.06896600000002,,0.050277856071336335,188.327,0.42800000309944153,-2.6647861673955884
188.534483,,0.05135649352517373,188.794,0.46399998664855957,-2.5865880444500435
189.0,,0.04903458572610089,189.26,0.44699999690055847,-2.6239384930331218
189.465517,,0.04388370194058752,189.725,0.4650000035762787,-2.5851062807482754
189.931034,,0.037371172143843265,190.19,0.4650000035762787,-2.5855474564976166
190.39655199999999,,0.030859419913918443,190.65,0.4790000021457672,-2.555530800400344
190.862069,,0.025293890167424917,191.115,0.4129999876022339,-2.6998348851434413
191.327586,,0.020951935357638896,191.583,0.4519999921321869,-2.6153948937991207
191.793103,,0.017103397459614242,192.046,0.453000009059906,-2.6137408223956915
192.25862099999998,,0.012614091489086834,192.509,0.45899999141693115,-2.6011733938099186
192.72413799999998,,0.007412918523455346,192.979,0.4519999921321869,-2.6168920893330734
193.189655,,0.0028732731437268394,193.445,0.49000000953674316,-2.5345198399882816
193.655172,,0.00024425291926913323,193.908,0.45500001311302185,-2.611123455999741
194.12069000000002,,0.0008979864669317831,194.374,0.4790000021457672,-2.5591102398291703
194.586207,,0.002147478037524044,194.839,0.4690000116825104,-2.5810857172829773
195.051724,,0.004535483411539535,195.305,0.4519999921321869,-2.6182206962788013
195.517241,,0.0077802416261516264,195.764,0.45100000500679016,-2.6204038200943676
195.98275900000002,,0.010993363586011225,196.231,0.4729999899864197,-2.5723844226068686
196.448276,,0.013517980531639964,196.698,0.46299999952316284,-2.5939902289271166
196.913793,,0.015040717312942093,197.163,0.4569999873638153,-2.6067956850511367
197.37931,,0.015439250183188046,197.624,0.4429999887943268,-2.636953535361034
197.844828,,0.01500765067293961,198.093,0.45100000500679016,-2.6191155571658427
198.310345,,0.014864419356933414,198.557,0.46799999475479126,-2.5816167442710327
198.775862,,0.016737540744651738,199.019,0.453000009059906,-2.613795585069019
199.241379,,0.021754487777359353,199.49,0.45100000500679016,-2.6176289645281505
199.706897,,0.029129092888389264,199.953,0.46399998664855957,-2.588776147854726
200.172414,,0.03633489174307881,200.418,0.46399998664855957,-2.588255465711177
200.63793099999998,,0.0411091731007439,200.881,0.46399998664855957,-2.587760660516175
201.103448,,0.04334125730305719,201.346,0.45899999141693115,-2.598200660532845
201.568966,,0.04454616586669895,201.812,0.47200000286102295,-2.5694807902203944
202.034483,,0.04531734734304297,202.278,0.4740000069141388,-2.5647940661086683
202.5,,0.04371856115828683,202.743,0.46399998664855957,-2.586329528797106
202.965517,,0.03658452843348618,203.209,0.4429999887943268,-2.631917212504911
203.431034,,0.0224736435415898,203.675,0.4880000054836273,-2.5338066025501544
203.896552,,0.0035092312804499474,204.134,0.4560000002384186,-2.6035463487949273
204.36206900000002,,0.01536379026602064,204.602,0.4860000014305115,-2.538303410882936
204.827586,,0.02908267567820782,205.064,0.46399998664855957,-2.586440284174408
205.293103,,0.03522354694854416,205.534,0.4699999988079071,-2.573658814431821
205.758621,,0.0349020890555194,205.997,0.46399998664855957,-2.5870964750127086
206.224138,,0.031293250841860555,206.465,0.4959999918937683,-2.517808941628914
206.689655,,0.027142029738527137,206.928,0.45500001311302185,-2.607612675963579
207.155172,,0.02331730866384928,207.393,0.46299999952316284,-2.5906985021436997
207.62069,,0.019287934471728174,207.854,0.45500001311302185,-2.6086630780030906
208.086207,,0.014588944059407019,208.319,0.5009999871253967,-2.5089836711230076
208.551724,,0.009617894811707954,208.786,0.45500001311302185,-2.609725304462248
209.01724099999998,,0.005146991115666645,209.252,0.43799999356269836,-2.647256384858873
209.482759,,0.001545677370304958,209.716,0.45100000500679016,-2.6193838005597674
209.948276,,0.0012010358803160098,210.182,0.45500001311302185,-2.6110604486840945
210.413793,,0.0030270475820728146,210.647,0.4650000035762787,-2.589593543222872
210.87930999999998,,0.0038482564876468573,211.113,0.46399998664855957,-2.5920093581495123
211.344828,,0.004056244828256265,211.575,0.46399998664855957,-2.592156135252852
211.810345,,0.004484120074518471,212.045,0.47999998927116394,-2.557348931201255
212.27586200000002,,0.005635315600038318,212.506,0.48100000619888306,-2.5551232673625544
212.741379,,0.007138612517807122,212.975,0.45100000500679016,-2.620338963555514
213.206897,,0.008206511745503414,213.441,0.45100000500679016,-2.620103674537114
213.672414,,0.008514502141158897,213.9,0.4440000057220459,-2.6350351863267742
214.137931,,0.008357434854288382,214.365,0.46399998664855957,-2.5910690494530857
214.60344800000001,,0.008031541406968365,214.831,0.46399998664855957,-2.5906131011579534
215.068966,,0.007424110122731824,215.297,0.460999995470047,-2.5966440344597626
215.534483,,0.006321500698788099,215.762,0.45399999618530273,-2.611356392703361
216.0,,0.004948612334280517,216.227,0.48100000619888306,-2.551977988515212
216.465517,,0.0040223300307880875,216.694,0.46399998664855957,-2.588460282291625
216.93103399999998,,0.004122584240630066,217.159,0.45500001311302185,-2.607531024202698
217.39655199999999,,0.0049600057473670085,217.62,0.4620000123977661,-2.591778599340161
217.862069,,0.005418414262723116,218.09,0.47200000286102295,-2.5695409835251355
218.327586,,0.004499996656878271,218.55,0.4519999921321869,-2.612727784821638
218.793103,,0.0022379238382234023,219.019,0.45399999618530273,-2.608062089165315
219.25862099999998,,0.0004060328241505223,219.48,0.4259999990463257,-2.6688444733230012
219.724138,,0.00256465597018931,219.949,0.43700000643730164,-2.6447561216458584
220.18965500000002,,0.004313469234676833,220.415,0.45899999141693115,-2.596803113568102
220.65517200000002,,0.006474455516294564,220.878,0.46299999952316284,-2.588166046339919
221.12069,,0.009685664514323667,221.344,0.46000000834465027,-2.5948771499137067
221.586207,,0.013673322023059207,221.809,0.46399998664855957,-2.5864301406403447
222.051724,,0.017235212360150607,222.274,0.4699999988079071,-2.5737098009911783
222.517241,,0.018972971058924887,222.739,0.45899999141693115,-2.5980997365144165
222.98275900000002,,0.018450015626098586,223.204,0.44999998807907104,-2.618192972747181
223.448276,,0.016719145215035248,223.669,0.46399998664855957,-2.5882231780482767
223.913793,,0.015291799514384934,224.134,0.4519999921321869,-2.6149275580568707
224.37931,,0.014486249904016904,224.598,0.45500001311302185,-2.6089641743007
224.844828,,0.013233789625118111,225.06,0.48500001430511475,-2.5441710012864784
225.31034499999998,,0.010634368927104579,225.528,0.48100000619888306,-2.5534268071387336
225.775862,,0.0072078303060139235,225.99,0.46399998664855957,-2.5909629289397023
226.241379,,0.004333301618236558,226.461,0.46399998664855957,-2.5914048975126893
226.706897,,0.0028351344489371028,226.923,0.45500001311302185,-2.611384182725642
227.172414,,0.0024730521253521704,227.389,0.4740000069141388,-2.5702791514803187
227.63793099999998,,0.0025807574368048886,227.854,0.4729999899864197,-2.5726552046978233
228.103448,,0.0028094752489343125,228.319,0.46299999952316284,-2.594540648823359
228.56896600000002,,0.0032414522548450263,228.784,0.4690000116825104,-2.5814663074680317
229.03448300000002,,0.003963416987390608,229.249,0.4950000047683716,-2.5247169860193304
229.5,,0.004592521341886573,229.716,0.4740000069141388,-2.5702645053379363
229.965517,,0.004305186065101947,230.174,0.45399999618530273,-2.61354064208421
230.431034,,0.0025438670961246386,230.647,0.46399998664855957,-2.5913746271987055
230.896552,,0.00021295042065902766,231.105,0.503000020980835,-2.505956006841283
231.362069,,0.002561021559232372,231.576,0.46299999952316284,-2.592592199424364
231.827586,,0.0032817635769274906,232.038,0.48100000619888306,-2.5528243677170632
232.293103,,0.002400030840365633,232.502,0.460999995470047,-2.5958206122026306
232.758621,,0.0011075694943848222,232.964,0.46399998664855957,-2.5887016690087115
233.224138,,0.0006676736659574379,233.43,0.46399998664855957,-2.588130907696501
233.689655,,0.0013234728633943745,233.899,0.4620000123977661,-2.591947496856578
234.155172,,0.0020801411202157213,234.365,0.45100000500679016,-2.6154193345557952
234.62069,,0.0016309250146835754,234.824,0.48100000619888306,-2.5496292262763123
235.086207,,0.00014224802488388232,235.289,0.4690000116825104,-2.5754178955319627
235.55172399999998,,0.0016264632974838313,235.76,0.47200000286102295,-2.5686133915242477
236.01724099999998,,0.0009621230222826777,236.219,0.4569999873638153,-2.601120021463354
236.482759,,0.001825682406283029,236.686,0.46399998664855957,-2.58579768098073
236.94827600000002,,0.004737808227937726,237.152,0.46299999952316284,-2.5880082580189483
237.413793,,0.006022593860782246,237.62,0.4569999873638153,-2.6012150303608568
237.87931,,0.005856224602947516,238.083,0.45100000500679016,-2.614520883584069
238.344828,,0.0054544824230717695,238.546,0.46399998664855957,-2.586524493059205
238.810345,,0.0052344293902990115,239.016,0.4620000123977661,-2.591289291512592
239.27586200000002,,0.004732100141367773,239.476,0.4659999907016754,-2.583050900295562
239.741379,,0.004062433714772037,239.946,0.48399999737739563,-2.544364650869039
240.206897,,0.004352067593754292,240.404,0.45500001311302185,-2.6081114521336257
240.672414,,0.006272289744356266,240.875,0.45100000500679016,-2.617411777847555
241.137931,,0.008766238260889772,241.341,0.4779999852180481,-2.5591755787059505
241.603448,,0.009871937780491353,241.805,0.4569999873638153,-2.605497136453527
242.068966,,0.00873702826340494,242.264,0.4410000145435333,-2.640890746595426
242.534483,,0.006492215534132833,242.731,0.47200000286102295,-2.5738368762976203
243.0,,0.0051053222803293715,243.197,0.47200000286102295,-2.5742539382814185
243.465517,,0.005520795064214805,243.664,0.4650000035762787,-2.5898407539495696
243.93103399999998,,0.0069219201612295955,244.13,0.46000000834465027,-2.600979183282594
244.39655199999999,,0.007685812226894771,244.59,0.4569999873638153,-2.607661864328558
244.862069,,0.00705944228466828,245.06,0.4490000009536743,-2.625134833559951
245.327586,,0.006044657319111241,245.524,0.47600001096725464,-2.566250523562827
245.793103,,0.00662337204819584,245.986,0.4569999873638153,-2.6074808137692895
246.258621,,0.009891763702812575,246.45,0.5009999871253967,-2.511357170090568
246.724138,,0.01490607858954264,246.92,0.4790000021457672,-2.558932588141706
247.18965500000002,,0.01955366193120623,247.386,0.4699999988079071,-2.578105056558432
247.655172,,0.022543060587509763,247.85,0.4699999988079071,-2.5776034897693125
248.12069,,0.024192061900101702,248.316,0.4569999873638153,-2.605374342886811
248.586207,,0.025148100362171917,248.775,0.45100000500679016,-2.6178624617018866
249.051724,,0.024806672445202436,249.241,0.45500001311302185,-2.6085507094111806
249.517241,,0.02144331532034489,249.706,0.45500001311302185,-2.6079588841440784
249.982759,,0.013718124727715783,250.172,0.45899999141693115,-2.5986762501007394
250.44827600000002,,0.0018039164586481512,250.635,0.4560000002384186,-2.604685574869692
250.913793,,0.012487943230010887,251.105,0.45100000500679016,-2.6151103531083546
251.37931000000003,,0.02615269381030082,251.569,0.4659999907016754,-2.582035007762778
251.844828,,0.03603331855943528,252.031,0.45100000500679016,-2.614404137879261
252.31034499999998,,0.04035012446373866,252.494,0.45899999141693115,-2.5967593533842894
252.77586200000002,,0.039370235748442166,252.964,0.45100000500679016,-2.614074774794417
253.241379,,0.03429405690215505,253.43,0.46700000762939453,-2.5792079587114616
253.706897,,0.025787687386754726,253.893,0.4659999907016754,-2.5814834042332193
254.172414,,0.014119697006107592,254.359,0.45899999141693115,-2.5969327633869104
254.63793099999998,,0.00037772817816089573,254.824,0.4830000102519989,-2.544939666076954
255.10344800000001,,0.013438787392700097,255.29,0.49000000953674316,-2.530069300955778
255.56896600000002,,0.025776926246259994,255.749,0.4519999921321869,-2.6133120355119153
256.03448299999997,,0.03598123656218348,256.215,0.45100000500679016,-2.616005753136241
256.5,,0.042500238162531505,256.679,0.48100000619888306,-2.551206624657382
256.965517,,0.041523762255555215,257.145,0.4659999907016754,-2.5844737447514947
257.431034,,0.029472414259231982,257.609,0.48899999260902405,-2.5349604423748815
257.896552,,0.007669712046660532,258.079,0.45100000500679016,-2.61833460766976
258.362069,,0.016598521396334404,258.542,0.46700000762939453,-2.584034101397113
258.827586,,0.03481114616805007,259.005,0.4569999873638153,-2.606333820997296
259.29310300000003,,0.04293571888895616,259.475,0.5410000085830688,-2.4237782221508892
259.758621,,0.042577712774591596,259.938,0.46700000762939453,-2.585371435442545
260.224138,,0.03777573003275214,260.404,0.46399998664855957,-2.5921924672857846
260.689655,,0.031701928497543774,260.868,0.46399998664855957,-2.5923820739612817
261.155172,,0.025755369013097613,261.334,0.45100000500679016,-2.6207931014630605
261.62068999999997,,0.020274934947345932,261.799,0.4790000021457672,-2.5597758039101124
262.086207,,0.015417057004036804,262.264,0.4749999940395355,-2.5683712742565343
262.551724,,0.011552346478381612,262.731,0.460999995470047,-2.5986527727630064
263.017241,,0.009041129301026815,263.189,0.47200000286102295,-2.5743747828881887
263.482759,,0.0077508376209112885,263.654,0.46799999475479126,-2.5826929389455664
263.94827599999996,,0.007035944363069737,264.12,0.45500001311302185,-2.610547722886565
264.413793,,0.006242925229264637,264.59,0.46399998664855957,-2.590416035744081
264.87931,,0.004967883882374161,265.053,0.4740000069141388,-2.568065239317281
265.34482799999995,,0.002797474416867267,265.516,0.47699999809265137,-2.5609415457243165
265.810345,,0.0006606079955212389,265.979,0.44999998807907104,-2.6191722215877373
266.27586199999996,,0.005042437246625603,266.446,0.4659999907016754,-2.5837348502040625
266.741379,,0.008914611436046473,266.916,0.46299999952316284,-2.589723574072314
267.206897,,0.010967077804853982,267.374,0.46399998664855957,-2.5870462359265693
267.672414,,0.011502100630145295,267.839,0.46000000834465027,-2.5953260654957537
268.137931,,0.011911029327767211,268.305,0.4819999933242798,-2.5470382428493528
268.603448,,0.012396179352289118,268.772,0.4569999873638153,-2.6012348311887292
269.06896600000005,,0.01108615682571341,269.238,0.45899999141693115,-2.5967046114349874
269.53448299999997,,0.006214329582233254,269.706,0.46399998664855957,-2.5857408526137697
270.0,,0.0012004204076398683,270.164,0.47200000286102295,-2.5683452875853736
270.465517,,0.007682626583899259,270.635,0.46399998664855957,-2.5859110752547996
270.931034,,0.010398328395754611,271.098,0.4729999899864197,-2.5665384346786464
271.396552,,0.009449962950790173,271.561,0.4490000009536743,-2.6191528485094016
271.86206899999996,,0.007046944374471311,272.031,0.45399999618530273,-2.6086686488092043
272.327586,,0.005025463851808469,272.494,0.47200000286102295,-2.5699314287137565
272.793103,,0.003681756306257455,272.957,0.45399999618530273,-2.6096798003126196
273.258621,,0.002660718659668067,273.422,0.4650000035762787,-2.5862851283671917
273.724138,,0.0020323997274482096,273.885,0.45100000500679016,-2.6173770192755828
274.18965499999996,,0.0020377123271306617,274.35,0.45500001311302185,-2.609255447235246
274.655172,,0.0022551226510568,274.816,0.46399998664855957,-2.5902244746710843
275.12069,,0.0016999207342480063,275.282,0.46399998664855957,-2.590766722376998
275.586207,,0.00010509148180088574,275.746,0.45899999141693115,-2.602150708392478
276.051724,,0.002422159150821023,276.211,0.45899999141693115,-2.6025748855694335
276.517241,,0.0039270062248540115,276.676,0.4869999885559082,-2.5419166849104546
276.98275900000004,,0.004078621107103005,277.142,0.46799999475479126,-2.5835633750480467
277.448276,,0.0035985973792142982,277.61,0.46700000762939453,-2.5858951278039584
277.913793,,0.0034650838724536275,278.072,0.4830000102519989,-2.5510859855212416
278.37931,,0.003863481957621428,278.535,0.45100000500679016,-2.620746666756303
278.844828,,0.004451949084996737,279.004,0.46399998664855957,-2.5922652468369543
279.31034500000004,,0.0051461891489895635,279.465,0.48399999737739563,-2.548435023172798
279.77586199999996,,0.0060278103772740815,279.935,0.47200000286102295,-2.574230654941102
280.241379,,0.006746469609088767,280.4,0.46000000834465027,-2.5999465276100486
280.706897,,0.006721890225179658,280.864,0.47600001096725464,-2.564594204117796
281.172414,,0.006078241715896454,281.33,0.46299999952316284,-2.5923719961201948
281.637931,,0.005844041285589919,281.794,0.45500001311302185,-2.6092230675842747
282.10344799999996,,0.006796529188461703,282.26,0.4880000054836273,-2.5367340865828765
282.568966,,0.008434010488535194,282.724,0.43799999356269836,-2.645075857650808
283.034483,,0.009750729783420313,283.19,0.45899999141693115,-2.5987556150961364
283.5,,0.010942769644468022,283.65,0.4560000002384186,-2.604762909402233
283.965517,,0.013497057435937692,284.115,0.453000009059906,-2.6108263489218717
284.431034,,0.01824908946010286,284.579,0.45100000500679016,-2.614782132962774
284.89655200000004,,0.023992286517550344,285.049,0.4779999852180481,-2.555640093119363
285.362069,,0.028503858542307737,285.509,0.46299999952316284,-2.5880933070079633
285.827586,,0.030600093676869913,285.979,0.45899999141693115,-2.5966805443416336
286.293103,,0.030850534036409357,286.45,0.46799999475479126,-2.5770485456690886
286.758621,,0.030657105072815785,286.905,0.4650000035762787,-2.5836639954079286
287.22413800000004,,0.031075461015260483,287.37,0.4440000057220459,-2.6295965860735424
287.689655,,0.03228437137701356,287.836,0.4650000035762787,-2.584122092020859
288.155172,,0.03369420620352064,288.301,0.4390000104904175,-2.6411316498483255
288.62069,,0.03458780561255378,288.768,0.46700000762939453,-2.5805703453848237
289.086207,,0.03494166528352671,289.234,0.4519999921321869,-2.613753069409399
289.55172400000004,,0.03545084697318594,289.694,0.45500001311302185,-2.6077663564616422
290.01724099999996,,0.03636961739014336,290.16,0.46299999952316284,-2.590915652071886
290.482759,,0.03643705361249837,290.628,0.45100000500679016,-2.617648874876546
290.948276,,0.033355434583032834,291.09,0.47600001096725464,-2.563764500604354
291.413793,,0.02551261340231658,291.561,0.46299999952316284,-2.5926426622898804
291.87931,,0.013260624748592707,292.023,0.46299999952316284,-2.5931549226653217
292.344828,,0.001475266327295888,292.484,0.45500001311302185,-2.6110374069655364
292.81034500000004,,0.016886723036346495,292.953,0.4650000035762787,-2.5896313863139766
293.275862,,0.03254124550304499,293.419,0.4519999921321869,-2.618249693822908
293.74137900000005,,0.04875148427895266,293.881,0.4659999907016754,-2.587950765233343
294.206897,,0.06472100007097692,294.347,0.4819999933242798,-2.5531940753721876
294.672414,,0.07783230960415898,294.816,0.5049999952316284,-2.5030820583430806
295.13793100000004,,0.08526442680164062,295.274,0.46399998664855957,-2.592298713311959
295.603448,,0.08628089606276469,295.746,0.4620000123977661,-2.5964478092516687
296.068966,,0.08269297848327505,296.204,0.47200000286102295,-2.5743604190559894
296.534483,,0.0770849947078979,296.669,0.4560000002384186,-2.6088347048051483
297.0,,0.07063192508159435,297.135,0.47600001096725464,-2.564806633767458
297.46551700000003,,0.06259085874915518,297.605,0.46399998664855957,-2.5904386202658864
297.931034,,0.05199505416247808,298.068,0.4779999852180481,-2.559384827912672
298.396552,,0.039834296512510754,298.531,0.46799999475479126,-2.58059501621015
298.862069,,0.029124225140711977,298.994,0.46399998664855957,-2.5887280527852488
299.327586,,0.02243891310258124,299.461,0.4740000069141388,-2.5663730223137087
299.79310300000003,,0.01955785142921657,299.931,0.4659999907016754,-2.58326447619897
300.258621,,0.01780835950370939,300.389,0.46399998664855957,-2.587131667155493
300.724138,,0.014552502763916899,300.86,0.45500001311302185,-2.6063126528478664
301.189655,,0.009107636186300064,301.319,0.45500001311302185,-2.6059627844633746
301.65517200000005,,0.002496392244622275,301.79,0.453000009059906,-2.6100581445092037
302.12069,,0.003989943475000262,302.249,0.4779999852180481,-2.5554255305631868
302.586207,,0.009566250933384247,302.716,0.46000000834465027,-2.594574646271786
303.05172400000004,,0.013807104372991976,303.182,0.45899999141693115,-2.5967887781845533
303.517241,,0.016651592776677042,303.646,0.5699999928474426,-2.3550930552082026
303.982759,,0.01868735379435572,304.112,0.46399998664855957,-2.5862565768823904
304.448276,,0.02073466782463893,304.579,0.45100000500679016,-2.6148929554939015
304.913793,,0.022857346426168636,305.042,0.4659999907016754,-2.5826068477835236
305.37931000000003,,0.024259035875378487,305.505,0.4860000014305115,-2.5394940255867224
305.844828,,0.024385301487200965,305.975,0.46299999952316284,-2.5901147258899426
306.310345,,0.023697268171623282,306.434,0.4399999976158142,-2.6407719260111517
306.775862,,0.02307610421407975,306.905,0.4830000102519989,-2.547658101369589
307.241379,,0.022776942374782897,307.37,0.4410000145435333,-2.63973118537124
307.70689699999997,,0.0223306944114149,307.834,0.4620000123977661,-2.594533646229509
308.172414,,0.021378977527605515,308.3,0.574999988079071,-2.3488652502342946
308.637931,,0.020208711457128038,308.764,0.46799999475479126,-2.5824456507887206
309.103448,,0.01927655885784995,309.23,0.492000013589859,-2.530556073843874
309.568966,,0.018508034027265086,309.694,0.4650000035762787,-2.5897001752471844
310.034483,,0.017500221245712905,310.16,0.46399998664855957,-2.59211274108486
310.5,,0.016358210685939893,310.624,0.46399998664855957,-2.59225344426735
310.96551700000003,,0.01579594390148164,311.086,0.453000009059906,-2.6162621255357004
311.431034,,0.01613003491383536,311.55,0.45899999141693115,-2.6031358726062943
311.896552,,0.016573531728041574,312.019,0.45399999618530273,-2.6138786407506163
312.362069,,0.01605422372359045,312.48,0.4519999921321869,-2.6179942987036697
312.827586,,0.014607249611179292,312.949,0.4909999966621399,-2.532701138175384
313.29310300000003,,0.013368001875883129,313.415,0.46299999952316284,-2.593302544158996
313.758621,,0.01307626919864895,313.878,0.46700000762939453,-2.584124928940758
314.224138,,0.013162112534534936,314.344,0.4779999852180481,-2.5596491466094093
314.689655,,0.012649412415436602,314.809,0.4620000123977661,-2.593964749474414
315.155172,,0.011477193750411329,315.275,0.4620000123977661,-2.5934072007273157
315.62068999999997,,0.010345300797559043,315.735,0.4580000042915344,-2.601567075744019
316.086207,,0.009514218487097251,316.2,0.4729999899864197,-2.568352447882564
316.551724,,0.008522948888093842,316.664,0.4690000116825104,-2.576567986699378
317.017241,,0.007195433221985741,317.13,0.46000000834465027,-2.5957281506015075
317.482759,,0.00614572559010305,317.598,0.4690000116825104,-2.5757379591112346
317.94827599999996,,0.0057776839960954705,318.06,0.47099998593330383,-2.5710752575111653
318.413793,,0.005337399086555798,318.524,0.4819999933242798,-2.5468904316998615
318.87931000000003,,0.0037151940633543394,318.993,0.4729999899864197,-2.5663708385512987
319.344828,,0.0009840594338378355,319.454,0.42500001192092896,-2.670915642096583
319.810345,,0.001602728581482503,319.924,0.47600001096725464,-2.5598732283717687
320.275862,,0.003191690580985095,320.389,0.453000009059906,-2.610147059992132
320.741379,,0.004281277353613368,320.849,0.45100000500679016,-2.6147601848462627
321.20689699999997,,0.005853940922353652,321.315,0.46399998664855957,-2.5867767416102234
321.672414,,0.007977788468749025,321.78,0.46299999952316284,-2.5893663994959777
322.137931,,0.00968306911425635,322.246,0.45500001311302185,-2.6072657664583803
322.603448,,0.010147736030168084,322.713,0.4830000102519989,-2.546778077531834
323.068966,,0.009546859163835936,323.179,0.46299999952316284,-2.590893296057073
323.53448299999997,,0.008374125516668338,323.647,0.46700000762939453,-2.582731915094456
324.0,,0.006216038436536189,324.106,0.49000000953674316,-2.533169870668349
324.465517,,0.0019944735874852667,324.569,0.46299999952316284,-2.5925166215858084
324.931034,,0.0043257644917584085,325.039,0.4620000123977661,-2.5951792109183125
325.396552,,0.011040297114586957,325.502,0.45899999141693115,-2.6021456490386954
325.86206899999996,,0.016304477746152568,325.964,0.4560000002384186,-2.6090454647842964
326.327586,,0.019748967198508667,326.43,0.4620000123977661,-2.596259770346165
326.793103,,0.021582274526435467,326.9,0.46000000834465027,-2.6008167571148895
327.258621,,0.02059361100370514,327.365,0.4560000002384186,-2.6096384588905215
327.724138,,0.014496505266941432,327.831,0.4569999873638153,-2.6074712776706575
328.189655,,0.0027359958141017714,328.289,0.46000000834465027,-2.6008507811252635
328.655172,,0.011849923265674833,328.761,0.492000013589859,-2.530955496399085
329.12068999999997,,0.02475545284920995,329.219,0.47200000286102295,-2.574260724524592
329.586207,,0.03287991932890541,329.687,0.47600001096725464,-2.5651975026117477
330.051724,,0.03572791610324482,330.152,0.4569999873638153,-2.606173938771743
330.517241,,0.03439850528960053,330.62,0.45100000500679016,-2.6187723024305454
330.982759,,0.030414045762639348,331.083,0.45500001311302185,-2.6095439067924477
331.44827599999996,,0.025481528453517956,331.546,0.4339999854564667,-2.6547578443997186
331.913793,,0.021345818232229478,332.009,0.4729999899864197,-2.569245410862905
332.37931,,0.01908102012301309,332.479,0.46000000834465027,-2.597031363967742
332.844828,,0.018616416993584614,332.942,0.46299999952316284,-2.5899838777560653
333.310345,,0.019219784250496637,333.408,0.4359999895095825,-2.6483371426170734
333.77586199999996,,0.020165936597818325,333.874,0.45500001311302185,-2.606528779419408
334.241379,,0.020629026645721086,334.34,0.4569999873638153,-2.6018262850600045
334.706897,,0.019412868684106892,334.801,0.49399998784065247,-2.520949115218135
335.17241399999995,,0.01562905284524432,335.266,0.46700000762939453,-2.579590737682858
335.637931,,0.00976863915693452,335.731,0.453000009059906,-2.6100013165918234
336.103448,,0.003589051965505949,336.197,0.4659999907016754,-2.581683246637638
336.56896600000005,,0.0013919697046961082,336.665,0.45100000500679016,-2.614461949630617
337.034483,,0.005342264708272215,337.13,0.46399998664855957,-2.586330137883746
337.5,,0.01014017046362916,337.594,0.4650000035762787,-2.584427437760561
337.965517,,0.01784604676809119,338.056,0.4699999988079071,-2.5738866178130517
338.431034,,0.028736613092696407,338.524,0.4699999988079071,-2.574304330171026
338.89655200000004,,0.04065447691783155,338.986,0.4659999907016754,-2.5834890244554085
339.36206899999996,,0.050452504878676585,339.454,0.46399998664855957,-2.5883544720891503
339.827586,,0.05598376872361514,339.916,0.47999998927116394,-2.5540264897101355
340.293103,,0.056255460418138205,340.382,0.4620000123977661,-2.5937782855384897
340.758621,,0.0498658120534073,340.847,0.46399998664855957,-2.5899468455618906
341.224138,,0.03468231788699413,341.313,0.46399998664855957,-2.5904464489623575
341.68965499999996,,0.01045123108627691,341.78,0.45399999618530273,-2.612691187647483
342.155172,,0.01838852699476866,342.245,0.46399998664855957,-2.5913078208272644
342.62069,,0.04386858730199561,342.71,0.47600001096725464,-2.5654991874874518
343.086207,,0.059490303936936516,343.175,0.460999995470047,-2.5984356919296974
343.551724,,0.0641357518907771,343.638,0.46799999475479126,-2.583355803276057
344.01724099999996,,0.06117814491345189,344.101,0.47600001096725464,-2.5660058658998186
344.48275900000004,,0.054578535608676475,344.569,0.48899999260902405,-2.537668382882051
344.948276,,0.046349707720641405,345.032,0.48399999737739563,-2.548452202830742
345.413793,,0.03705218804117954,345.494,0.46399998664855957,-2.591825296736086
345.87931,,0.02740073560856697,345.964,0.46000000834465027,-2.6002566678975034
346.344828,,0.01867012739327828,346.43,0.47200000286102295,-2.5737556124809853
346.81034500000004,,0.011719015978621804,346.892,0.4779999852180481,-2.5602630161332374
347.275862,,0.00616492541998758,347.358,0.4749999940395355,-2.56632740667057
347.741379,,0.0008936169111706632,347.824,0.46299999952316284,-2.59196368374423
348.206897,,0.00465683219639436,348.289,0.45899999141693115,-2.600151110917838
348.672414,,0.010016731026735644,348.753,0.47200000286102295,-2.5712981724192137
349.13793100000004,,0.014489297839065237,349.219,0.48500001430511475,-2.542457623677148
349.60344799999996,,0.017905996677677893,349.684,0.45899999141693115,-2.5986125428834908
350.068966,,0.020255899259363136,350.15,0.4659999907016754,-2.582915706948553
350.534483,,0.02113926920097418,350.612,0.46299999952316284,-2.5890630136462263
351.0,,0.02036026506852231,351.075,0.46399998664855957,-2.5865652670216965
351.465517,,0.01890288466131244,351.543,0.4659999907016754,-2.5819680044105624
351.93103399999995,,0.018506130173667146,352.005,0.46799999475479126,-2.577457010792784
352.396552,,0.01990101322481481,352.475,0.4740000069141388,-2.5643220046936817
352.862069,,0.021754320243003052,352.938,0.47200000286102295,-2.5687083695215556
353.32758600000005,,0.021736810873053517,353.404,0.4580000042915344,-2.5993298133737555
353.793103,,0.018819814890480874,353.867,0.4650000035762787,-2.58428748720396
354.258621,,0.014546351600958162,354.333,0.4259999990463257,-2.6695450443904174
354.72413800000004,,0.011917820732758188,354.798,0.4490000009536743,-2.619800119625048
355.189655,,0.012835984793309019,355.263,0.4830000102519989,-2.546151624761392
355.655172,,0.016576236591944928,355.731,0.46000000834465027,-2.5967331406765997
356.12069,,0.02083736095747201,356.189,0.4519999921321869,-2.614667549797175
356.586207,,0.024170997143337078,356.654,0.46299999952316284,-2.591224967569298
357.05172400000004,,0.027012632995473657,357.119,0.4519999921321869,-2.615713795460644
357.517241,,0.03020109102982555,357.587,0.44699999690055847,-2.627115839241695
357.982759,,0.03290550819489421,358.05,0.47699999809265137,-2.5622343578534093
358.448276,,0.03251835329207789,358.52,0.46399998664855957,-2.590988423500294
358.913793,,0.026708539688379725,358.982,0.49300000071525574,-2.5281788282919497
359.37931000000003,,0.015526328032173473,359.453,0.45100000500679016,-2.6199815619485216
359.844828,,0.0016181135152465523,359.909,0.46399998664855957,-2.5918785186321287
360.310345,,0.011500651821247505,360.375,0.460999995470047,-2.5985474379510354
360.775862,,0.02157827404694801,360.842,0.47600001096725464,-2.565909966164692
361.241379,,0.028449322146714237,361.307,0.4659999907016754,-2.5876467095131312
361.706897,,0.0330926456403327,361.773,0.4519999921321869,-2.6180080504569894
362.172414,,0.03613578490982925,362.238,0.46299999952316284,-2.5938182755914005
362.63793100000004,,0.037317397561471746,362.706,0.4569999873638153,-2.6065878574149135
363.103448,,0.03607461731675996,363.165,0.46700000762939453,-2.5844306586486567
363.568966,,0.03228807593461989,363.635,0.4880000054836273,-2.538251051455928
364.034483,,0.0264631302196121,364.098,0.4819999933242798,-2.550850245634411
364.5,,0.01945307792395502,364.561,0.45399999618530273,-2.611350114564908
364.96551700000003,,0.012225114894192672,365.031,0.46299999952316284,-2.591227103796462
365.431034,,0.005859511517249375,365.494,0.460999995470047,-2.5950727067677604
365.896552,,0.0014044618087005968,365.957,0.4560000002384186,-2.6054736262409603
366.362069,,0.0007025374275482305,366.423,0.46299999952316284,-2.5897655273786104
366.827586,,0.00118838209689576,366.885,0.4650000035762787,-2.584999367179727
367.29310300000003,,0.0017217373073671327,367.35,0.46399998664855957,-2.586830307876197
367.758621,,0.003741626010602447,367.816,0.47999998927116394,-2.5516956369684194
368.224138,,0.007105064398620503,368.282,0.4729999899864197,-2.566749341893761
368.689655,,0.01001215069645616,368.749,0.4749999940395355,-2.562280510671803
369.155172,,0.01089829620405187,369.215,0.4699999988079071,-2.573150991583376
369.62068999999997,,0.010464250187910563,369.674,0.4519999921321869,-2.6124337459867206
370.086207,,0.010996752761090545,370.14,0.5009999871253967,-2.5058344187097163
370.55172400000004,,0.013374827168016915,370.609,0.4440000057220459,-2.6302539029212535
371.017241,,0.015688518762403684,371.071,0.4740000069141388,-2.5652061637383
371.482759,,0.01544553448507615,371.535,0.4620000123977661,-2.5917272696326052
371.948276,,0.0123988441899979,372.005,0.44699999690055847,-2.6248382871980316
372.413793,,0.008493651768928195,372.468,0.4740000069141388,-2.566486671202835
372.87931000000003,,0.005585172753705492,372.93,0.46799999475479126,-2.5800558287051314
373.344828,,0.003923924348006338,373.396,0.503000020980835,-2.5043091107178608
373.810345,,0.002560239030222145,373.861,0.453000009059906,-2.6137404609197104
374.275862,,0.0006027820748811521,374.326,0.4729999899864197,-2.570644534831388
374.741379,,0.0018486079023852177,374.791,0.46299999952316284,-2.5928717775843553
375.20689699999997,,0.003672422124357818,375.256,0.46399998664855957,-2.5910840340266383
375.672414,,0.0037486743897237416,375.724,0.46700000762939453,-2.5848770556693266
376.137931,,0.0022452068205770013,376.19,0.4690000116825104,-2.580776603615184
376.603448,,0.0007196077316993209,376.649,0.5669999718666077,-2.36744392827096
377.068966,,0.0007840587838673206,377.115,0.4580000042915344,-2.605002577611772
377.53448299999997,,0.0028464364655574354,377.583,0.46399998664855957,-2.5919275056493123
378.0,,0.006171548416169886,378.046,0.45100000500679016,-2.620160000610094
378.465517,,0.00973641127678174,378.509,0.47600001096725464,-2.565520156861637
378.931034,,0.012799825627879841,378.979,0.4650000035762787,-2.589233186273854
379.396552,,0.015093024783392474,379.446,0.47999998927116394,-2.5562305462809327
379.862069,,0.01691977400815439,379.908,0.45500001311302185,-2.610313332421214
380.327586,,0.018805538165751007,380.374,0.47699999809265137,-2.561951545362359
380.79310300000003,,0.020593454644074475,380.839,0.4699999988079071,-2.5767357062362244
381.258621,,0.02114221442832668,381.305,0.46399998664855957,-2.589320922892851
381.724138,,0.019507841870889074,381.765,0.45399999618530273,-2.610616053282119
382.189655,,0.016362693575666908,382.23,0.4390000104904175,-2.6428157768714375
382.655172,,0.013611204633886436,382.695,0.47200000286102295,-2.5704666659476367
383.12068999999997,,0.012324175482203624,383.161,0.45899999141693115,-2.598374894905075
383.586207,,0.011491239005999883,383.631,0.46399998664855957,-2.587119279150585
384.051724,,0.009298771419089167,384.093,0.45399999618530273,-2.60860643176526
384.517241,,0.005361358883980736,384.561,0.46700000762939453,-2.58005671184545
384.982759,,0.0009569325252254206,385.024,0.46299999952316284,-2.588622610697274
385.44827599999996,,0.0028833226587656052,385.487,0.4569999873638153,-2.6016286231895465
385.913793,,0.0064629307282543375,385.949,0.4659999907016754,-2.5820394768459094
386.37931,,0.010162505334259976,386.415,0.45899999141693115,-2.5973923002997514
386.84482799999995,,0.013208449703581517,386.886,0.46399998664855957,-2.5866814025228773
387.310345,,0.01480782669146708,387.344,0.45399999618530273,-2.608724426621797
387.775862,,0.015888207532608382,387.809,0.4580000042915344,-2.600332542027466
388.241379,,0.01828035586466839,388.275,0.46799999475479126,-2.5789245698723486
388.70689699999997,,0.022031689814704422,388.743,0.47200000286102295,-2.5706317608338978
389.172414,,0.02468915519267517,389.209,0.4129999876022339,-2.6996247595253258
389.637931,,0.02391070864890123,389.669,0.45899999141693115,-2.599877545922605
390.103448,,0.02019460602057128,390.134,0.46299999952316284,-2.591636231586409
390.56896600000005,,0.01629540761833965,390.602,0.4399999976158142,-2.6422058158554513
391.03448299999997,,0.014187359773290347,391.064,0.46299999952316284,-2.5925309589664414
391.5,,0.013337626010275088,391.532,0.46399998664855957,-2.5907459983316135
391.965517,,0.012014853701149087,391.994,0.46299999952316284,-2.5932653161931793
392.431034,,0.009587833643769058,392.464,0.5419999957084656,-2.421427921547601
392.896552,,0.007054137120814096,392.927,0.4880000054836273,-2.5392758352489198
393.36206899999996,,0.005549789710458476,393.392,0.46000000834465027,-2.6003991324306486
393.827586,,0.004865099736405576,393.857,0.45899999141693115,-2.602618036619798
394.293103,,0.0036716745791241356,394.322,0.46000000834465027,-2.6003985134369074
394.75862099999995,,0.0010280896949366554,394.787,0.46000000834465027,-2.6002784201464717
395.224138,,0.002693393256126693,395.253,0.46299999952316284,-2.5935473198048427
395.68965499999996,,0.006446304853857001,395.72,0.4650000035762787,-2.588926156668875
396.155172,,0.009700765511542636,396.186,0.4749999940395355,-2.5668154550511026
396.62069,,0.01260541442425184,396.65,0.4620000123977661,-2.594763531583714
397.086207,,0.015078483135386886,397.115,0.45100000500679016,-2.6183167203632474
397.551724,,0.016324856741847124,397.579,0.4690000116825104,-2.578664752244365
398.017241,,0.015714612829031378,398.042,0.4869999885559082,-2.539001433657009
398.48275900000004,,0.013963280356119755,398.509,0.46399998664855957,-2.5886646539298144
398.94827599999996,,0.012845222102828837,398.971,0.4650000035762787,-2.5860565566388622
399.413793,,0.013446449193359758,399.437,0.49000000953674316,-2.5311903836244904
399.87931,,0.014966694380631395,399.901,0.46299999952316284,-2.5896553040092294
400.344828,,0.015517685649842853,400.366,0.46399998664855957,-2.587170799688949
400.810345,,0.013952700783203096,400.831,0.4819999933242798,-2.54771132074203
401.27586199999996,,0.01072180157553282,401.297,0.46399998664855957,-2.5867522344236815
401.741379,,0.007119943272284106,401.761,0.44699999690055847,-2.623689166217759
402.206897,,0.0039671328370287666,402.227,0.4659999907016754,-2.582272776207803
402.672414,,0.0010355567775755105,402.694,0.4569999873638153,-2.601936571191263
403.137931,,0.0023003073650555315,403.16,0.4650000035762787,-2.5846388995670884
403.60344799999996,,0.00596240743697288,403.62,0.47200000286102295,-2.569590675723607
404.068966,,0.00903379571147592,404.09,0.46000000834465027,-2.5960005739189294
404.534483,,0.010829101604597926,404.553,0.45899999141693115,-2.598500791416629
405.0,,0.011570443721188628,405.016,0.4749999940395355,-2.5640088962464107
405.465517,,0.011560420233189617,405.479,0.4650000035762787,-2.586194687446231
405.931034,,0.010192681883374423,405.949,0.46399998664855957,-2.5887929069750455
406.39655200000004,,0.006571268519430137,406.415,0.46000000834465027,-2.5979342523880913
406.862069,,0.0010301341110277576,406.878,0.46700000762939453,-2.5831044051413676
407.327586,,0.00462446131705135,407.344,0.4860000014305115,-2.5421110070595194
407.793103,,0.008581088076290787,407.81,0.4729999899864197,-2.570801606650722
408.258621,,0.010446994490818906,408.275,0.46799999475479126,-2.5820191220356
408.72413800000004,,0.01116036209198531,408.735,0.46000000834465027,-2.5997194631233325
409.18965499999996,,0.011735255037176063,409.201,0.46399998664855957,-2.591215204129695
409.655172,,0.012156538160155104,409.664,0.45899999141693115,-2.6022517849884323
410.12069,,0.011401667408538048,410.13,0.46399998664855957,-2.591430935662043
410.586207,,0.008629332016166332,410.598,0.4620000123977661,-2.595787750663643
411.05172400000004,,0.004445835548133153,411.06,0.4650000035762787,-2.589178984922373
411.51724099999996,,0.0007280233534268213,411.528,0.46299999952316284,-2.5933937398346623
411.982759,,0.0011146417798831908,411.99,0.4690000116825104,-2.580114345914541
412.448276,,0.0015034253190932452,412.457,0.46799999475479126,-2.5820273581649547
412.913793,,0.001986507583868225,412.92,0.4880000054836273,-2.538138692500541
413.37931,,0.0033827596574721574,413.385,0.46399998664855957,-2.590070586122141
413.844828,,0.005078006065779796,413.851,0.45899999141693115,-2.6005800435034034
414.31034500000004,,0.006099319450743031,414.317,0.49000000953674316,-2.5326423257844324
414.775862,,0.006412444960692367,414.783,0.46299999952316284,-2.591062633523477
415.241379,,0.006964179634899493,415.248,0.47600001096725464,-2.5623461172844486
415.706897,,0.008660370489631124,415.709,0.46399998664855957,-2.5881176877217005
416.172414,,0.011526996659974895,416.174,0.4729999899864197,-2.568170967032856
416.63793100000004,,0.014847237929331495,416.646,0.46399998664855957,-2.5874838764577786
417.103448,,0.017877508179344827,417.104,0.46399998664855957,-2.587242058473997
417.568966,,0.02022976190489406,417.572,0.460999995470047,-2.5935968110808716
418.034483,,0.021643812397439947,418.034,0.47200000286102295,-2.5695163577205893
418.5,,0.021663169857115434,418.505,0.4650000035762787,-2.5847204783557385
418.96551700000003,,0.019762284096507182,418.968,0.45399999618530273,-2.608709374708778
419.43103399999995,,0.015973894357087057,419.433,0.4690000116825104,-2.5761225650950506
419.896552,,0.011442399809861729,419.896,0.47600001096725464,-2.561030336247442
420.362069,,0.008019226211760445,420.361,0.4560000002384186,-2.6048214148018234
420.827586,,0.006920986752773189,420.83,0.4740000069141388,-2.5658765470571496
421.293103,,0.008032644743934262,421.289,0.5070000290870667,-2.494294861122845
421.758621,,0.010996664603836005,421.761,0.5049999952316284,-2.4989972758331187
422.22413800000004,,0.01652427685580057,422.219,0.45500001311302185,-2.608295364802039
422.689655,,0.025477571362738653,422.686,0.4690000116825104,-2.5781706598364975
423.15517200000005,,0.03636130308559797,423.152,0.45100000500679016,-2.6177623915519193
423.62069,,0.04475689966283729,423.62,0.43799999356269836,-2.6464494403192353
424.086207,,0.04627479163105746,424.082,0.46700000762939453,-2.583610637226248
424.55172400000004,,0.03998895730972232,424.546,0.45899999141693115,-2.6013480679189107
425.017241,,0.028370428336621314,425.016,0.46799999475479126,-2.582004616507437
425.482759,,0.013959876857333171,425.479,0.4569999873638153,-2.6061822685764957
425.948276,,0.0030369366317328536,425.942,0.460999995470047,-2.597621956221987
426.413793,,0.023389292889707355,426.407,0.4740000069141388,-2.569390810844507
426.87931000000003,,0.04570159429285037,426.874,0.46000000834465027,-2.5999173313969424
427.344828,,0.06568801564465385,427.34,0.3970000147819519,-2.7371327097563247
427.810345,,0.07895984224306338,427.801,0.4659999907016754,-2.5867043321416667
428.275862,,0.08416148162104564,428.267,0.46799999475479126,-2.5821852048494396
428.741379,,0.08320228190231099,428.731,0.47600001096725464,-2.5645376806281623
429.20689699999997,,0.07889907060120993,429.197,0.382999986410141,-2.766885739379434
429.672414,,0.07282050280165692,429.664,0.45899999141693115,-2.601004299473355
430.137931,,0.0651185822134137,430.13,0.45899999141693115,-2.6006709448810774
430.603448,,0.05560226658601993,430.59,0.46399998664855957,-2.5894239716422587
431.068966,,0.04438862552773743,431.06,0.4569999873638153,-2.604311351765415
431.534483,,0.03179895182262238,431.524,0.4560000002384186,-2.606128863525849
432.0,,0.018399415714995922,431.987,0.4560000002384186,-2.605781185383812
432.46551700000003,,0.005380402623904558,432.45,0.47099998593330383,-2.572777739508761
432.931034,,0.005723187603971476,432.92,0.4620000123977661,-2.5920953462960137
433.396552,,0.014259893541525666,433.385,0.4779999852180481,-2.5569891250828127
433.862069,,0.021068528715359046,433.849,0.460999995470047,-2.593828085017203
434.327586,,0.027151933961374355,434.315,0.46700000762939453,-2.580614298783794
434.79310300000003,,0.03194245787640885,434.78,0.4519999921321869,-2.613213161021569
435.258621,,0.033842751976965256,435.246,0.4659999907016754,-2.5826947997329106
435.724138,,0.03259662185144955,435.705,0.4790000021457672,-2.5544187194656436
436.189655,,0.029994213491217524,436.171,0.4309999942779541,-2.659102633166817
436.655172,,0.027619251343218555,436.643,0.47200000286102295,-2.569946466380436
437.12068999999997,,0.024871662231081768,437.102,0.45500001311302185,-2.607206102834507
437.586207,,0.020263955294850942,437.565,0.47999998927116394,-2.5530091391326346
438.051724,,0.014147948658728319,438.035,0.4620000123977661,-2.5925319056386242
438.517241,,0.008933601085918064,438.498,0.46700000762939453,-2.581974270314557
438.982759,,0.0065254557236306045,438.96,0.43799999356269836,-2.6455094630455447
439.448276,,0.006472443744695122,439.426,0.46399998664855957,-2.589227155883634
439.913793,,0.006957533304854867,439.889,0.47999998927116394,-2.554727527307827
440.37931000000003,,0.006862233671736541,440.354,0.47600001096725464,-2.563784871843787
440.844828,,0.00632714625458737,440.819,0.46399998664855957,-2.5902449730897543
441.310345,,0.005842914054309094,441.285,0.45899999141693115,-2.6014187560122366
441.775862,,0.005642785252230343,441.753,0.453000009059906,-2.6147273024753144
442.241379,,0.005906084251299378,442.219,0.4779999852180481,-2.560446491090945
442.70689699999997,,0.00667680832530626,442.683,0.48399999737739563,-2.547501956969132
443.172414,,0.00729133444588968,443.149,0.4650000035762787,-2.5889614486696404
443.637931,,0.006745348463156261,443.613,0.46299999952316284,-2.5933204018217157
444.103448,,0.005248599780881847,444.075,0.46299999952316284,-2.5932589948620204
444.568966,,0.004620211203227606,444.543,0.4819999933242798,-2.5517418898256174
445.03448299999997,,0.006151545191217786,445.005,0.47600001096725464,-2.5646328911779146
445.5,,0.008603973289685006,445.472,0.4729999899864197,-2.5709356011692144
445.965517,,0.00953370131477456,445.934,0.45899999141693115,-2.6011588236372867
446.431034,,0.008425717966838352,446.4,0.4749999940395355,-2.5659870101970985
446.896552,,0.007248077550577381,446.864,0.46299999952316284,-2.591791535411229
447.36206899999996,,0.007741500036439591,447.329,0.46700000762939453,-2.5827225307343222
447.827586,,0.009390027516374792,447.795,0.4690000116825104,-2.57800680890162
448.29310300000003,,0.010569325016459937,448.26,0.46299999952316284,-2.5907274330991803
448.758621,,0.010656538886594041,448.728,0.45399999618530273,-2.6100023933650727
449.224138,,0.010209672694482811,449.193,0.4650000035762787,-2.58573332821806
449.689655,,0.009663292492408486,449.657,0.46399998664855957,-2.587646259703007
450.155172,,0.00868345462120369,450.122,0.4650000035762787,-2.585247963827814
450.62068999999997,,0.00679463651047032,450.59,0.4519999921321869,-2.613403910891391
451.086207,,0.004216821462034866,451.053,0.4659999907016754,-2.582794652218507
451.551724,,0.0018316571391759583,451.516,0.46000000834465027,-2.5958197230275264
452.017241,,0.00024962198840283457,451.979,0.47999998927116394,-2.5522622536981245
452.482759,,0.0009407080322606756,452.445,0.46399998664855957,-2.587197395251499
452.94827599999996,,0.0027068080198239803,452.916,0.49900001287460327,-2.511079669685663
453.413793,,0.005350187567208489,453.374,0.4880000054836273,-2.535233070495807
453.87931,,0.008032362710638506,453.839,0.45500001311302185,-2.6073643742178643
454.344828,,0.0095725733444732,454.305,0.45899999141693115,-2.5989273953482184
454.810345,,0.009443517619801046,454.772,0.4620000123977661,-2.5927024352973116
455.27586199999996,,0.007921929196975345,455.238,0.45399999618530273,-2.6104664577502215
455.741379,,0.005695567088116035,455.702,0.46700000762939453,-2.5824921401318637
456.206897,,0.0036751989291547286,456.168,0.4740000069141388,-2.567591809613577
456.672414,,0.002810837561146084,456.631,0.48100000619888306,-2.5526820349302106
457.137931,,0.0034363286241088494,457.101,0.4790000021457672,-2.5573597604256966
457.603448,,0.004825908950822689,457.565,0.46299999952316284,-2.5925085841380437
458.06896600000005,,0.005876730150907217,458.027,0.4790000021457672,-2.5579020494817613
458.53448299999997,,0.006165808741873479,458.49,0.46000000834465027,-2.5995020102114754
459.0,,0.005924149417831498,458.96,0.46399998664855957,-2.5909409561332533
459.465517,,0.005221304338421815,459.419,0.4580000042915344,-2.6041098397977285
459.931034,,0.003883121198088697,459.889,0.43799999356269836,-2.6477210215152747
460.39655200000004,,0.0022224744606411957,460.355,0.4620000123977661,-2.595412014704625
460.86206899999996,,0.001141758651604639,460.815,0.48500001430511475,-2.54522186957151
461.327586,,0.0012198788884447529,461.281,0.46799999475479126,-2.5821194474222997
461.793103,,0.0021519725262333987,461.746,0.46399998664855957,-2.5906408836500816
462.258621,,0.0034052508030478013,462.211,0.45899999141693115,-2.601293826755635
462.724138,,0.0050415128624012005,462.676,0.47999998927116394,-2.5552621083343516
463.18965499999996,,0.007393150672746442,463.142,0.45399999618530273,-2.6115955539976383
463.655172,,0.010134021277515906,463.605,0.4490000009536743,-2.6221563494546327
464.12069,,0.012399329733159855,464.075,0.49000000953674316,-2.5324884239505914
464.58620699999994,,0.013987942785411845,464.535,0.46000000834465027,-2.597503475164041
465.051724,,0.0156290141631588,465.005,0.47200000286102295,-2.571024886207575
465.517241,,0.017444454071410022,465.468,0.45899999141693115,-2.5990328515601986
465.98275900000004,,0.017890306327246887,465.931,0.46399998664855957,-2.5878553007484086
466.448276,,0.01539340096754819,466.396,0.5090000033378601,-2.489569901094813
466.913793,,0.010843827130844372,466.86,0.46000000834465027,-2.5961224681458863
467.37931,,0.007183182967646504,467.326,0.4580000042915344,-2.600330737461775
467.844828,,0.006131710027559527,467.791,0.4519999921321869,-2.613311574458645
468.31034500000004,,0.006261087758658473,468.257,0.45899999141693115,-2.598030871743875
468.77586199999996,,0.004826182394546673,468.723,0.44699999690055847,-2.6242064213213494
469.241379,,0.0006647028418677551,469.19,0.4690000116825104,-2.5763686994689095
469.706897,,0.005433764742792681,469.654,0.46399998664855957,-2.5874119926085912
470.172414,,0.01238178230786545,470.12,0.46299999952316284,-2.589793095559488
470.63793100000004,,0.019508078638281485,470.583,0.45100000500679016,-2.616185871578217
471.10344799999996,,0.025858561668437547,471.046,0.45899999141693115,-2.5990447604644684
471.568966,,0.0301876039197493,471.509,0.4699999988079071,-2.575397431218052
472.034483,,0.032086693498687466,471.979,0.49000000953674316,-2.5321611667289785
472.5,,0.032163775053758135,472.45,0.4729999899864197,-2.5695427833587474
472.965517,,0.030524911033992318,472.905,0.45899999141693115,-2.600386039128345
473.43103399999995,,0.025831806907451415,473.37,0.4869999885559082,-2.5397134069756153
473.89655200000004,,0.016703423677853498,473.834,0.46299999952316284,-2.5923073726542105
474.362069,,0.0038281034908782896,474.3,0.48100000619888306,-2.5533655622495166
474.827586,,0.009925259914683963,474.764,0.45899999141693115,-2.6015290470251693
475.293103,,0.021454367037292407,475.23,0.4650000035762787,-2.58864283379856
475.758621,,0.029110685769067012,475.694,0.5120000243186951,-2.4863781917157395
476.22413800000004,,0.03267365373532413,476.16,0.4650000035762787,-2.5888479327846734
476.689655,,0.03247190591616811,476.627,0.4729999899864197,-2.5714318495738517
477.155172,,0.029121549543156818,477.09,0.45100000500679016,-2.619315855185421
477.62069,,0.023926391557399826,477.558,0.46299999952316284,-2.5930685583232163
478.086207,,0.01874602604683877,478.02,0.45899999141693115,-2.6016257611059137
478.55172400000004,,0.014796798492469468,478.49,0.4729999899864197,-2.5709180021769957
479.01724099999996,,0.01158964438075243,478.952,0.4569999873638153,-2.6055267721356152
479.482759,,0.007603623746646533,479.418,0.45500001311302185,-2.6095995703817447
479.948276,,0.002336687379761501,479.881,0.4790000021457672,-2.557001465284512
480.413793,,0.0026841589575630803,480.347,0.4650000035762787,-2.587174864177696
480.87931000000003,,0.005416593696642695,480.816,0.4569999873638153,-2.604269559805878
481.344828,,0.005603778915585067,481.274,0.492000013589859,-2.5276855638402815
481.810345,,0.005014026299564102,481.746,0.45899999141693115,-2.5992627355687348
482.275862,,0.00549365674717608,482.204,0.46399998664855957,-2.5880743361705174
482.74137900000005,,0.007346013649354381,482.676,0.4699999988079071,-2.5747397193921495
483.206897,,0.009604543761678583,483.134,0.46399998664855957,-2.58758920469254
483.672414,,0.011294460020343303,483.601,0.4869999885559082,-2.537304517513253
484.13793100000004,,0.012220806626876158,484.064,0.45899999141693115,-2.598182711795706
484.603448,,0.012861505577746539,484.532,0.47200000286102295,-2.569792142866336
485.068966,,0.013671095091286953,484.994,0.4779999852180481,-2.556709994600755
485.534483,,0.014416572218212752,485.464,0.46399998664855957,-2.5872586393302432
486.0,,0.014343181610710319,485.927,0.46299999952316284,-2.58954157651054
486.46551700000003,,0.013203963070693558,486.393,0.492000013589859,-2.526518286885896
486.931034,,0.01183630480451322,486.858,0.4830000102519989,-2.5463311777419393
487.396552,,0.01121729409392342,487.324,0.46299999952316284,-2.5901505610014186
487.862069,,0.011086995013747263,487.79,0.46799999475479126,-2.5795383159273917
488.327586,,0.010182440538619606,488.255,0.4659999907016754,-2.5842028592815294
488.79310300000003,,0.008006703085702909,488.72,0.46000000834465027,-2.597598891059145
489.258621,,0.0057661813398431055,489.179,0.460999995470047,-2.595751701663637
489.724138,,0.0051059016146001715,489.646,0.45399999618530273,-2.6113309788348165
490.189655,,0.006151614204483771,490.112,0.49000000953674316,-2.533215087789937
490.655172,,0.007155903638512355,490.579,0.4650000035762787,-2.587973175082622
491.12069,,0.0060996818152493915,491.041,0.45899999141693115,-2.6013046903726917
491.586207,,0.0026014889209135823,491.509,0.47099998593330383,-2.575380759369489
492.05172400000004,,0.0017403176479376219,491.972,0.46700000762939453,-2.584268398338217
492.517241,,0.005003174464475089,492.438,0.4659999907016754,-2.586568039593002
492.982759,,0.006953916605028857,492.901,0.47200000286102295,-2.573561218340994
493.448276,,0.00910141156178685,493.367,0.46700000762939453,-2.584461581744085
493.913793,,0.012562803864244132,493.834,0.45899999141693115,-2.6018399647223225
494.37931000000003,,0.016389053984221327,494.3,0.460999995470047,-2.5973757425993553
494.844828,,0.018731476082585907,494.764,0.46299999952316284,-2.592858746819313
495.310345,,0.019427585336208825,495.23,0.47600001096725464,-2.5643283282337546
495.775862,,0.020251253373304065,495.694,0.4620000123977661,-2.5945792765342777
496.241379,,0.022176075121552122,496.159,0.49000000953674316,-2.5332921830924673
496.70689699999997,,0.02351651154421697,496.62,0.4659999907016754,-2.5852684931133814
497.172414,,0.02176907790262958,497.09,0.4580000042915344,-2.602370038970083
497.637931,,0.016672516540817063,497.553,0.46299999952316284,-2.5911436069367624
498.103448,,0.010436203961430033,498.016,0.46000000834465027,-2.5973510173841463
498.568966,,0.0052265235578859495,498.479,0.46299999952316284,-2.5905012956405256
499.03448299999997,,0.001296021359212113,498.949,0.49900001287460327,-2.5117797220666
499.5,,0.002504710340596951,499.415,0.46799999475479126,-2.5790594300808753
499.96551700000003,,0.007074092887569178,499.878,0.46700000762939453,-2.581019790306467
500.431034,,0.011937403655420445,500.344,0.4729999899864197,-2.567777141372945
500.89655200000004,,0.015371130126687216,500.809,0.43799999356269836,-2.643912299016225
501.362069,,0.015897526049570697,501.275,0.49000000953674316,-2.530562077401814
501.827586,,0.014137323590317295,501.735,0.4569999873638153,-2.6024554856459616
502.293103,,0.012820197087207365,502.201,0.46399998664855957,-2.587261480051717
502.758621,,0.01428955241230763,502.665,0.46399998664855957,-2.5873752807739616
503.224138,,0.01815715975635667,503.131,0.46399998664855957,-2.5875427459627143
503.68965499999996,,0.021913624881575295,503.594,0.4790000021457672,-2.5550786941376002
504.15517200000005,,0.023572569884007997,504.064,0.49300000071525574,-2.524834146818191
504.62068999999997,,0.023161447002376594,504.527,0.46000000834465027,-2.597018875145172
505.08620699999994,,0.021883211183623966,504.99,0.4749999940395355,-2.564653125449992
505.55172400000004,,0.02051599916516838,505.461,0.4880000054836273,-2.5366594803248157
506.017241,,0.018726659127623384,505.923,0.46700000762939453,-2.5827443782916517
506.48275899999993,,0.015567283283462031,506.389,0.47200000286102295,-2.5721791442235746
506.948276,,0.010544455356461008,506.854,0.45899999141693115,-2.6008147879676806
507.413793,,0.0044445938703432135,507.319,0.4569999873638153,-2.6054613131240947
507.87931,,0.0007280687398723417,507.779,0.46700000762939453,-2.5839312998623076
508.344828,,0.002749468256470155,508.245,0.46399998664855957,-2.590682943913931
508.810345,,0.0004993293754614181,508.709,0.46399998664855957,-2.590850974798577
509.27586199999996,,0.005261670763260041,509.174,0.4560000002384186,-2.6083955194269306
509.74137900000005,,0.012293004197842987,509.646,0.46299999952316284,-2.593204225050359
510.20689699999997,,0.01821722641703414,510.104,0.4699999988079071,-2.5779545997873905
510.67241399999995,,0.02144942089245858,510.572,0.46299999952316284,-2.593147282963618
511.13793100000004,,0.02065743378878433,511.035,0.4909999966621399,-2.532029693092154
511.603448,,0.013953348454454357,511.505,0.46399998664855957,-2.5906832482301163
512.0689659999999,,1.3969838871411743e-05,511.968,0.47999998927116394,-2.555605558716526
512.534483,,0.01948728465058579,512.434,0.4790000021457672,-2.557522141314345
513.0,,0.039526835014849646,512.897,0.4860000014305115,-2.541974401317606
513.465517,,0.05464664384584393,513.363,0.46399998664855957,-2.589581630539644
513.931034,,0.06213909342854709,513.827,0.46399998664855957,-2.589243282720221
514.396552,,0.0626126491137051,514.293,0.460999995470047,-2.595436494821767
514.862069,,0.05844290747457467,514.757,0.45500001311302185,-2.6081720569825224
515.327586,,0.051918098842561246,515.223,0.46399998664855957,-2.588244876816873
515.793103,,0.044007104113357724,515.69,0.45899999141693115,-2.5988453285114477
516.258621,,0.034433432784075055,516.156,0.4659999907016754,-2.5833375203108284
516.724138,,0.023161490036045763,516.617,0.46299999952316284,-2.589659519761844
517.189655,,0.011567458953603116,517.079,0.46299999952316284,-2.589495508421474
517.655172,,0.0016539100108531823,517.546,0.4740000069141388,-2.565421177353988
518.1206900000001,,0.005498809939789452,518.009,0.46399998664855957,-2.5871565460091293
518.5862070000001,,0.009894045523687785,518.476,0.46000000834465027,-2.5958797971399665
519.051724,,0.011820593395390431,518.945,0.4699999988079071,-2.5741618310787446
519.517241,,0.011847250421575334,519.404,0.45500001311302185,-2.6069677750197355
519.982759,,0.01121051164952088,519.875,0.47200000286102295,-2.5701109519382386
520.448276,,0.011036622069613988,520.341,0.46399998664855957,-2.587768626250034
520.9137929999999,,0.011094763530470552,520.806,0.46299999952316284,-2.5902169648290236
521.37931,,0.010195407099547677,521.264,0.45500001311302185,-2.6079492016636605
521.844828,,0.008041394135463379,521.731,0.4790000021457672,-2.555988648455694
522.310345,,0.006018061614969325,522.197,0.49000000953674316,-2.5323634367792773
522.7758620000001,,0.005798218137584005,522.662,0.47999998927116394,-2.5544917688071216
523.241379,,0.0075561297627831986,523.127,0.4659999907016754,-2.585326487180126
523.7068969999999,,0.009924221009532505,523.59,0.4779999852180481,-2.559498491832892
524.172414,,0.011517494085380012,524.06,0.4690000116825104,-2.5793945751378544
524.637931,,0.012110597249952906,524.52,0.47999998927116394,-2.555681428000217
525.103448,,0.012319749191075919,524.99,0.4729999899864197,-2.571139797114212
525.568966,,0.01261064029868448,525.45,0.47699999809265137,-2.5625825714500423
526.034483,,0.013007924547323243,525.92,0.4819999933242798,-2.5517914255260044
526.5,,0.013507790015291534,526.385,0.47200000286102295,-2.573621561854266
526.9655170000001,,0.014232068666315968,526.846,0.49000000953674316,-2.534389787459414
527.4310340000001,,0.015233706826972056,527.312,0.4740000069141388,-2.569172759131183
527.8965519999999,,0.01665058099847598,527.776,0.47600001096725464,-2.5646833067932397
528.362069,,0.019051689417206245,528.242,0.49799999594688416,-2.5165681379212765
528.827586,,0.02309714525373336,528.709,0.49000000953674316,-2.5337646554466824
529.293103,,0.028570137305001533,529.175,0.49000000953674316,-2.533491403545777
529.7586210000001,,0.03381150815177413,529.635,0.47999998927116394,-2.5549729176249714
530.224138,,0.036062593870414786,530.106,0.47200000286102295,-2.5720752892273335
530.689655,,0.032400339639801115,530.568,0.49000000953674316,-2.532521306015134
531.155172,,0.021043983435772618,531.031,0.492000013589859,-2.5278241289486116
531.62069,,0.0028142936348643744,531.494,0.49300000071525574,-2.525314124824743
532.086207,,0.018335343778843532,531.964,0.4869999885559082,-2.5380734343590916
532.5517239999999,,0.03694410677952299,532.43,0.515999972820282,-2.4746081345645505
533.017241,,0.04918233867997699,532.892,0.5260000228881836,-2.4525727950102287
533.482759,,0.054828268887867924,533.358,0.4959999918937683,-2.5177267776558194
533.9482760000001,,0.05610736076681836,533.824,0.492000013589859,-2.526286434631164
534.413793,,0.054648962900412705,534.289,0.5009999871253967,-2.506579911117289
534.87931,,0.0499848283872788,534.754,0.5009999871253967,-2.5065402790867153
535.344828,,0.041212014711065496,535.219,0.49900001287460327,-2.5109182567547967
535.810345,,0.029490541232611033,535.679,0.5090000033378601,-2.4892123071782706
536.275862,,0.018006073714857546,536.145,0.5299999713897705,-2.44359801130892
536.7413789999999,,0.009405716122470924,536.609,0.515999972820282,-2.474288357163441
537.206897,,0.0038556191569498973,537.079,0.5270000100135803,-2.4505586924570415
537.672414,,0.0003271684604541329,537.542,0.5400000214576721,-2.4225106735819004
538.137931,,0.004736527544711159,538.004,0.515999972820282,-2.4751032670434734
538.6034480000001,,0.009712402201698939,538.472,0.5210000276565552,-2.4645367308359094
539.0689659999999,,0.014469916760017128,538.934,0.5669999718666077,-2.364657376139047
539.5344829999999,,0.017940671639898216,539.401,0.5419999957084656,-2.419462048333266
540.0,,0.019678414326691356,539.864,0.5379999876022339,-2.4285053367138203
540.465517,,0.020182513500309973,540.33,0.5540000200271606,-2.393956305806294
540.931034,,0.020358295280801422,540.795,0.5540000200271606,-2.3942368194785466
541.396552,,0.020733339901472393,541.26,0.550000011920929,-2.4031945642322747
541.862069,,0.02120522289480186,541.727,0.5540000200271606,-2.39467867989084
542.327586,,0.021276566865411083,542.193,0.5669999718666077,-2.3665046237543894
542.7931030000001,,0.020387943584181504,542.658,0.5759999752044678,-2.3469896801373977
543.258621,,0.018310533186732182,543.124,0.5529999732971191,-2.397133510957114
543.7241379999999,,0.015518604438739647,543.586,0.574999988079071,-2.349179642738326
544.189655,,0.013149086082636168,544.049,0.5839999914169312,-2.329490290206115
544.655172,,0.012356485528727184,544.52,0.5920000076293945,-2.3119235342438085
545.12069,,0.013385910401485849,544.982,0.5410000085830688,-2.42284611745265
545.5862070000001,,0.015107030617984216,545.453,0.574999988079071,-2.348539765012649
546.051724,,0.015731557116992343,545.916,0.593999981880188,-2.3068760132120842
546.517241,,0.01437787165754032,546.375,0.5809999704360962,-2.334899289979114
546.982759,,0.011895751963856723,546.842,0.6000000238418579,-2.2931850055020737
547.448276,,0.009954246491897373,547.307,0.5830000042915344,-2.329891409158532
547.9137929999999,,0.009449817162197921,547.772,0.6449999809265137,-2.194483074304987
548.3793099999999,,0.010043497318402128,548.237,0.5929999947547913,-2.3074484996212035
548.844828,,0.011097038917744958,548.702,0.6119999885559082,-2.2657482313789217
549.310345,,0.01252057800457126,549.168,0.5730000138282776,-2.350438449516854
549.775862,,0.014363660072080958,549.631,0.6140000224113464,-2.26087464441016
550.241379,,0.01596006730778206,550.101,0.5759999752044678,-2.3434694836570156
550.706897,,0.016223656763975733,550.564,0.5860000252723694,-2.321540669865293
551.172414,,0.014928723492813014,551.026,0.5979999899864197,-2.295310961765085
551.637931,,0.01306709618241586,551.494,0.5770000219345093,-2.3410351109680727
552.103448,,0.011544622309194457,551.957,0.5770000219345093,-2.3410675922583746
552.568966,,0.01001931995176534,552.422,0.5910000205039978,-2.3106578727394216
553.034483,,0.007581324457731696,552.885,0.6880000233650208,-2.099473802383109
553.5,,0.004146186305722454,553.351,0.5730000138282776,-2.350210572271902
553.965517,,0.0003105724590476921,553.816,0.5730000138282776,-2.35044630439642
554.4310340000001,,0.0040816705547402415,554.282,0.6039999723434448,-2.2831818660420007
554.896552,,0.010258778107457905,554.746,0.5950000286102295,-2.303091511620301
555.3620689999999,,0.018984310427264204,555.212,0.5889999866485596,-2.3164841934407017
555.827586,,0.029271537488745863,555.676,0.5860000252723694,-2.3233499674614024
556.293103,,0.03913317390509078,556.142,0.5720000267028809,-2.354180371563604
556.758621,,0.04729673446846214,556.605,0.5929999947547913,-2.308747426276208
557.224138,,0.053627643981466085,557.075,0.5889999866485596,-2.317759531004908
557.689655,,0.057977690434846504,557.535,0.6019999980926514,-2.2897036093291314
558.155172,,0.05936954852590197,558.005,0.5889999866485596,-2.318253141827529
558.6206900000001,,0.05680952988953248,558.468,0.5630000233650208,-2.375079143327178
559.0862070000001,,0.05064435322931532,558.931,0.5540000200271606,-2.394818013161659
559.5517239999999,,0.04267075427150603,559.397,0.5910000205039978,-2.3142847792513686
560.017241,,0.03493390532483317,559.864,0.5519999861717224,-2.3992717099934886
560.482759,,0.02860781940946499,560.33,0.5669999718666077,-2.366553985913726
560.948276,,0.023732539925324172,560.794,0.5239999890327454,-2.4601422363760332
561.413793,,0.019440316385851055,561.26,0.5540000200271606,-2.3946368552610897
561.87931,,0.014438627995173741,561.724,0.5419999957084656,-2.420586753694284
562.344828,,0.007950509261093973,562.19,0.5460000038146973,-2.4116355258506217
562.8103450000001,,0.0006264614277748994,562.649,0.5270000100135803,-2.452757908105784
563.275862,,0.005703854795009994,563.115,0.5370000004768372,-2.430672587732987
563.7413789999999,,0.009588981360223858,563.583,0.5329999923706055,-2.4390702678512177
564.206897,,0.011342791029027624,564.045,0.5170000195503235,-2.473603142104917
564.672414,,0.012668413874571573,564.513,0.515999972820282,-2.475458162827933
565.137931,,0.014764931433324718,564.975,0.5049999952316284,-2.4991112713235664
565.603448,,0.017030048245466892,565.441,0.49799999594688416,-2.5140712342434286
566.068966,,0.01793533941272966,565.907,0.5170000195503235,-2.4724162006702968
566.534483,,0.01696650611527215,566.372,0.5009999871253967,-2.507051153226158
567.0,,0.015167203833030505,566.839,0.49000000953674316,-2.530836687763384
567.465517,,0.013810081518826144,567.305,0.4860000014305115,-2.5394214997985256
567.931034,,0.013136903014149574,567.764,0.503000020980835,-2.5023079140353
568.396552,,0.012527648877590997,568.23,0.4830000102519989,-2.545859413015393
568.862069,,0.011345500213896263,568.695,0.4909999966621399,-2.5284642544165536
569.327586,,0.00942217675975778,569.16,0.49799999594688416,-2.5133017539013442
569.793103,,0.00723400151730072,569.631,0.49399998784065247,-2.522155088855274
570.2586210000001,,0.005858901346049079,570.093,0.48100000619888306,-2.5506626460520656
570.724138,,0.0062877670115399605,570.554,0.4790000021457672,-2.555246292908027
571.189655,,0.00840429579700234,571.024,0.492000013589859,-2.527184372631994
571.655172,,0.010954536222121126,571.487,0.5019999742507935,-2.5056840441428263
572.12069,,0.012910865371795257,571.949,0.4779999852180481,-2.558274308348592
572.586207,,0.01471415818997613,572.415,0.48500001430511475,-2.5433344527445714
573.051724,,0.01791915259123921,572.886,0.47699999809265137,-2.5610734745689467
573.517241,,0.023809329832574062,573.344,0.47200000286102295,-2.5722665411527093
573.982759,,0.032517214032779705,573.809,0.4830000102519989,-2.5485824587627204
574.4482760000001,,0.043054651428743984,574.275,0.4729999899864197,-2.5706228563934403
574.913793,,0.053695805218971306,574.742,0.4819999933242798,-2.5512341746280938
575.37931,,0.062437261580967934,575.207,0.48100000619888306,-2.553590732927483
575.844828,,0.0673784671445115,575.674,0.47600001096725464,-2.564615492803606
576.310345,,0.06663333943466915,576.139,0.4729999899864197,-2.571233128649839
576.775862,,0.05815878897323412,576.602,0.4779999852180481,-2.5603695393512695
577.241379,,0.04080892403368519,577.064,0.4699999988079071,-2.5777757030008814
577.706897,,0.016555369308547712,577.535,0.48100000619888306,-2.5537357959079725
578.172414,,0.008732750307029144,577.997,0.48500001430511475,-2.544896780845949
578.6379310000001,,0.02801835250017866,578.465,0.4779999852180481,-2.5599770234079933
579.1034480000001,,0.037451022392464076,578.928,0.4950000047683716,-2.5227287601448904
579.5689659999999,,0.03830094450198692,579.394,0.49300000071525574,-2.526840089286358
580.034483,,0.035025032266159044,579.86,0.49000000953674316,-2.533102590079463
580.5,,0.03177393362712436,580.319,0.5059999823570251,-2.4979515893840647
580.965517,,0.03029999899463232,580.791,0.47699999809265137,-2.560829397770418
581.431034,,0.030237992496395038,581.249,0.4749999940395355,-2.5648834630952497
581.896552,,0.03072955750613162,581.716,0.4830000102519989,-2.5471604104983583
582.362069,,0.03160138233548964,582.182,0.4659999907016754,-2.5839220158688536
582.827586,,0.03306279137720027,582.65,0.4830000102519989,-2.5466362476169904
583.2931030000001,,0.03466244745925562,583.115,0.4790000021457672,-2.5551361217273523
583.758621,,0.03508657266909461,583.576,0.4830000102519989,-2.546246808175056
584.2241379999999,,0.03312052236959053,584.039,0.47699999809265137,-2.5591892052087033
584.689655,,0.02856148244626878,584.509,0.4699999988079071,-2.574359381474246
585.155172,,0.022197914849874312,584.972,0.5180000066757202,-2.4697546612670256
585.6206900000001,,0.01531239456889304,585.437,0.4699999988079071,-2.57435101618751
586.0862070000001,,0.00940397275885339,585.901,0.47999998927116394,-2.5526362875105004
586.551724,,0.005877186209557428,586.367,0.47600001096725464,-2.5614713751658624
587.017241,,0.0051339297762109035,586.832,0.46399998664855957,-2.5877808934860727
587.482759,,0.005746231987395508,587.297,0.4659999907016754,-2.5836296728810733
587.948276,,0.005288497756104862,587.764,0.47600001096725464,-2.5620831587113684
588.4137929999999,,0.0026714420705043966,588.23,0.4830000102519989,-2.547098566667515
588.87931,,0.0007481362042111824,588.694,0.5170000195503235,-2.4733070426338024
589.344828,,0.0030652907070519847,589.16,0.4779999852180481,-2.5585642866604745
589.810345,,0.004484655637901667,589.624,0.492000013589859,-2.528352018626513
590.2758620000001,,0.00716084732043009,590.086,0.4699999988079071,-2.576562161092997
590.741379,,0.012370847709213643,590.549,0.4659999907016754,-2.585539797680672
591.2068969999999,,0.018790528324017508,591.02,0.4749999940395355,-2.566170707166642
591.672414,,0.024016295949516597,591.483,0.4790000021457672,-2.5576631503189065
592.137931,,0.027000977293837103,591.945,0.46700000762939453,-2.5839760626821815
592.603448,,0.028250103493110364,592.411,0.46700000762939453,-2.584102677925135
593.068966,,0.028405671286641357,592.875,0.4699999988079071,-2.577647332171459
593.534483,,0.028029787835754987,593.341,0.46700000762939453,-2.5842154539097977
594.0,,0.02850557564124678,593.805,0.49399998784065247,-2.52537447257264
594.4655170000001,,0.03134497655679464,594.271,0.4830000102519989,-2.549272284036019
594.9310340000001,,0.03596574495266289,594.736,0.47200000286102295,-2.5731226552457835
595.3965519999999,,0.03949610167443463,595.201,0.48500001430511475,-2.544641885630273
595.862069,,0.03965447865744551,595.668,0.48100000619888306,-2.5531593952514773
596.327586,,0.03681620593373604,596.134,0.492000013589859,-2.528964124841338
596.793103,,0.032288192878815514,596.594,0.47200000286102295,-2.5722811393068477
597.2586210000001,,0.025371591772254194,597.063,0.48399999737739563,-2.5458636701939876
597.724138,,0.01343881473816582,597.524,0.47699999809265137,-2.5608312670169693
598.189655,,0.005031123367718847,597.994,0.4819999933242798,-2.5496544145397264
598.655172,,0.028110463484582546,598.457,0.4729999899864197,-2.5689867281748255
599.12069,,0.05110819646744339,598.92,0.47600001096725464,-2.562191829936494
599.586207,,0.06932010947841094,599.385,0.4729999899864197,-2.568493490054439
600.0517239999999,,0.08038474915716488,599.852,0.46399998664855957,-2.587898848938682
600.517241,,0.08452930318658822,600.317,0.4749999940395355,-2.56376926803172
600.982759,,0.08298334696486244,600.783,0.48100000619888306,-2.550575479516388
601.448276,,0.07656916665004135,601.248,0.4690000116825104,-2.5766432676894917
601.913793,,0.0659930502794957,601.712,0.4950000047683716,-2.5199702559926185
602.37931,,0.05293443014085788,602.178,0.48500001430511475,-2.5417765272294344
602.844828,,0.0398728448284803,602.639,0.48399999737739563,-2.5440220915594236
603.310345,,0.02853308207435891,603.108,0.5049999952316284,-2.4983820756367248
603.775862,,0.01910170088668978,603.576,0.4000000059604645,-2.7272942678144085
604.2413789999999,,0.01134601533732949,604.038,0.4909999966621399,-2.5292307318570897
604.706897,,0.005784429034849627,604.501,0.47099998593330383,-2.5730296518959586
605.172414,,0.002868388115397977,604.964,0.4819999933242798,-2.549314613624724
605.637931,,0.0013859769246461018,605.43,0.4620000123977661,-2.5931544887195543
606.1034480000001,,0.001063300994819287,605.9,0.503000020980835,-2.5041051529627953
606.5689659999999,,0.005572324796368654,606.365,0.47600001096725464,-2.563203282384037
607.0344829999999,,0.010662671070909277,606.831,0.46299999952316284,-2.5917917227382996
607.5,,0.014064878321704477,607.289,0.5170000195503235,-2.474393911521052
607.965517,,0.015339539155095816,607.76,0.47699999809265137,-2.5617639937152483
608.431034,,0.01620309047318545,608.226,0.48899999260902405,-2.535812636465871
608.896552,,0.01848743072054934,608.69,0.4790000021457672,-2.5577547087477277
609.362069,,0.022443172829080444,609.156,0.47999998927116394,-2.555690491313451
609.827586,,0.027254415211134968,609.617,0.49000000953674316,-2.533973894644739
610.293103,,0.032598565278197655,610.079,0.4690000116825104,-2.5797491396498207
610.758621,,0.03892171777316796,610.549,0.47600001096725464,-2.564475911488371
611.2241379999999,,0.046189885870142,611.012,0.49000000953674316,-2.533906660263763
611.689655,,0.05307306870365059,611.475,0.48899999260902405,-2.5359733837875638
612.155172,,0.057778801898681766,611.945,0.46700000762939453,-2.5837517026729966
612.62069,,0.059398000395788755,612.411,0.4059999883174896,-2.7164642622516664
613.0862070000001,,0.05798756643007889,612.875,0.4869999885559082,-2.539782367616406
613.551724,,0.05340223537031214,613.341,0.4659999907016754,-2.5853014100999325
614.017241,,0.044686150937599894,613.805,0.492000013589859,-2.5284083972472646
614.4827590000001,,0.03129022225159531,614.264,0.46700000762939453,-2.5826183778576812
614.948276,,0.01500325486630123,614.731,0.4690000116825104,-2.578004679765589
615.4137929999999,,0.00011324134790938127,615.197,0.49000000953674316,-2.5320041380066454
615.8793099999999,,0.009108964690968035,615.664,0.4779999852180481,-2.5579132948396093
616.344828,,0.01144662689576945,616.13,0.46399998664855957,-2.588201138471828
616.810345,,0.009270059401299987,616.59,0.4650000035762787,-2.5858376199059943
617.275862,,0.006247996902610764,617.061,0.4819999933242798,-2.548649438468198
617.741379,,0.0048450863865608165,617.524,0.4819999933242798,-2.548535595604303
618.206897,,0.0056889842303709005,617.986,0.46399998664855957,-2.587677986549099
618.672414,,0.008286420561732823,618.45,0.45899999141693115,-2.5985411904849522
619.137931,,0.01169804481824671,618.919,0.5130000114440918,-2.480907521061306
619.603448,,0.01489270068082702,619.385,0.47600001096725464,-2.5615725907581695
620.068966,,0.017104498967866595,619.849,0.47699999809265137,-2.5594891724961224
620.534483,,0.01812730915472353,620.315,0.453000009059906,-2.6119102234592626
621.0,,0.018306114817393974,620.775,0.49300000071525574,-2.5249320913530497
621.465517,,0.018177036670362936,621.241,0.4650000035762787,-2.586130780859222
621.9310340000001,,0.017950201766622577,621.706,0.45399999618530273,-2.610315726346414
622.396552,,0.017296620601427372,622.171,0.45500001311302185,-2.608374405097578
622.862069,,0.015736052031478338,622.635,0.46799999475479126,-2.5802997310606086
623.327586,,0.013247526679638504,623.105,0.46700000762939453,-2.5827284982423753
623.793103,,0.010434160834708663,623.568,0.46399998664855957,-2.589509390540826
624.258621,,0.008052108314828103,624.031,0.4560000002384186,-2.6071711416686534
624.724138,,0.00633342529227403,624.499,0.4569999873638153,-2.6052061623619824
625.189655,,0.004740746935401272,624.961,0.414000004529953,-2.6990772479648415
625.655172,,0.002456705807070254,625.427,0.46700000762939453,-2.5837684927272573
626.1206900000001,,0.0007702704992062131,625.89,0.46000000834465027,-2.599143237761138
626.5862070000001,,0.004198405320954253,626.356,0.46799999475479126,-2.581798116622771
627.0517239999999,,0.0065185176920338804,626.821,0.45899999141693115,-2.601447246445033
627.5172409999999,,0.006875867580408531,627.286,0.4659999907016754,-2.5861939691019455
627.982759,,0.005724713464745574,627.753,0.5540000200271606,-2.3944243218361976
628.448276,,0.004607840598263045,628.219,0.45899999141693115,-2.601301729700773
628.913793,,0.004645336732631294,628.683,0.492000013589859,-2.52927030437135
629.37931,,0.0051066933820680385,629.149,0.453000009059906,-2.614065632199428
629.844828,,0.003950475957920617,629.61,0.46399998664855957,-2.589898536768961
630.3103450000001,,4.0213628428049185e-05,630.079,0.45899999141693115,-2.600566500027406
630.7758620000001,,0.005572192953363545,630.542,0.46799999475479126,-2.580716922805455
631.2413789999999,,0.010790440021461824,631.005,0.46399998664855957,-2.589180666380441
631.706897,,0.014397840467045363,631.472,0.45500001311302185,-2.608536318586795
632.172414,,0.01640720976499774,631.935,0.4699999988079071,-2.575611086795566
632.637931,,0.016948466693633295,632.401,0.46399998664855957,-2.5884513165805347
633.103448,,0.01569929548410101,632.864,0.46399998664855957,-2.5882404543314377
633.568966,,0.01265161665031057,633.329,0.4560000002384186,-2.6054862402707832
634.034483,,0.008821172965735364,633.794,0.46399998664855957,-2.5879068535718805
634.5,,0.005621618431606466,634.26,0.5099999904632568,-2.487575384788992
634.9655170000001,,0.0035869306610771968,634.724,0.47200000286102295,-2.570289265178424
635.431034,,0.002019960120489237,635.189,0.4830000102519989,-2.546290745899613
635.8965519999999,,2.5695137719967423e-05,635.657,0.48399999737739563,-2.5441214286039893
636.362069,,0.0021887383876900653,636.123,0.4659999907016754,-2.5833888974822807
636.827586,,0.0032580658067120965,636.586,0.45100000500679016,-2.616162199998941
637.293103,,0.00212039784916587,637.049,0.46799999475479126,-2.579258331748295
637.7586210000001,,0.0005335104645439331,637.52,0.46700000762939453,-2.581605228525688
638.224138,,0.00260308030126962,637.982,0.4650000035762787,-2.586160524453209
638.689655,,0.002455575887428391,638.45,0.45899999141693115,-2.599454265977081
639.155172,,0.00020684564227874943,638.912,0.48100000619888306,-2.551762625906767
639.62069,,0.0027880916755421902,639.378,0.46000000834465027,-2.597762123308849
640.086207,,0.005146554290784956,639.843,0.46000000834465027,-2.598011936159678
640.551724,,0.0060829005699185425,640.309,0.4779999852180481,-2.559040429459321
641.017241,,0.005611430569460082,640.775,0.45899999141693115,-2.6006653648724916
641.482759,,0.004626900925483437,641.241,0.47200000286102295,-2.572553032440345
641.9482760000001,,0.004346717188645413,641.706,0.4790000021457672,-2.5574854143409134
642.413793,,0.00520104600307964,642.164,0.47999998927116394,-2.5554563673341586
642.87931,,0.006387015143607293,642.635,0.46399998664855957,-2.590426542538286
643.344828,,0.0066892041348833855,643.097,0.46399998664855957,-2.5904977181724504
643.810345,,0.005639400814263208,643.565,0.47999998927116394,-2.5556677507547505
644.275862,,0.003835655118460726,644.026,0.46399998664855957,-2.5905106915051723
644.7413789999999,,0.0023131063980072752,644.494,0.4620000123977661,-2.5948094617082282
645.206897,,0.0017377653809506049,644.957,0.45899999141693115,-2.6012462329589767
645.672414,,0.0020128126025431054,645.422,0.4620000123977661,-2.5945734338076925
646.1379310000001,,0.0023072233136668275,645.885,0.5170000195503235,-2.474576444668853
646.6034480000001,,0.0015494220852449272,646.35,0.45100000500679016,-2.6181659986879664
647.0689659999999,,0.00050960636457266,646.817,0.4620000123977661,-2.5939769168662012
647.534483,,0.002527003334837988,647.282,0.45100000500679016,-2.6177035059548475
648.0,,0.002532832765717132,647.749,0.4650000035762787,-2.5869564928622135
648.465517,,0.00019174838215120426,648.215,0.4790000021457672,-2.5562090787532132
648.931034,,0.0024131325877955875,648.679,0.46700000762939453,-2.582113102445387
649.396552,,0.0029387887795981117,649.145,0.46299999952316284,-2.590602130540082
649.862069,,0.00134260321922029,649.609,0.47200000286102295,-2.5707899642726897
650.327586,,0.0005009258356218544,650.071,0.45500001311302185,-2.6076502252718514
650.7931030000001,,0.0013581628009566723,650.539,0.45500001311302185,-2.6075068804888417
651.258621,,0.0016251135707307407,651.001,0.46299999952316284,-2.589972281755319
651.7241379999999,,0.0017885750464476612,651.464,0.47600001096725464,-2.5615848974619966
652.189655,,0.00137001546906031,651.934,0.46299999952316284,-2.589884463675518
652.655172,,6.0455203794078546e-05,652.4,0.48100000619888306,-2.5506884082595565
653.12069,,0.0012729012417107815,652.864,0.4650000035762787,-2.585608187468741
653.5862070000001,,0.0017008676086556417,653.329,0.47600001096725464,-2.5617442786975992
654.051724,,0.0015909509426315035,653.794,0.4860000014305115,-2.540095485838154
654.517241,,0.0019189521354362382,654.26,0.38600000739097595,-2.7581315692925563
654.982759,,0.002816022622591239,654.724,0.4880000054836273,-2.536110399634017
655.448276,,0.0037256949168725027,655.19,0.46299999952316284,-2.5907998603208364
655.9137929999999,,0.004537737296957781,655.654,0.4620000123977661,-2.5932159888326787
656.37931,,0.00554116486703596,656.12,0.46399998664855957,-2.5891036640044143
656.844828,,0.0064268924436481425,656.583,0.48500001430511475,-2.543596282805847
657.310345,,0.006341691558213792,657.046,0.38999998569488525,-2.750805154697498
657.7758620000001,,0.005104620350257828,657.509,0.4580000042915344,-2.602881485876861
658.241379,,0.003590219951397747,657.979,0.47200000286102295,-2.5725842911800396
658.7068969999999,,0.002572150297588952,658.45,0.47699999809265137,-2.5618660482764373
659.172414,,0.0017929943864272867,658.905,0.46299999952316284,-2.5925075737245864
659.637931,,0.0006267300169934214,659.37,0.4880000054836273,-2.53814281044637
660.103448,,0.0008104471128837611,659.835,0.46299999952316284,-2.5926682426226315
660.568966,,0.0018161971751396078,660.3,0.4519999921321869,-2.6166491864324724
661.034483,,0.002173783411824052,660.765,0.4429999887943268,-2.636230043996524
661.5,,0.002458517106396782,661.231,0.47699999809265137,-2.562086970930671
661.965517,,0.0031365513550751446,661.698,0.460999995470047,-2.596835768240992
662.4310340000001,,0.0037953204129241667,662.163,0.47600001096725464,-2.564008900172033
662.8965519999999,,0.003723593334231748,662.624,0.4690000116825104,-2.579079329131382
663.362069,,0.0031660651050954797,663.094,0.45899999141693115,-2.6006585529634205
663.827586,,0.003329651012167129,663.557,0.43799999356269836,-2.646183070952767
664.293103,,0.004701673455161931,664.019,0.47699999809265137,-2.560976172614216
664.7586210000001,,0.0059147091271795765,664.487,0.460999995470047,-2.5955892339067943
665.224138,,0.005144097274342501,664.949,0.4519999921321869,-2.6149536554340727
665.689655,,0.0024990550271582015,665.415,0.46299999952316284,-2.5907549645916825
666.155172,,0.00014091094317724627,665.886,0.44699999690055847,-2.6253970128437114
666.62069,,0.0001614106012801578,666.344,0.47200000286102295,-2.5707382182864884
667.086207,,0.0011446566492025057,666.81,0.46799999475479126,-2.5792894425795603
667.5517239999999,,0.00233704951544251,667.275,0.45899999141693115,-2.5987679346420833
668.017241,,0.00248800314008067,667.742,0.45899999141693115,-2.598676990062303
668.482759,,0.0019871276608964383,668.208,0.4519999921321869,-2.613878076198083
668.948276,,0.0014592713236701487,668.674,0.46700000762939453,-2.5811917924218313
669.413793,,0.0010026055488150684,669.14,0.46700000762939453,-2.5812279323957115
669.87931,,0.000540633384582356,669.601,0.4650000035762787,-2.5856626057524648
670.3448279999999,,0.0002578543740238165,670.064,0.43700000643730164,-2.64678151957455
670.810345,,0.00037421002363546455,670.532,0.45399999618530273,-2.609897715064055
671.275862,,0.0008481726988944113,670.994,0.4830000102519989,-2.54690105685363
671.7413789999999,,0.0015111741277236547,671.465,0.4779999852180481,-2.5580024534482817
672.206897,,0.002159438559428831,671.927,0.4569999873638153,-2.6039796201385483
672.672414,,0.0023659423146501694,672.393,0.4729999899864197,-2.5693577903761047
673.137931,,0.0016592110609136988,672.857,0.46299999952316284,-2.5913845197916814
673.6034480000001,,0.0002401185966077994,673.322,0.46399998664855957,-2.5894424991158793
674.068966,,0.0007886991904554342,673.787,0.46399998664855957,-2.5896683152070645
674.5344829999999,,0.0003779258407524065,674.253,0.45100000500679016,-2.6181990398296064
675.0,,0.0012958927774696799,674.72,0.4729999899864197,-2.570453310190197
675.465517,,0.0029322782818144975,675.186,0.47999998927116394,-2.5553571243783693
675.931034,,0.003435224412275,675.65,0.4699999988079071,-2.5772626050697234
676.396552,,0.0029117636437668262,676.115,0.46399998664855957,-2.590414966395947
676.862069,,0.0023398510270832692,676.576,0.46299999952316284,-2.592633520166788
