Trial: ,43
Threshold: ,0.0
Maximum EMG: ,0.0
Success: ,True

EMG Time,Raw EMG,Filtered EMG,Force Time,Raw Force (V),Filtered Force (N)
0.0,samples,0.0,0.466,0.4560000002384186,-2.606653554497383
0.46551699999999996,time,0.0,0.931,0.453000009059906,-2.613313227211599
0.9310339999999999,value,0.0,1.397,0.4569999873638153,-2.604716054242209
1.396552,,0.0,1.861,0.4440000057220459,-2.6331459956309127
1.862069,,0.0,2.327,0.45100000500679016,-2.617990086400275
2.327586,,0.0,2.794,0.4490000009536743,-2.622426139716382
2.793103,,0.0,3.26,0.46000000834465027,-2.598521026351762
3.258621,,0.0,3.721,0.45899999141693115,-2.600738692889177
3.724138,,0.0,4.191,0.4490000009536743,-2.6225417246773146
4.189654999999999,,0.0,4.653,0.4569999873638153,-2.6051062473803483
4.655172,,0.0,5.116,0.4399999976158142,-2.6421142774537416
5.12069,,0.0,5.584,0.4429999887943268,-2.6355278033813447
5.586207,,0.0,6.046,0.45100000500679016,-2.6180278500200767
6.051723999999999,,0.0,6.512,0.45500001311302185,-2.609223837779259
6.517241,,0.0,6.98,0.46799999475479126,-2.580795341483749
6.982759,,0.0,7.446,0.4429999887943268,-2.635141757739502
7.448276,,0.0,7.905,0.4620000123977661,-2.593617670268422
7.913793000000001,,0.0,8.371,0.4339999854564667,-2.6544844757425787
8.379309999999998,,0.0,8.835,0.45100000500679016,-2.6173106745979373
8.844828000000001,,0.0,9.301,0.45100000500679016,-2.6171766824579605
9.310345,,0.0,9.768,0.4429999887943268,-2.6344785562525823
9.775862,,0.0,10.234,0.453000009059906,-2.61257531874237
10.241379,,0.0,10.694,0.46299999952316284,-2.5906860006038595
10.706897,,0.0,11.164,0.4440000057220459,-2.6319943534465886
11.172414,,0.0,11.625,0.460999995470047,-2.5948912093170344
11.637931,,0.0,12.094,0.4390000104904175,-2.6427774864470286
12.103447999999998,,0.0,12.561,0.45899999141693115,-2.599184390959612
12.568966000000001,,0.0,13.026,0.44200000166893005,-2.636225878285729
13.034483,,0.0,13.484,0.43799999356269836,-2.644970006076416
13.5,,0.0,13.95,0.45399999618530273,-2.6101656420221127
13.965517,,0.0,14.415,0.46299999952316284,-2.590634187755426
14.431034,,0.0,14.879,0.460999995470047,-2.5950875147116577
14.896552,,0.0,15.346,0.44699999690055847,-2.6257016747783917
15.362069,,0.0,15.813,0.42100000381469727,-2.6824744515310925
15.827586000000002,,0.0,16.278,0.44699999690055847,-2.625969327253617
16.293103,,0.0,16.739,0.47600001096725464,-2.5629348293202825
16.758621,,0.0,17.209,0.4560000002384186,-2.6066551987569744
17.224138,,0.0,17.672,0.453000009059906,-2.6133352893498
17.689655,,0.0,18.135,0.45399999618530273,-2.611293720086436
18.155172,,0.0,18.606,0.45100000500679016,-2.6179554759055446
18.62069,,0.0,19.068,0.4650000035762787,-2.5875649469796187
19.086207,,0.0,19.534,0.44999998807907104,-2.6203363834506215
19.551724,,0.0,19.997,0.44699999690055847,-2.6269425596094647
20.017241000000002,,0.0,20.463,0.4560000002384186,-2.6073815141290746
20.482758999999998,,0.0,20.928,0.44699999690055847,-2.6270110506347577
20.948276,,0.0,21.394,0.46399998664855957,-2.5899696342819434
21.413793000000002,,0.0,21.857,0.4620000123977661,-2.594295922216857
21.87931,,0.0,22.323,0.4429999887943268,-2.635633693699329
22.344828,,0.0,22.788,0.46399998664855957,-2.589801712709088
22.810344999999998,,0.0,23.253,0.4620000123977661,-2.594056772201253
23.275862,,0.0,23.721,0.4740000069141388,-2.5677914198466967
23.741379,,0.0,24.183,0.47600001096725464,-2.5632963136911764
24.206897,,0.0,24.651,0.46299999952316284,-2.5914688628037537
24.672414,,0.0,25.113,0.45100000500679016,-2.617455873573224
25.137931,,0.0,25.576,0.4410000145435333,-2.6390844423450295
25.603448,,0.0,26.039,0.4490000009536743,-2.6215015738012326
26.068966,,0.0,26.505,0.4440000057220459,-2.632250037156181
26.534483,,0.0,26.969,0.4490000009536743,-2.6212253770840794
27.0,,0.0,27.435,0.4410000145435333,-2.6385405793316883
27.465517,,0.0,27.901,0.4490000009536743,-2.6210184865264963
27.931034,,0.0,28.367,0.45899999141693115,-2.5991626452690104
28.396552,,0.0,28.832,0.44699999690055847,-2.625262454093256
28.862069,,0.0,29.298,0.44999998807907104,-2.6187095297155594
29.327586,,0.0,29.762,0.45500001311302185,-2.6078267708565384
29.793103000000002,,0.0,30.228,0.46299999952316284,-2.590434996422776
30.258620999999998,,0.0,30.691,0.46399998664855957,-2.5883190938850804
30.724138,,0.0,31.161,0.49000000953674316,-2.5317596783181866
31.189655000000002,,0.0,31.624,0.44699999690055847,-2.6255472286342627
31.655172000000004,,0.0,32.087,0.4970000088214874,-2.5167375345322505
32.12069,,0.0,32.553,0.45899999141693115,-2.599662289389401
32.586207,,0.0,33.015,0.4580000042915344,-2.601986763542029
33.051724,,0.0,33.481,0.460999995470047,-2.5956029528711477
33.517241000000006,,0.0,33.946,0.4620000123977661,-2.5935781020257145
33.982759,,0.0,34.412,0.44600000977516174,-2.628587749813453
34.448276,,0.0,34.877,0.44699999690055847,-2.626553908473154
34.913793,,0.0,35.343,0.453000009059906,-2.6136161355901386
35.37931,,0.0,35.81,0.4620000123977661,-2.594127353509868
35.844828,,0.0,36.276,0.45899999141693115,-2.600763315715201
36.310345,,0.0,36.739,0.4410000145435333,-2.640057019921621
36.775862,,0.0,37.201,0.4690000116825104,-2.579108764338499
37.241378999999995,,0.0,37.669,0.4359999895095825,-2.651032142568626
37.706897000000005,,0.0,38.131,0.45399999618530273,-2.611817693241132
38.172414,,0.0,38.595,0.45100000500679016,-2.618327970395792
38.637931,,0.0,39.064,0.45100000500679016,-2.618275722865916
39.103448,,0.0,39.53,0.46299999952316284,-2.592054247762418
39.568965999999996,,0.0,39.994,0.45100000500679016,-2.6180967371910597
40.034483,,0.0,40.46,0.45899999141693115,-2.600545567012669
40.5,,0.0,40.924,0.45500001311302185,-2.6091208388221325
40.965517,,0.0,41.389,0.46000000834465027,-2.5980749501466436
41.431034,,0.0,41.854,0.45100000500679016,-2.6175212566985815
41.896552,,0.0,42.32,0.4819999933242798,-2.5498171201261077
42.362069000000005,,0.0,42.784,0.4519999921321869,-2.6150105672920407
42.827586000000004,,0.0,43.25,0.45100000500679016,-2.617028711580635
43.293103,,0.0,43.713,0.43799999356269836,-2.645201972881209
43.758621,,0.0,44.175,0.46299999952316284,-2.5906024000527115
44.224138,,0.0,44.643,0.45899999141693115,-2.599203053683007
44.689655,,0.0,45.106,0.45100000500679016,-2.6165410207022837
45.155172,,0.0,45.569,0.44200000166893005,-2.6360838960063853
45.620689999999996,,0.0,46.039,0.45100000500679016,-2.616439755404982
46.086206999999995,,0.0,46.504,0.45100000500679016,-2.6164332662595133
46.551724,,0.0,46.969,0.44200000166893005,-2.6360648162604674
47.017241,,0.0,47.435,0.45899999141693115,-2.5990811823178817
47.482759,,0.0,47.894,0.45899999141693115,-2.5991623468889964
47.948276,,0.0,48.36,0.45100000500679016,-2.616698021508295
48.413793,,0.0,48.825,0.4129999876022339,-2.6996165570493327
48.879310000000004,,0.0,49.291,0.46000000834465027,-2.5973700524190213
49.344828,,0.0,49.754,0.531000018119812,-2.4428493980705928
49.810345,,0.0,50.224,0.46799999475479126,-2.5802740229861842
50.275862,,0.0,50.684,0.4269999861717224,-2.669771371675313
50.741379,,0.0,51.154,0.4490000009536743,-2.622014064862925
51.206897,,0.0,51.617,0.45100000500679016,-2.617824865793274
51.672414,,0.0,52.079,0.46399998664855957,-2.5896599281251915
52.137931,,0.0,52.545,0.45100000500679016,-2.6181241270864786
52.603448,,0.0,53.015,0.44600000977516174,-2.629139535449396
53.068966,,0.0,53.48,0.45500001311302185,-2.609630743305552
53.534483,,0.0,53.94,0.4650000035762787,-2.587916686153887
54.0,,0.0,54.406,0.45100000500679016,-2.6184609340685587
54.465517,,0.0,54.872,0.4560000002384186,-2.607580383619598
54.931034,,0.0,55.338,0.44699999690055847,-2.6271701171437747
55.396552,,0.0,55.803,0.46000000834465027,-2.5987990705625803
55.862069,,0.0,56.269,0.4749999940395355,-2.566040960103358
56.327586,,0.0,56.731,0.4519999921321869,-2.616043447540371
56.793102999999995,,0.0,57.201,0.45100000500679016,-2.618091191666974
57.258621000000005,,0.0,57.661,0.4399999976158142,-2.6419054889999485
57.724138,,0.0,58.131,0.4779999852180481,-2.5589500974656416
58.189655,,0.0,58.595,0.46799999475479126,-2.5805577781053715
58.655172,,0.0,59.057,0.45500001311302185,-2.6086945341206342
59.120689999999996,,0.0,59.523,0.46399998664855957,-2.5889003028475055
59.586207,,0.0,59.987,0.43799999356269836,-2.645363928149518
60.051724,,0.0,60.452,0.45500001311302185,-2.608156790792425
60.517241,,0.0,60.916,0.4259999990463257,-2.671184335827343
60.982758999999994,,0.0,61.382,0.45100000500679016,-2.616586489765536
61.448276,,0.0,61.847,0.44600000977516174,-2.6273735432434195
61.913793,,0.0,62.312,0.4490000009536743,-2.6207597577621393
62.379310000000004,,0.0,62.78,0.4480000138282776,-2.6228912444922665
62.84482800000001,,0.0,63.245,0.4569999873638153,-2.603268340267993
63.310345000000005,,0.0,63.706,0.4269999861717224,-2.6686454863814117
63.775862000000004,,0.0,64.175,0.4480000138282776,-2.6229443444938885
64.241379,,0.0,64.639,0.4569999873638153,-2.6034181390554028
64.706897,,0.0,65.102,0.4569999873638153,-2.6035276109964496
65.172414,,0.0,65.572,0.46700000762939453,-2.5818748489586705
65.637931,,0.0,66.035,0.45899999141693115,-2.59945798705942
66.103448,,0.0,66.501,0.4519999921321869,-2.6148782917294
66.56896599999999,,0.0,66.966,0.46399998664855957,-2.5889153275304304
67.03448300000001,,0.0,67.424,0.45899999141693115,-2.5999948940974553
67.5,,0.0,67.891,0.44699999690055847,-2.6263252348392965
67.965517,,0.0,68.357,0.45899999141693115,-2.600363084990783
68.431034,,0.0,68.821,0.45100000500679016,-2.6179635218936865
68.896552,,0.0,69.287,0.45500001311302185,-2.6094047676668066
69.362069,,0.0,69.75,0.4440000057220459,-2.63350596494294
69.827586,,0.0,70.22,0.4390000104904175,-2.6445118003393726
70.293103,,0.0,70.683,0.4429999887943268,-2.635883338902098
70.75862099999999,,0.0,71.146,0.4620000123977661,-2.594545472381861
71.22413800000001,,0.0,71.614,0.46000000834465027,-2.5989271886318335
71.689655,,0.0,72.076,0.46399998664855957,-2.5902037355053698
72.15517200000001,,0.0,72.542,0.4569999873638153,-2.6054122366499977
72.62069,,0.0,73.005,0.45100000500679016,-2.6184103663476823
73.086207,,0.0,73.47,0.46299999952316284,-2.5921634103607207
73.551724,,0.0,73.936,0.4650000035762787,-2.587676090815404
74.017241,,0.0,74.401,0.44699999690055847,-2.626738788242701
74.482759,,0.0,74.868,0.4519999921321869,-2.615674611131093
74.94827599999999,,0.0,75.334,0.4429999887943268,-2.6350989518258805
75.41379300000001,,0.0,75.799,0.4359999895095825,-2.650159213847271
75.87931,,0.0,76.264,0.45500001311302185,-2.6085734620232186
76.344828,,0.0,76.728,0.45100000500679016,-2.617100756728291
76.810345,,0.0,77.191,0.45500001311302185,-2.6082081044652896
77.275862,,0.0,77.654,0.46000000834465027,-2.5971512023495458
77.741379,,0.0,78.124,0.4519999921321869,-2.614435877079505
78.206897,,0.0,78.584,0.46000000834465027,-2.596885572303825
78.67241399999999,,0.0,79.053,0.4300000071525574,-2.6621515038060495
79.137931,,0.0,79.519,0.46399998664855957,-2.588014620112045
79.603448,,0.0,79.983,0.45100000500679016,-2.616306311434314
80.068966,,0.0,80.449,0.4410000145435333,-2.638095231480187
80.53448300000001,,0.0,80.909,0.47200000286102295,-2.5705927715634456
81.0,,0.0,81.375,0.3869999945163727,-2.75584644083744
81.465517,,0.0,81.84,0.45500001311302185,-2.607798891837921
81.931034,,0.0,82.305,0.4519999921321869,-2.6144638126065347
82.396552,,0.0,82.772,0.44600000977516174,-2.6276879765205727
82.86206899999999,,0.0,83.238,0.44699999690055847,-2.6256807454840887
83.327586,,0.0,83.706,0.4650000035762787,-2.58665012663242
83.79310299999999,,0.0,84.168,0.4490000009536743,-2.6217013682617596
84.258621,,0.0,84.636,0.453000009059906,-2.6131818055853944
84.72413800000001,,0.0,85.098,0.453000009059906,-2.6133734067301875
85.189655,,0.0,85.569,0.44600000977516174,-2.6288064605309542
85.65517200000001,,0.0,86.024,0.4560000002384186,-2.6071880618119954
86.12069,,0.0,86.49,0.44699999690055847,-2.626944480544879
86.586207,,0.0,86.954,0.4350000023841858,-2.6532132861597164
87.051724,,0.0,87.42,0.44699999690055847,-2.627167663911285
87.517241,,0.0,87.887,0.45100000500679016,-2.618521094070953
87.98275899999999,,0.0,88.353,0.4440000057220459,-2.6338072669581543
88.448276,,0.0,88.821,0.4410000145435333,-2.6403455518379344
88.913793,,0.0,89.279,0.47200000286102295,-2.572776076711416
89.37931,,0.0,89.75,0.4650000035762787,-2.587961428922277
89.844828,,0.0,90.212,0.4519999921321869,-2.6161867349520485
90.310345,,0.0,90.68,0.4440000057220459,-2.633490447472808
90.775862,,0.0,91.142,0.45399999618530273,-2.6115543503807195
91.241379,,0.0,91.61,0.4699999988079071,-2.5765261198637406
91.706897,,0.0,92.072,0.44999998807907104,-2.6199137707584885
92.17241399999999,,0.0,92.538,0.4440000057220459,-2.6327909003700722
92.63793100000001,,0.0,93.0,0.44699999690055847,-2.6260572924902594
93.103448,,0.0,93.466,0.45899999141693115,-2.599718612367987
93.568966,,0.0,93.931,0.4620000123977661,-2.5929958015599075
94.03448300000001,,0.0,94.397,0.46000000834465027,-2.5971797111395762
94.5,,0.0,94.862,0.4359999895095825,-2.6493130737752346
94.965517,,0.0,95.328,0.4490000009536743,-2.6208608582997295
95.431034,,0.0,95.795,0.503000020980835,-2.503111399419139
95.896552,,0.0,96.26,0.46299999952316284,-2.5901840630045845
96.36206899999999,,0.0,96.721,0.45100000500679016,-2.616286510245802
96.827586,,0.0,97.191,0.4519999921321869,-2.6141011347646623
97.293103,,0.0,97.654,0.503000020980835,-2.5030173566190244
97.758621,,0.0,98.116,0.46399998664855957,-2.5880444293092926
98.224138,,0.0,98.584,0.46299999952316284,-2.5903139332828964
98.689655,,0.0,99.046,0.45100000500679016,-2.616578275896764
99.155172,,0.0,99.512,0.4339999854564667,-2.653762965084891
99.62069,,0.0,99.98,0.453000009059906,-2.612539461080905
100.086207,,0.0,100.446,0.4410000145435333,-2.638872187290706
100.551724,,0.0,100.91,0.4490000009536743,-2.6216443307061628
101.017241,,0.0,101.376,0.4740000069141388,-2.5673851313526566
101.482759,,0.0,101.835,0.4269999861717224,-2.669987966014778
101.948276,,0.0,102.301,0.45899999141693115,-2.6004710597137795
102.413793,,0.0,102.766,0.45100000500679016,-2.618087364054276
102.87931,,0.0,103.232,0.5109999775886536,-2.487535611637177
103.344828,,0.0,103.694,0.49000000953674316,-2.5334273901223634
103.810345,,0.0,104.165,0.45100000500679016,-2.6185040388643905
104.275862,,0.0,104.628,0.4490000009536743,-2.622938279112925
104.741379,,0.0,105.091,0.45100000500679016,-2.6186238847147503
105.206897,,0.0,105.556,0.45399999618530273,-2.612095359267327
105.672414,,0.0,106.02,0.5170000195503235,-2.4748106324602595
106.13793100000001,,0.0,106.486,0.45899999141693115,-2.601104879914236
106.603448,,0.0,106.95,0.4620000123977661,-2.5944666665750233
107.068966,,0.0,107.416,0.3930000066757202,-2.744661866336052
107.534483,,0.0,107.884,0.45100000500679016,-2.618144612342363
108.0,,0.0,108.35,0.44699999690055847,-2.6266834459484594
108.46551699999999,,0.0,108.809,0.46299999952316284,-2.5916330400840497
108.931034,,0.0,109.275,0.4339999854564667,-2.6546113391360784
109.396552,,0.0,109.743,0.453000009059906,-2.6130102595083384
109.862069,,0.0,110.205,0.4560000002384186,-2.6062693834618162
110.32758600000001,,0.0,110.676,0.4429999887943268,-2.634394475405919
110.793103,,0.0,111.138,0.4490000009536743,-2.6211389112861183
111.258621,,0.0,111.599,0.45100000500679016,-2.616617108163931
111.724138,,0.0,112.069,0.4620000123977661,-2.5925110791362007
112.189655,,0.0,112.535,0.4650000035762787,-2.585861585794166
112.655172,,0.0,112.998,0.45399999618530273,-2.6097437811087336
113.12069,,0.0,113.463,0.45899999141693115,-2.598800981505077
113.586207,,0.0,113.928,0.44699999690055847,-2.6249304066224375
114.051724,,0.0,114.394,0.460999995470047,-2.594450808398621
114.51724100000001,,0.0,114.854,0.45100000500679016,-2.6162939806520833
114.982759,,0.0,115.32,0.4429999887943268,-2.6338138294983646
115.448276,,0.0,115.791,0.44699999690055847,-2.6252215974033835
115.913793,,0.0,116.249,0.45100000500679016,-2.616657522797528
116.37931,,0.0,116.717,0.45100000500679016,-2.616831607015457
116.84482799999999,,0.0,117.18,0.4650000035762787,-2.5865227065875462
117.310345,,0.0,117.65,0.453000009059906,-2.612870819865389
117.77586199999999,,0.0,118.113,0.4569999873638153,-2.604366846883013
118.241379,,0.0,118.581,0.47699999809265137,-2.561004147818926
118.70689700000001,,0.0,119.042,0.5170000195503235,-2.4740604028428845
119.172414,,0.0,119.507,0.43799999356269836,-2.646361673102781
119.63793100000001,,0.0,119.972,0.46299999952316284,-2.592065303903977
120.103448,,0.0,120.438,0.45100000500679016,-2.6183567698674937
120.568966,,0.0,120.906,0.4560000002384186,-2.6075846452384357
121.034483,,0.0,121.364,0.45500001311302185,-2.6098543377755767
121.5,,0.0,121.829,0.4519999921321869,-2.6164486978038797
121.96551699999999,,0.0,122.294,0.45399999618530273,-2.6121154132762996
122.431034,,0.0,122.768,0.4230000078678131,-2.679642998285716
122.896552,,0.0,123.227,0.46399998664855957,-2.5902739387770852
123.362069,,0.0,123.695,0.45500001311302185,-2.6098036391434194
123.827586,,0.0,124.157,0.453000009059906,-2.614050989326678
124.293103,,0.0,124.62,0.4490000009536743,-2.622627138639903
124.758621,,0.0,125.09,0.45100000500679016,-2.6181068804734466
125.22413800000001,,0.0,125.549,0.44699999690055847,-2.626638716918371
125.68965500000002,,0.0,126.02,0.45100000500679016,-2.617726695766191
126.15517200000001,,0.0,126.486,0.4560000002384186,-2.6066268501209384
126.62069000000001,,0.0,126.95,0.4429999887943268,-2.634739360564957
127.086207,,0.0,127.415,0.4440000057220459,-2.6323537447977428
127.55172400000001,,0.0,127.876,0.4390000104904175,-2.6430492975673032
128.017241,,0.0,128.342,0.4560000002384186,-2.6058293605958345
128.48275900000002,,0.0,128.81,0.45399999618530273,-2.610023254140781
128.948276,,0.0,129.275,0.4399999976158142,-2.640385173712001
129.413793,,0.0,129.735,0.4620000123977661,-2.5923441400109413
129.87931,,0.0,130.205,0.47699999809265137,-2.5595845814301534
130.344828,,0.0,130.668,0.46299999952316284,-2.5900383942163896
130.81034499999998,,0.0,131.131,0.44600000977516174,-2.6270628233450513
131.275862,,0.0,131.599,0.4399999976158142,-2.6401584518360672
131.741379,,0.0,132.061,0.44200000166893005,-2.63586120439528
132.206897,,0.0,132.526,0.46299999952316284,-2.5902041258946613
132.67241399999997,,0.0,132.993,0.4880000054836273,-2.5358631210175275
133.13793099999998,,0.0,133.458,0.4129999876022339,-2.69941447419407
133.60344800000001,,0.0,133.92,0.453000009059906,-2.6124458866287528
134.06896600000002,,0.0,134.385,0.4729999899864197,-2.569069788599112
134.53448300000002,,0.0,134.85,0.4440000057220459,-2.6324603668447666
135.0,,0.0,135.315,0.4490000009536743,-2.621784554487041
135.465517,,0.0,135.78,0.4659999907016754,-2.5849664613959407
135.931034,,0.0,136.246,0.4650000035762787,-2.587358525885443
136.396552,,0.0,136.709,0.4659999907016754,-2.585381434944927
136.862069,,0.0,137.179,0.4519999921321869,-2.6160665695298015
137.327586,,0.0,137.639,0.460999995470047,-2.5966202871019397
137.793103,,0.0,138.109,0.4519999921321869,-2.6163625945596056
138.258621,,0.0,138.569,0.44699999690055847,-2.6273594559054114
138.724138,,0.0,139.039,0.44600000977516174,-2.629608106187319
139.189655,,0.0,139.505,0.45100000500679016,-2.6187491182812455
139.655172,,0.0,139.965,0.44600000977516174,-2.6296395079981285
140.12069,,0.0,140.431,0.45100000500679016,-2.6187061260539735
140.586207,,0.0,140.899,0.46399998664855957,-2.5903067855767703
141.05172399999998,,0.0,141.364,0.4519999921321869,-2.6163383713272648
141.51724099999998,,0.0,141.829,0.4480000138282776,-2.6249086826355317
141.982759,,0.0,142.294,0.4480000138282776,-2.624736640966132
142.44827600000002,,0.0,142.757,0.4519999921321869,-2.6158269322267356
142.913793,,0.0,143.22,0.4519999921321869,-2.615613883991661
143.37931,,0.0,143.688,0.4429999887943268,-2.634996822114285
143.844828,,0.0,144.15,0.4410000145435333,-2.639123978558902
144.310345,,0.0,144.621,0.46000000834465027,-2.5975007897785813
144.77586200000002,,0.0,145.083,0.42899999022483826,-2.664817731113825
145.241379,,0.0,145.549,0.45100000500679016,-2.616680574486901
145.706897,,0.0,146.012,0.45100000500679016,-2.6164938518848766
146.172414,,0.0,146.478,0.45100000500679016,-2.616332286490663
146.637931,,0.0,146.943,0.45500001311302185,-2.6074859757705613
147.103448,,0.0,147.409,0.48399999737739563,-2.544206653282481
147.568966,,0.0,147.869,0.44999998807907104,-2.6182179744890495
148.034483,,0.0,148.334,0.45399999618530273,-2.6094791623207554
148.5,,0.0,148.799,0.44699999690055847,-2.6247458088905935
148.965517,,0.0,149.265,0.4569999873638153,-2.603015711868777
149.43103399999998,,0.0,149.735,0.4490000009536743,-2.6205402451655018
149.89655199999999,,0.0,150.198,0.4560000002384186,-2.605421735011163
150.362069,,0.0,150.661,0.45100000500679016,-2.6164802619517116
150.82758600000003,,0.0,151.124,0.45100000500679016,-2.6166744893562672
151.293103,,0.0,151.594,0.45100000500679016,-2.616892487032481
151.758621,,0.0,152.057,0.45100000500679016,-2.6171282483562113
152.224138,,0.0,152.523,0.4359999895095825,-2.6500552343376147
152.68965500000002,,0.0,152.987,0.45399999618530273,-2.611091413004939
153.155172,,0.0,153.452,0.45899999141693115,-2.600446991797098
153.62069,,0.0,153.916,0.4620000123977661,-2.5941489253093106
154.086207,,0.0,154.383,0.4440000057220459,-2.633584797754829
154.551724,,0.0,154.85,0.44699999690055847,-2.627245290591223
155.017241,,0.0,155.309,0.44699999690055847,-2.6274122353298384
155.482759,,0.0,155.776,0.45100000500679016,-2.6188297788852615
155.948276,,0.0,156.242,0.4339999854564667,-2.6559601574166467
156.413793,,0.0,156.71,0.45100000500679016,-2.6189745836874234
156.87931,,0.0,157.173,0.47600001096725464,-2.5645152501308295
157.34482799999998,,0.0,157.635,0.4390000104904175,-2.645086288939573
157.81034499999998,,0.0,158.105,0.45100000500679016,-2.6188589350148193
158.275862,,0.0,158.564,0.45100000500679016,-2.618732934951346
158.741379,,0.0,159.035,0.4659999907016754,-2.5858874786053616
159.20689700000003,,0.0,159.494,0.45100000500679016,-2.618365798465079
159.672414,,0.0,159.961,0.4300000071525574,-2.6638865771531672
160.137931,,0.0,160.427,0.45899999141693115,-2.6004524215197713
160.60344800000001,,0.0,160.891,0.46399998664855957,-2.589289675353088
161.06896600000002,,0.0,161.356,0.4449999928474426,-2.630405676519236
161.534483,,0.0,161.821,0.4699999988079071,-2.575660529559408
162.0,,0.0,162.286,0.42899999022483826,-2.664714073158317
162.465517,,0.0,162.75,0.4480000138282776,-2.6230651887118146
162.931034,,0.0,163.219,0.46399998664855957,-2.5879763853555766
163.396552,,0.0,163.68,0.453000009059906,-2.611741323360102
163.862069,,0.0,164.15,0.46399998664855957,-2.587612550476712
164.327586,,0.0,164.61,0.44999998807907104,-2.617991751035156
164.793103,,0.0,165.08,0.453000009059906,-2.6113800349714005
165.258621,,0.0,165.546,0.45100000500679016,-2.6157107671382662
165.72413799999998,,0.0,166.009,0.4620000123977661,-2.591769372141921
166.189655,,0.0,166.474,0.4440000057220459,-2.6310590436954033
166.655172,,0.0,166.939,0.44600000977516174,-2.6268247675592034
167.12069,,0.0,167.404,0.453000009059906,-2.6117433870762334
167.58620699999997,,0.0,167.869,0.4399999976158142,-2.6402766113808207
168.051724,,0.0,168.334,0.46299999952316284,-2.5904141767086593
168.517241,,0.0,168.8,0.45100000500679016,-2.6168328892997916
168.98275900000002,,0.0,169.259,0.46399998664855957,-2.5888057877969035
169.44827600000002,,0.0,169.728,0.44699999690055847,-2.6261499909565047
169.913793,,0.0,170.19,0.45500001311302185,-2.6090311053722828
170.37931,,0.0,170.654,0.45100000500679016,-2.6180501353537267
170.844828,,0.0,171.123,0.44999998807907104,-2.620518215843107
171.310345,,0.0,171.584,0.4699999988079071,-2.5772105450775196
171.775862,,0.0,172.054,0.46299999952316284,-2.59269361506164
172.241379,,0.0,172.519,0.45899999141693115,-2.601600657079046
172.706897,,0.0,172.983,0.45899999141693115,-2.6017471462948842
173.172414,,0.0,173.449,0.4569999873638153,-2.6062003084353087
173.637931,,0.0,173.914,0.45899999141693115,-2.60188491126278
174.103448,,0.0,174.379,0.46799999475479126,-2.5822630468717276
174.568966,,0.0,174.839,0.44600000977516174,-2.6301232774587637
175.034483,,0.0,175.304,0.46399998664855957,-2.590783487039992
175.5,,0.0,175.769,0.4790000021457672,-2.5579280640485087
175.96551699999998,,0.0,176.235,0.44999998807907104,-2.6208861805096806
176.43103399999998,,0.0,176.705,0.47200000286102295,-2.5726926571344126
176.896552,,0.0,177.168,0.3880000114440918,-2.7554042993859555
177.36206900000002,,0.0,177.636,0.5260000228881836,-2.4544327858970223
177.827586,,0.0,178.098,0.44699999690055847,-2.626212346130522
178.293103,,0.0,178.569,0.45500001311302185,-2.608443491268008
178.758621,,0.0,179.024,0.47200000286102295,-2.5710719920287257
179.224138,,0.0,179.49,0.4779999852180481,-2.5576799600443234
179.68965500000002,,0.0,179.958,0.453000009059906,-2.6118499550743914
180.155172,,0.0,180.423,0.453000009059906,-2.6115877389144195
180.62069,,0.0,180.891,0.44699999690055847,-2.6244402142533945
181.086207,,0.0,181.349,0.46000000834465027,-2.5959480518068156
181.551724,,0.0,181.817,0.4410000145435333,-2.637227957929718
182.01724099999998,,0.0,182.283,0.45399999618530273,-2.6088505714805077
182.482759,,0.0,182.751,0.4519999921321869,-2.6132143795364757
182.948276,,0.0,183.214,0.46700000762939453,-2.580602450510696
183.413793,,0.0,183.676,0.4490000009536743,-2.61994560838958
183.87931,,0.0,184.145,0.4390000104904175,-2.64191638324938
184.34482799999998,,0.0,184.606,0.4480000138282776,-2.6225451240336146
184.81034499999998,,0.0,185.076,0.3790000081062317,-2.7731552038103655
185.27586200000002,,0.0,185.534,0.4390000104904175,-2.6427592066442513
185.74137900000002,,0.0,186.005,0.46399998664855957,-2.588644628209502
186.206897,,0.0,186.47,0.44699999690055847,-2.626049520137007
186.672414,,0.0,186.935,0.45500001311302185,-2.608993272149806
187.137931,,0.0,187.401,0.45100000500679016,-2.618074649445216
187.60344800000001,,0.0,187.865,0.4560000002384186,-2.607530567628544
188.06896600000002,,0.0,188.324,0.4519999921321869,-2.6165658654133708
188.534483,,0.0,188.791,0.46299999952316284,-2.5928827557305287
189.0,,0.0,189.257,0.46000000834465027,-2.599652933426016
189.465517,,0.0,189.725,0.45100000500679016,-2.6194398523878615
189.931034,,0.0,190.187,0.45500001311302185,-2.6108436461030315
190.39655199999999,,0.0,190.65,0.4749999940395355,-2.5673241277188876
190.862069,,0.0,191.12,0.4569999873638153,-2.606525797181171
191.327586,,0.0,191.584,0.4569999873638153,-2.606444702506722
191.793103,,0.0,192.046,0.46299999952316284,-2.593227012550082
192.25862099999998,,0.0,192.512,0.4440000057220459,-2.6344151913366702
192.72413799999998,,0.0,192.976,0.4519999921321869,-2.616725998815511
193.189655,,0.0,193.441,0.44600000977516174,-2.6294918241899183
193.655172,,0.0,193.906,0.4480000138282776,-2.6247916655153407
194.12069000000002,,0.0,194.371,0.4390000104904175,-2.6440303535739655
194.586207,,0.0,194.835,0.46299999952316284,-2.5913583126473947
195.051724,,0.0,195.301,0.4099999964237213,-2.706438834572004
195.517241,,0.0,195.766,0.4659999907016754,-2.5840554578886743
195.98275900000002,,0.0,196.232,0.453000009059906,-2.612018373396792
196.448276,,0.0,196.695,0.44600000977516174,-2.62693954730131
196.913793,,0.0,197.165,0.4480000138282776,-2.6222935940570813
197.37931,,0.0,197.628,0.4440000057220459,-2.6307693627187936
197.844828,,0.0,198.09,0.4429999887943268,-2.632766599042075
198.310345,,0.0,198.556,0.48100000619888306,-2.549858983986409
198.775862,,0.0,199.02,0.45399999618530273,-2.608629155577086
199.241379,,0.0,199.486,0.46000000834465027,-2.5955715071077017
199.706897,,0.0,199.95,0.44600000977516174,-2.626154983024727
200.172414,,0.0,200.415,0.46299999952316284,-2.589266430534416
200.63793099999998,,0.0,200.88,0.4480000138282776,-2.622156430670129
201.103448,,0.0,201.345,0.45100000500679016,-2.6158867716714775
201.568966,,0.0,201.81,0.45899999141693115,-2.5987721016533576
202.034483,,0.0,202.276,0.46399998664855957,-2.5882318611930795
202.5,,0.0,202.739,0.45100000500679016,-2.6169351827665537
202.965517,,0.0,203.209,0.43799999356269836,-2.6456557583540428
203.431034,,0.0,203.669,0.4560000002384186,-2.606843788454918
203.896552,,0.0,204.14,0.3370000123977661,-2.8665019472324804
204.36206900000002,,0.0,204.602,0.46000000834465027,-2.5989118188282436
204.827586,,0.0,205.064,0.4390000104904175,-2.6450180404581345
205.293103,,0.0,205.53,0.46399998664855957,-2.5908641669078447
205.758621,,0.0,205.994,0.44699999690055847,-2.628161025182056
206.224138,,0.0,206.46,0.46299999952316284,-2.593501494569006
206.689655,,0.0,206.925,0.453000009059906,-2.6154192077538543
207.155172,,0.0,207.391,0.46000000834465027,-2.600227742554791
207.62069,,0.0,207.857,0.4620000123977661,-2.5958549672434748
208.086207,,0.0,208.323,0.46299999952316284,-2.593586144660654
208.551724,,0.0,208.788,0.42500001192092896,-2.676212856646211
209.01724099999998,,0.0,209.254,0.4569999873638153,-2.606267875868596
209.482759,,0.0,209.717,0.4490000009536743,-2.6234087760985316
209.948276,,0.0,210.179,0.46399998664855957,-2.590388759867565
210.413793,,0.0,210.65,0.4729999899864197,-2.5703981813620116
210.87930999999998,,0.0,211.113,0.46399998664855957,-2.589592035414831
211.344828,,0.0,211.58,0.45100000500679016,-2.617482250859402
211.810345,,0.0,212.043,0.46799999475479126,-2.580008527581459
212.27586200000002,,0.0,212.509,0.4169999957084656,-2.6906925199086014
212.741379,,0.0,212.976,0.46399998664855957,-2.5878925386518907
213.206897,,0.0,213.434,0.4440000057220459,-2.6310978398663796
213.672414,,0.0,213.899,0.4410000145435333,-2.6373134852310223
214.137931,,0.0,214.365,0.44999998807907104,-2.6174432656933653
214.60344800000001,,0.0,214.832,0.4519999921321869,-2.6128894726418506
215.068966,,0.0,215.297,0.45100000500679016,-2.6149437419980006
215.534483,,0.0,215.77,0.4480000138282776,-2.6214317165498593
216.0,,0.0,216.228,0.44200000166893005,-2.6345341870721484
216.465517,,0.0,216.69,0.4429999887943268,-2.6324643106142016
216.93103399999998,,0.0,217.16,0.43799999356269836,-2.64354164789159
217.39655199999999,,0.0,217.621,0.45399999618530273,-2.608937206945949
217.862069,,0.0,218.09,0.4429999887943268,-2.6332182912056483
218.327586,,0.0,218.556,0.4090000092983246,-2.7076614283189047
218.793103,,0.0,219.019,0.46399998664855957,-2.5882472495442936
219.25862099999998,,0.0,219.484,0.4480000138282776,-2.6235456530052015
219.724138,,0.0,219.951,0.4620000123977661,-2.593498943310301
220.18965500000002,,0.0,220.409,0.4569999873638153,-2.6048467057710325
220.65517200000002,,0.0,220.876,0.45899999141693115,-2.6009297094493036
221.12069,,0.0,221.342,0.4129999876022339,-2.7015609020532447
221.586207,,0.0,221.807,0.44999998807907104,-2.621325258036665
222.051724,,0.0,222.272,0.45500001311302185,-2.6107549671701
222.517241,,0.0,222.735,0.4620000123977661,-2.595764778736876
222.98275900000002,,0.0,223.204,0.46700000762939453,-2.5850604372715846
223.448276,,0.0,223.665,0.453000009059906,-2.6156727606433368
223.913793,,0.0,224.135,0.45399999618530273,-2.613524407760783
224.37931,,0.0,224.595,0.45100000500679016,-2.620008711004582
224.844828,,0.0,225.065,0.4440000057220459,-2.6351273003806353
225.31034499999998,,0.0,225.524,0.46399998664855957,-2.5913458587462643
225.775862,,0.0,225.995,0.453000009059906,-2.61503172845443
226.241379,,0.0,226.46,0.45100000500679016,-2.619047622678549
226.706897,,0.0,226.92,0.45399999618530273,-2.612118744177726
227.172414,,0.0,227.386,0.44999998807907104,-2.62040093857509
227.63793099999998,,0.0,227.85,0.4560000002384186,-2.606870441525697
228.103448,,0.0,228.316,0.4569999873638153,-2.6042211140859557
228.56896600000002,,0.0,228.78,0.4620000123977661,-2.5928593544956584
229.03448300000002,,0.0,229.246,0.46399998664855957,-2.588050269710623
229.5,,0.0,229.709,0.4480000138282776,-2.6224876645443453
229.965517,,0.0,230.179,0.4569999873638153,-2.6025035062435866
230.431034,,0.0,230.639,0.453000009059906,-2.6108982001073517
230.896552,,0.0,231.109,0.45100000500679016,-2.6150023850292
231.362069,,0.0,231.572,0.39899998903274536,-2.7281150610237526
231.827586,,0.0,232.035,0.4440000057220459,-2.6299816046287745
232.293103,,0.0,232.501,0.44699999690055847,-2.623436762593796
232.758621,,0.0,232.968,0.45899999141693115,-2.597368635716393
233.224138,,0.0,233.434,0.4519999921321869,-2.6127768345949267
233.689655,,0.0,233.898,0.4519999921321869,-2.61301179016678
234.155172,,0.0,234.364,0.49000000953674316,-2.530527605283202
234.62069,,0.0,234.828,0.4490000009536743,-2.6202163702259638
235.086207,,0.0,235.294,0.4659999907016754,-2.583592442596388
235.55172399999998,,0.0,235.757,0.45399999618530273,-2.610185950452412
236.01724099999998,,0.0,236.219,0.45899999141693115,-2.5997652927672097
236.482759,,0.0,236.687,0.45100000500679016,-2.617675505155459
236.94827600000002,,0.0,237.15,0.4390000104904175,-2.6442943666967094
237.413793,,0.0,237.621,0.45100000500679016,-2.618605347453
237.87931,,0.0,238.083,0.45500001311302185,-2.6103107080358283
238.344828,,0.0,238.549,0.4560000002384186,-2.608503748877543
238.810345,,0.0,239.012,0.46399998664855957,-2.5913859956537793
239.27586200000002,,0.0,239.477,0.45899999141693115,-2.6025203337653036
239.741379,,0.0,239.942,0.4519999921321869,-2.617934170555917
240.206897,,0.0,240.408,0.46700000762939453,-2.5853346896668548
240.672414,,0.0,240.872,0.44200000166893005,-2.6397955561399993
241.137931,,0.0,241.338,0.46700000762939453,-2.585238400630902
241.603448,,0.0,241.802,0.45100000500679016,-2.619922778027754
242.068966,,0.0,242.268,0.45100000500679016,-2.6196709709109394
242.534483,,0.0,242.731,0.4429999887943268,-2.636778656048465
243.0,,0.0,243.194,0.47200000286102295,-2.5732160474186525
243.465517,,0.0,243.662,0.46000000834465027,-2.5989288199761758
243.93103399999998,,0.0,244.124,0.45100000500679016,-2.618069713248975
244.39655199999999,,0.0,244.595,0.45500001311302185,-2.6088670687404685
244.862069,,0.0,245.057,0.45100000500679016,-2.617087756772601
245.327586,,0.0,245.523,0.47200000286102295,-2.5708512883510144
245.793103,,0.0,245.986,0.4569999873638153,-2.6030699455315403
246.258621,,0.0,246.452,0.43700000643730164,-2.6462204263904767
246.724138,,0.0,246.917,0.44600000977516174,-2.626242853620991
247.18965500000002,,0.0,247.382,0.4490000009536743,-2.619401528807984
247.655172,,0.0,247.847,0.44999998807907104,-2.616991156294617
248.12069,,0.0,248.313,0.46000000834465027,-2.5950535795143224
248.586207,,0.0,248.78,0.4429999887943268,-2.632025114386858
249.051724,,0.0,249.245,0.4490000009536743,-2.6189756997873843
249.517241,,0.0,249.706,0.44699999690055847,-2.6234431849005135
249.982759,,0.0,250.175,0.45399999618530273,-2.6083870793329154
250.44827600000002,,0.0,250.636,0.4560000002384186,-2.604302339872477
250.913793,,0.0,251.105,0.46000000834465027,-2.5959298427945585
251.37931000000003,,0.0,251.564,0.4490000009536743,-2.620296222493414
251.844828,,0.0,252.035,0.45100000500679016,-2.6163872316685906
252.31034499999998,,0.0,252.494,0.45500001311302185,-2.6081542902330073
252.77586200000002,,0.0,252.961,0.47600001096725464,-2.5629022541669495
253.241379,,0.0,253.426,0.4399999976158142,-2.6418355523114743
253.706897,,0.0,253.891,0.4490000009536743,-2.6227171700598286
254.172414,,0.0,254.357,0.46000000834465027,-2.5992140148699896
254.63793099999998,,0.0,254.824,0.4410000145435333,-2.6410282905399254
255.10344800000001,,0.0,255.29,0.44699999690055847,-2.6283216380491026
255.56896600000002,,0.0,255.75,0.453000009059906,-2.615548749627722
256.03448299999997,,0.0,256.22,0.5339999794960022,-2.4392998103180337
256.5,,0.0,256.683,0.44699999690055847,-2.628977867546093
256.965517,,0.0,257.146,0.45100000500679016,-2.6203102691264064
257.431034,,0.0,257.614,0.45399999618530273,-2.6137326626555746
257.896552,,0.0,258.076,0.45899999141693115,-2.602709986872755
258.362069,,0.0,258.541,0.45100000500679016,-2.6199257772718654
258.827586,,0.0,259.004,0.4490000009536743,-2.6239925370296704
259.29310300000003,,0.0,259.47,0.4569999873638153,-2.6062046268661665
259.758621,,0.0,259.936,0.46000000834465027,-2.5992523790098585
260.224138,,0.0,260.401,0.45100000500679016,-2.618399167930182
260.689655,,0.0,260.869,0.46000000834465027,-2.598299756469129
261.155172,,0.0,261.334,0.4339999854564667,-2.6544380959158045
261.62068999999997,,0.0,261.795,0.46399998664855957,-2.5885728629256595
262.086207,,0.0,262.261,0.45100000500679016,-2.616405555284874
262.551724,,0.0,262.724,0.49000000953674316,-2.530978879635199
263.017241,,0.0,263.194,0.45100000500679016,-2.6155309616461033
263.482759,,0.0,263.657,0.4560000002384186,-2.6042801204889323
263.94827599999996,,0.0,264.12,0.44999998807907104,-2.617063895590073
264.413793,,0.0,264.584,0.45500001311302185,-2.6059609708887335
264.87931,,0.0,265.054,0.46700000762939453,-2.579692398614603
265.34482799999995,,0.0,265.52,0.4569999873638153,-2.601442613716821
265.810345,,0.0,265.983,0.4519999921321869,-2.612389521595916
266.27586199999996,,0.0,266.449,0.4399999976158142,-2.638676066351028
266.741379,,0.0,266.913,0.4410000145435333,-2.6367254946693404
267.206897,,0.0,267.378,0.453000009059906,-2.610888198697867
267.672414,,0.0,267.843,0.45500001311302185,-2.6069058343869793
268.137931,,0.0,268.309,0.45399999618530273,-2.6095160957325136
268.603448,,0.0,268.769,0.4519999921321869,-2.6143483289456877
269.06896600000005,,0.0,269.234,0.4480000138282776,-2.6235666417990267
269.53448299999997,,0.0,269.702,0.4560000002384186,-2.606654514696504
270.0,,0.0,270.165,0.4659999907016754,-2.585381904591705
270.465517,,0.0,270.635,0.46399998664855957,-2.5902334565200147
270.931034,,0.0,271.098,0.44699999690055847,-2.6277299553042277
271.396552,,0.0,271.569,0.460999995470047,-2.5976397252713386
271.86206899999996,,0.0,272.024,0.46000000834465027,-2.600167599986645
272.327586,,0.0,272.489,0.45100000500679016,-2.6200521551838754
272.793103,,0.0,272.961,0.44699999690055847,-2.6289627051546014
273.258621,,0.0,273.419,0.44999998807907104,-2.622536038515346
273.724138,,0.0,273.884,0.44600000977516174,-2.631269710788857
274.18965499999996,,0.0,274.35,0.4480000138282776,-2.6268407114263583
274.655172,,0.0,274.817,0.46399998664855957,-2.5918216417142945
275.12069,,0.0,275.283,0.45500001311302185,-2.6111839892008866
275.586207,,0.0,275.751,0.46299999952316284,-2.5934320352909217
276.051724,,0.0,276.213,0.46299999952316284,-2.593041640081664
276.517241,,0.0,276.676,0.45399999618530273,-2.6122035104460286
276.98275900000004,,0.0,277.146,0.4650000035762787,-2.5877506763223503
277.448276,,0.0,277.606,0.46299999952316284,-2.5915934876835367
277.913793,,0.0,278.076,0.46399998664855957,-2.588889354381827
278.37931,,0.0,278.534,0.4650000035762787,-2.5861904595672334
278.844828,,0.0,279.005,0.43299999833106995,-2.655409099688005
279.31034500000004,,0.0,279.47,0.4359999895095825,-2.648413763747818
279.77586199999996,,0.0,279.936,0.4490000009536743,-2.619685219638854
280.241379,,0.0,280.394,0.45100000500679016,-2.614987255356511
280.706897,,0.0,280.862,0.44699999690055847,-2.6234370300945598
281.172414,,0.0,281.328,0.4490000009536743,-2.6188990607800617
281.637931,,0.0,281.795,0.4020000100135803,-2.7212056187956137
282.10344799999996,,0.0,282.261,0.4449999928474426,-2.6275282670037776
282.568966,,0.0,282.724,0.45100000500679016,-2.6145543331298366
283.034483,,0.0,283.186,0.45899999141693115,-2.5973123434387166
283.5,,0.0,283.654,0.4569999873638153,-2.601939776482449
283.965517,,0.0,284.116,0.4519999921321869,-2.6131776879148148
284.431034,,0.0,284.584,0.4429999887943268,-2.6331944391136215
284.89655200000004,,0.0,285.046,0.4480000138282776,-2.6227618960592842
285.362069,,0.0,285.512,0.45899999141693115,-2.5992948762984467
285.827586,,0.0,285.976,0.46399998664855957,-2.5889209586176074
286.293103,,0.0,286.441,0.46399998664855957,-2.5894450175107275
286.758621,,0.0,286.906,0.37400001287460327,-2.786037547373591
287.22413800000004,,0.0,287.371,0.46399998664855957,-2.5904491635861397
287.689655,,0.0,287.835,0.43700000643730164,-2.6497220405190958
288.155172,,0.0,288.301,0.46299999952316284,-2.5934707764748275
288.62069,,0.0,288.765,0.47200000286102295,-2.574187804672603
289.086207,,0.0,289.231,0.46700000762939453,-2.5853263281296073
289.55172400000004,,0.0,289.694,0.45100000500679016,-2.620343112211527
290.01724099999996,,0.0,290.165,0.4490000009536743,-2.6247677525439976
290.482759,,0.0,290.628,0.4650000035762787,-2.5898836631735054
290.948276,,0.0,291.091,0.46700000762939453,-2.5854078877585978
291.413793,,0.0,291.557,0.46000000834465027,-2.6004507088944693
291.87931,,0.0,292.02,0.47200000286102295,-2.5740165182222547
292.344828,,0.0,292.486,0.4480000138282776,-2.6259402652840924
292.81034500000004,,0.0,292.954,0.45100000500679016,-2.618979202411965
293.275862,,0.0,293.42,0.46399998664855957,-2.590183799338524
293.74137900000005,,0.0,293.879,0.47699999809265137,-2.561354518247013
294.206897,,0.0,294.345,0.44200000166893005,-2.6370824284367966
294.672414,,0.0,294.81,0.4429999887943268,-2.6343785215346895
295.13793100000004,,0.0,295.276,0.4779999852180481,-2.5576164542268773
295.603448,,0.0,295.739,0.46399998664855957,-2.5876389860238143
296.068966,,0.0,296.209,0.45500001311302185,-2.60681402019574
296.534483,,0.0,296.669,0.45100000500679016,-2.6151558987363854
297.0,,0.0,297.138,0.460999995470047,-2.5930684861070583
297.46551700000003,,0.0,297.602,0.4490000009536743,-2.6189924304326273
297.931034,,0.0,298.064,0.45500001311302185,-2.6057887644110083
298.396552,,0.0,298.53,0.47600001096725464,-2.5599971523728353
298.862069,,0.0,298.994,0.45399999618530273,-2.6079799505728416
299.327586,,0.0,299.46,0.44699999690055847,-2.6233743109122507
299.79310300000003,,0.0,299.924,0.4519999921321869,-2.6127122552579043
300.258621,,0.0,300.39,0.44699999690055847,-2.6239167709325346
300.724138,,0.0,300.857,0.4569999873638153,-2.6025117620949647
301.189655,,0.0,301.323,0.47699999809265137,-2.559377715536277
301.65517200000005,,0.0,301.787,0.45399999618530273,-2.609968788490301
302.12069,,0.0,302.253,0.45100000500679016,-2.6170154242367816
302.586207,,0.0,302.721,0.4490000009536743,-2.6218965611468596
303.05172400000004,,0.0,303.183,0.45500001311302185,-2.6093451680499795
303.517241,,0.0,303.646,0.44699999690055847,-2.6272752450530947
303.982759,,0.0,304.109,0.46000000834465027,-2.599418161314677
304.448276,,0.0,304.58,0.45100000500679016,-2.619441139286022
304.913793,,0.0,305.042,0.45100000500679016,-2.6197930658284867
305.37931000000003,,0.0,305.509,0.46399998664855957,-2.5917482584011995
305.844828,,0.0,305.976,0.45100000500679016,-2.6202649503664683
306.310345,,0.0,306.434,0.4410000145435333,-2.6421567396174925
306.775862,,0.0,306.905,0.46399998664855957,-2.592061082993097
307.241379,,0.0,307.364,0.45100000500679016,-2.6203037321295066
307.70689699999997,,0.0,307.835,0.45399999618530273,-2.613597572657057
308.172414,,0.0,308.294,0.4490000009536743,-2.6242356504196636
308.637931,,0.0,308.768,0.4860000014305115,-2.5432929754529705
309.103448,,0.0,309.227,0.45399999618530273,-2.612609366000664
309.568966,,0.0,309.694,0.45100000500679016,-2.618690314983436
310.034483,,0.0,310.157,0.453000009059906,-2.6138384505083057
310.5,,0.0,310.625,0.4620000123977661,-2.5937118532867403
310.96551700000003,,0.0,311.087,0.45100000500679016,-2.617150243169959
311.431034,,0.0,311.553,0.4480000138282776,-2.6231682761407353
311.896552,,0.0,312.016,0.46299999952316284,-2.589995896299538
312.362069,,0.0,312.482,0.37400001287460327,-2.78344487238116
312.827586,,0.0,312.947,0.46399998664855957,-2.5869731383982106
313.29310300000003,,0.0,313.413,0.45100000500679016,-2.614970419347686
313.758621,,0.0,313.879,0.4429999887943268,-2.6321518266902557
314.224138,,0.0,314.345,0.45100000500679016,-2.614560138765776
314.689655,,0.0,314.81,0.43700000643730164,-2.644989228153957
315.155172,,0.0,315.269,0.4749999940395355,-2.5622208531574997
315.62068999999997,,0.0,315.739,0.4359999895095825,-2.6472995387070997
316.086207,,0.0,316.202,0.46399998664855957,-2.5864964442549576
316.551724,,0.0,316.665,0.46399998664855957,-2.5867766048908782
317.017241,,0.0,317.135,0.4449999928474426,-2.6285231639173205
317.482759,,0.0,317.595,0.45100000500679016,-2.6158650865272057
317.94827599999996,,0.0,318.065,0.45100000500679016,-2.6163276871789436
318.413793,,0.0,318.524,0.45100000500679016,-2.6168244323757306
318.87931000000003,,0.0,318.995,0.4519999921321869,-2.61516112537524
319.344828,,0.0,319.461,0.46299999952316284,-2.591713482051638
319.810345,,0.0,319.92,0.4659999907016754,-2.585680606324329
320.275862,,0.0,320.386,0.46000000834465027,-2.599225156306467
320.741379,,0.0,320.85,0.46399998664855957,-2.5909383255320018
321.20689699999997,,0.0,321.315,0.45100000500679016,-2.6196304048573853
321.672414,,0.0,321.78,0.4490000009536743,-2.6242883640211363
322.137931,,0.0,322.246,0.49900001287460327,-2.5155776117562056
322.603448,,0.0,322.709,0.4440000057220459,-2.635538564272093
323.068966,,0.0,323.179,0.46299999952316284,-2.594189681636868
323.53448299999997,,0.0,323.643,0.46299999952316284,-2.59414441701174
324.0,,0.0,324.105,0.4659999907016754,-2.5874737073403233
324.465517,,0.0,324.573,0.44699999690055847,-2.6286483702862156
324.931034,,0.0,325.036,0.42800000309944153,-2.669746199443513
325.396552,,0.0,325.502,0.45100000500679016,-2.61927396189518
325.86206899999996,,0.0,325.968,0.4580000042915344,-2.6036040864580325
326.327586,,0.0,326.434,0.46799999475479126,-2.5813544851725365
326.793103,,0.0,326.898,0.45100000500679016,-2.6178988408219426
327.258621,,0.0,327.364,0.45899999141693115,-2.5999631459120933
327.724138,,0.0,327.824,0.4519999921321869,-2.614709204067069
328.189655,,0.0,328.29,0.43700000643730164,-2.6469025409316673
328.655172,,0.0,328.758,0.4390000104904175,-2.642092705785904
329.12068999999997,,0.0,329.22,0.4620000123977661,-2.5915788278564924
329.586207,,0.0,329.691,0.46399998664855957,-2.5868757409782477
330.051724,,0.0,330.153,0.44699999690055847,-2.6236364141218744
330.517241,,0.0,330.617,0.44200000166893005,-2.634331931164644
330.982759,,0.0,331.08,0.453000009059906,-2.6102539442145076
331.44827599999996,,0.0,331.546,0.4569999873638153,-2.60151437190582
331.913793,,0.0,332.009,0.46799999475479126,-2.577612014954272
332.37931,,0.0,332.474,0.4790000021457672,-2.5537946577395725
332.844828,,0.0,332.94,0.45500001311302185,-2.606310118283044
333.310345,,0.0,333.406,0.4659999907016754,-2.5826463508785684
333.77586199999996,,0.0,333.872,0.46799999475479126,-2.578654387854575
334.241379,,0.0,334.338,0.45399999618530273,-2.6095734684741143
334.706897,,0.0,334.803,0.4519999921321869,-2.6143889991050484
335.17241399999995,,0.0,335.269,0.45399999618530273,-2.610516274334517
335.637931,,0.0,335.731,0.4880000054836273,-2.536937477133413
336.103448,,0.0,336.194,0.45100000500679016,-2.6180376208268537
336.56896600000005,,0.0,336.661,0.46299999952316284,-2.592364239021497
337.034483,,0.0,337.124,0.4560000002384186,-2.608051395784448
337.5,,0.0,337.594,0.453000009059906,-2.614976871601369
337.965517,,0.0,338.057,0.46299999952316284,-2.5935210208160324
338.431034,,0.0,338.523,0.46799999475479126,-2.582888973768454
338.89655200000004,,0.0,338.987,0.4519999921321869,-2.6179311077336096
339.36206899999996,,0.0,339.452,0.460999995470047,-2.5984243428729448
339.827586,,0.0,339.917,0.4580000042915344,-2.6049757243312817
340.293103,,0.0,340.382,0.4860000014305115,-2.5439024313646357
340.758621,,0.0,340.85,0.4480000138282776,-2.62653541512905
341.224138,,0.0,341.315,0.4740000069141388,-2.5696556923411085
341.68965499999996,,0.0,341.78,0.4429999887943268,-2.6368874896966106
342.155172,,0.0,342.245,0.4699999988079071,-2.5776957838591623
342.62069,,0.0,342.706,0.460999995470047,-2.5968848686110193
343.086207,,0.0,343.175,0.453000009059906,-2.613857613995136
343.551724,,0.0,343.639,0.45500001311302185,-2.6090207796139135
344.01724099999996,,0.0,344.102,0.4560000002384186,-2.6063543728884984
344.48275900000004,,0.0,344.572,0.4699999988079071,-2.5753719190468525
344.948276,,0.0,345.035,0.4519999921321869,-2.6141272542417804
345.413793,,0.0,345.501,0.45100000500679016,-2.6158810657139453
345.87931,,0.0,345.966,0.4480000138282776,-2.6220411710258706
346.344828,,0.0,346.424,0.45399999618530273,-2.6086539508082764
346.81034500000004,,0.0,346.891,0.45399999618530273,-2.6084084375698673
347.275862,,0.0,347.356,0.46399998664855957,-2.58645338632783
347.741379,,0.0,347.822,0.4790000021457672,-2.5536863181370983
348.206897,,0.0,348.288,0.39399999380111694,-2.738868863679814
348.672414,,0.0,348.753,0.4429999887943268,-2.6321989227298572
349.13793100000004,,0.0,349.215,0.4440000057220459,-2.6301875357164226
349.60344799999996,,0.0,349.683,0.4569999873638153,-2.6021092468734737
350.068966,,0.0,350.146,0.5009999871253967,-2.5065604828590264
350.534483,,0.0,350.609,0.41600000858306885,-2.6921149826404016
351.0,,0.0,351.079,0.46399998664855957,-2.5879567017036345
351.465517,,0.0,351.545,0.44699999690055847,-2.6254451596929314
351.93103399999995,,0.0,352.008,0.45399999618530273,-2.610666260630117
352.396552,,0.0,352.473,0.4569999873638153,-2.604607579425995
352.862069,,0.0,352.94,0.45899999141693115,-2.6007181156848107
353.32758600000005,,0.0,353.406,0.45500001311302185,-2.609876663222301
353.793103,,0.0,353.865,0.46399998664855957,-2.5906753745103313
354.258621,,0.0,354.331,0.4569999873638153,-2.606282389468872
354.72413800000004,,0.0,354.798,0.46399998664855957,-2.5913274542252336
355.189655,,0.0,355.264,0.46399998664855957,-2.591553186515804
355.655172,,0.0,355.724,0.46399998664855957,-2.5917022267681684
356.12069,,0.0,356.194,0.4620000123977661,-2.5961275693157417
356.586207,,0.0,356.658,0.4560000002384186,-2.6091850732629767
357.05172400000004,,0.0,357.121,0.4560000002384186,-2.6090891871458624
357.517241,,0.0,357.584,0.453000009059906,-2.615451220764355
357.982759,,0.0,358.054,0.4650000035762787,-2.589061098659627
358.448276,,0.0,358.519,0.46000000834465027,-2.5996431202713812
358.913793,,0.0,358.983,0.4440000057220459,-2.6341355357159566
359.37931000000003,,0.0,359.449,0.46399998664855957,-2.5901536571674697
359.844828,,0.0,359.913,0.45100000500679016,-2.618036713198142
360.310345,,0.0,360.379,0.45100000500679016,-2.617580705225355
360.775862,,0.0,360.839,0.45100000500679016,-2.617122358536768
361.241379,,0.0,361.304,0.45100000500679016,-2.6166757565852756
361.706897,,0.0,361.769,0.453000009059906,-2.6118972065737975
362.172414,,0.0,362.234,0.4699999988079071,-2.5744767225210716
362.63793100000004,,0.0,362.705,0.4339999854564667,-2.65257402277793
363.103448,,0.0,363.168,0.4449999928474426,-2.628334985443142
363.568966,,0.0,363.631,0.43799999356269836,-2.6433803834615963
364.034483,,0.0,364.094,0.45500001311302185,-2.6062125770693854
364.5,,0.0,364.561,0.4699999988079071,-2.573479391115903
364.96551700000003,,0.0,365.025,0.45100000500679016,-2.6148981913008784
365.431034,,0.0,365.491,0.44999998807907104,-2.6171786148635086
365.896552,,0.0,365.958,0.4519999921321869,-2.6129971579572118
366.362069,,0.0,366.423,0.4429999887943268,-2.6328493246164753
366.827586,,0.0,366.887,0.4659999907016754,-2.58304520302445
367.29310300000003,,0.0,367.353,0.49399998784065247,-2.522397477149932
367.758621,,0.0,367.82,0.4569999873638153,-2.6033997002339055
368.224138,,0.0,368.279,0.45899999141693115,-2.5994610278688732
368.689655,,0.0,368.746,0.46000000834465027,-2.5977151491428474
369.155172,,0.0,369.209,0.46299999952316284,-2.5916128496368414
369.62068999999997,,0.0,369.677,0.46299999952316284,-2.592033999143794
370.086207,,0.0,370.139,0.45399999618530273,-2.612037918163675
370.55172400000004,,0.0,370.609,0.4429999887943268,-2.636362724607938
371.017241,,0.0,371.072,0.47600001096725464,-2.564779719607564
371.482759,,0.0,371.538,0.44699999690055847,-2.6282161351252196
371.948276,,0.0,372.0,0.4560000002384186,-2.6087997630885824
372.413793,,0.0,372.466,0.4569999873638153,-2.606743241472243
372.87931000000003,,0.0,372.931,0.453000009059906,-2.6155070186986342
373.344828,,0.0,373.397,0.45500001311302185,-2.611125020530145
373.810345,,0.0,373.862,0.4569999873638153,-2.6066702329505174
374.275862,,0.0,374.328,0.4569999873638153,-2.6065030218078284
374.741379,,0.0,374.795,0.4650000035762787,-2.588842124502374
375.20689699999997,,0.0,375.261,0.4429999887943268,-2.6364837552697398
375.672414,,0.0,375.724,0.46000000834465027,-2.599110351950499
376.137931,,0.0,376.187,0.44699999690055847,-2.6270592876927408
376.603448,,0.0,376.65,0.45500001311302185,-2.609230825200354
377.068966,,0.0,377.12,0.46399998664855957,-2.5892100761036185
377.53448299999997,,0.0,377.584,0.45899999141693115,-2.599688779722686
378.0,,0.0,378.046,0.4569999873638153,-2.6036425942922024
378.465517,,0.0,378.512,0.4650000035762787,-2.585833098323811
378.931034,,0.0,378.977,0.45399999618530273,-2.609452575536026
379.396552,,0.0,379.442,0.46399998664855957,-2.587365409988026
379.862069,,0.0,379.909,0.453000009059906,-2.6110837555418405
380.327586,,0.0,380.374,0.4449999928474426,-2.628327810673516
380.79310300000003,,0.0,380.84,0.4909999966621399,-2.527991331150346
381.258621,,0.0,381.305,0.4560000002384186,-2.604194406905684
381.724138,,0.0,381.765,0.47200000286102295,-2.5693567294088067
382.189655,,0.0,382.231,0.42100000381469727,-2.6805590465120495
382.655172,,0.0,382.694,0.4650000035762787,-2.584857954852063
383.12068999999997,,0.0,383.164,0.46700000762939453,-2.5807225643619973
383.586207,,0.0,383.628,0.4490000009536743,-2.620215087954356
384.051724,,0.0,384.091,0.46299999952316284,-2.590037498637409
384.517241,,0.0,384.556,0.45500001311302185,-2.607826808882005
384.982759,,0.0,385.02,0.4090000092983246,-2.7084313113690115
385.44827599999996,,0.0,385.485,0.46299999952316284,-2.591186394917539
385.913793,,0.0,385.95,0.46299999952316284,-2.5915905246731574
386.37931,,0.0,386.416,0.4429999887943268,-2.6355566801568857
386.84482799999995,,0.0,386.88,0.45100000500679016,-2.618498241624643
387.310345,,0.0,387.346,0.46799999475479126,-2.5817981616640813
387.775862,,0.0,387.813,0.4560000002384186,-2.608234273252873
388.241379,,0.0,388.279,0.46700000762939453,-2.584507996730856
388.70689699999997,,0.0,388.739,0.45500001311302185,-2.6108301472572917
389.172414,,0.0,389.209,0.45100000500679016,-2.6196577329555213
389.637931,,0.0,389.672,0.4490000009536743,-2.6240598325346265
390.103448,,0.0,390.135,0.45100000500679016,-2.6196781456095017
390.56896600000005,,0.0,390.606,0.46700000762939453,-2.584726862273828
391.03448299999997,,0.0,391.068,0.4699999988079071,-2.57803192580286
391.5,,0.0,391.534,0.4129999876022339,-2.7019955901945005
391.965517,,0.0,391.997,0.45899999141693115,-2.601506132353298
392.431034,,0.0,392.463,0.45500001311302185,-2.6099047591465947
392.896552,,0.0,392.928,0.4480000138282776,-2.624804222121753
393.36206899999996,,0.0,393.393,0.4560000002384186,-2.606999801460669
393.827586,,0.0,393.858,0.44600000977516174,-2.6283983463448286
394.293103,,0.0,394.323,0.4580000042915344,-2.6018657979122706
394.75862099999995,,0.0,394.791,0.44699999690055847,-2.6254530949711405
395.224138,,0.0,395.249,0.4490000009536743,-2.6207404179864335
395.68965499999996,,0.0,395.717,0.4399999976158142,-2.6400263916640996
396.155172,,0.0,396.179,0.45100000500679016,-2.615782577596056
396.62069,,0.0,396.65,0.4490000009536743,-2.6199125150460874
397.086207,,0.0,397.113,0.4519999921321869,-2.613206992583107
397.551724,,0.0,397.58,0.45100000500679016,-2.6152786362817606
398.017241,,0.0,398.042,0.47600001096725464,-2.560770526710211
398.48275900000004,,0.0,398.508,0.41600000858306885,-2.6915139487052575
398.94827599999996,,0.0,398.973,0.45100000500679016,-2.615352149818175
399.413793,,0.0,399.439,0.45899999141693115,-2.5980769933230605
399.87931,,0.0,399.899,0.45500001311302185,-2.607002824403103
400.344828,,0.0,400.364,0.492000013589859,-2.5266540232949484
400.810345,,0.0,400.832,0.453000009059906,-2.6119238428189626
401.27586199999996,,0.0,401.298,0.4620000123977661,-2.5926510860896346
401.741379,,0.0,401.77,0.453000009059906,-2.6126170151344423
402.206897,,0.0,402.228,0.44699999690055847,-2.6260594574729685
402.672414,,0.0,402.691,0.43700000643730164,-2.64821831165102
403.137931,,0.0,403.154,0.4650000035762787,-2.5875791544202547
403.60344799999996,,0.0,403.624,0.4180000126361847,-2.690318426392976
404.068966,,0.0,404.087,0.4490000009536743,-2.6230932572742756
404.534483,,0.0,404.553,0.46299999952316284,-2.5928653507118447
405.0,,0.0,405.016,0.44699999690055847,-2.6279482121543007
405.465517,,0.0,405.481,0.44699999690055847,-2.6281176461073628
405.931034,,0.0,405.946,0.4429999887943268,-2.636942052274399
406.39655200000004,,0.0,406.412,0.4699999988079071,-2.578165114398723
406.862069,,0.0,406.877,0.46299999952316284,-2.5933970225891505
407.327586,,0.0,407.342,0.44699999690055847,-2.628172316654734
407.793103,,0.0,407.81,0.45899999141693115,-2.601884170636954
408.258621,,0.0,408.276,0.44699999690055847,-2.627826930710991
408.72413800000004,,0.0,408.739,0.46299999952316284,-2.5927170341132
409.18965499999996,,0.0,409.201,0.45399999618530273,-2.61203044577268
409.655172,,0.0,409.669,0.4490000009536743,-2.622595476741531
410.12069,,0.0,410.132,0.45100000500679016,-2.61788655477095
410.586207,,0.0,410.595,0.4560000002384186,-2.6066289332789547
411.05172400000004,,0.0,411.066,0.45500001311302185,-2.6084412586391847
411.51724099999996,,0.0,411.524,0.44699999690055847,-2.6255134705905236
411.982759,,0.0,411.994,0.44200000166893005,-2.636070161440099
412.448276,,0.0,412.46,0.44200000166893005,-2.6357645457247454
412.913793,,0.0,412.925,0.4169999957084656,-2.689965796981885
413.37931,,0.0,413.384,0.46700000762939453,-2.580816780444037
413.844828,,0.0,413.85,0.46700000762939453,-2.580653633479456
414.31034500000004,,0.0,414.316,0.4429999887943268,-2.632835699509186
414.775862,,0.0,414.78,0.4560000002384186,-2.60446888659521
415.241379,,0.0,415.246,0.46399998664855957,-2.5870575131830758
415.706897,,0.0,415.709,0.4620000123977661,-2.591493433307797
416.172414,,0.0,416.179,0.4560000002384186,-2.604702403671488
416.63793100000004,,0.0,416.643,0.42399999499320984,-2.6746111892996596
417.103448,,0.0,417.105,0.45100000500679016,-2.616029466445439
417.568966,,0.0,417.569,0.46299999952316284,-2.590169279210505
418.034483,,0.0,418.039,0.45899999141693115,-2.599199696394218
418.5,,0.0,418.504,0.4659999907016754,-2.5842873608610097
418.96551700000003,,0.0,418.968,0.45399999618530273,-2.610781568260862
419.43103399999995,,0.0,419.434,0.4519999921321869,-2.61549134351032
419.896552,,0.0,419.899,0.4490000009536743,-2.6223715780936283
420.362069,,0.0,420.364,0.44699999690055847,-2.6270549345212033
420.827586,,0.0,420.824,0.4390000104904175,-2.644782457995624
421.293103,,0.0,421.29,0.45899999141693115,-2.60147127463218
421.758621,,0.0,421.762,0.4440000057220459,-2.6343680594669148
422.22413800000004,,0.0,422.221,0.43799999356269836,-2.647606263873393
422.689655,,0.0,422.691,0.46700000762939453,-2.584535970574593
423.15517200000005,,0.0,423.153,0.43799999356269836,-2.6477680344323233
423.62069,,0.0,423.617,0.4569999873638153,-2.6063643208332516
424.086207,,0.0,424.079,0.44699999690055847,-2.628081217243533
424.55172400000004,,0.0,424.545,0.45899999141693115,-2.601809670765841
425.017241,,0.0,425.015,0.4099999964237213,-2.708382106229452
425.482759,,0.0,425.474,0.43799999356269836,-2.6471515747800956
425.948276,,0.0,425.942,0.4429999887943268,-2.635989637154729
426.413793,,0.0,426.408,0.4620000123977661,-2.5942931728314704
426.87931000000003,,0.0,426.872,0.45899999141693115,-2.6005019793370328
427.344828,,0.0,427.338,0.45100000500679016,-2.617588525066008
427.810345,,0.0,427.803,0.44699999690055847,-2.625955763202675
428.275862,,0.0,428.269,0.44699999690055847,-2.6256143138517705
428.741379,,0.0,428.732,0.460999995470047,-2.5947877192553075
429.20689699999997,,0.0,429.194,0.45399999618530273,-2.6097380245294115
429.672414,,0.0,429.662,0.4490000009536743,-2.6203653624512735
430.137931,,0.0,430.124,0.47200000286102295,-2.570032713787152
430.603448,,0.0,430.595,0.4569999873638153,-2.602537183631856
431.068966,,0.0,431.057,0.47200000286102295,-2.5697356573231422
431.534483,,0.0,431.523,0.4830000102519989,-2.5457055270220788
432.0,,0.0,431.987,0.45399999618530273,-2.608880108723159
432.46551700000003,,0.0,432.452,0.44200000166893005,-2.635077759568176
432.931034,,0.0,432.916,0.4440000057220459,-2.630833983224694
433.396552,,0.0,433.382,0.44600000977516174,-2.6266467228540895
433.862069,,0.0,433.846,0.4620000123977661,-2.592009498676297
434.327586,,0.0,434.312,0.4490000009536743,-2.6205973226664727
434.79310300000003,,0.0,434.778,0.4300000071525574,-2.6622938517532955
435.258621,,0.0,435.244,0.4490000009536743,-2.6212301588761924
435.724138,,0.0,435.706,0.46000000834465027,-2.5976135622433905
436.189655,,0.0,436.169,0.45899999141693115,-2.6001474887632012
436.655172,,0.0,436.639,0.48100000619888306,-2.5525677941255194
437.12068999999997,,0.0,437.102,0.46399998664855957,-2.5899398137142833
437.586207,,0.0,437.572,0.46299999952316284,-2.592427852674836
438.051724,,0.0,438.035,0.4620000123977661,-2.594881439656442
438.517241,,0.0,438.501,0.4560000002384186,-2.608185777939689
438.982759,,0.0,438.961,0.45399999618530273,-2.6127262417335153
439.448276,,0.0,439.426,0.4569999873638153,-2.606318818130004
439.913793,,0.0,439.891,0.45500001311302185,-2.6107459804029354
440.37931000000003,,0.0,440.357,0.460999995470047,-2.5976832153606213
440.844828,,0.0,440.824,0.45100000500679016,-2.6194176193107723
441.310345,,0.0,441.29,0.46399998664855957,-2.590983508876348
441.775862,,0.0,441.754,0.46399998664855957,-2.5908151417102423
442.241379,,0.0,442.217,0.4880000054836273,-2.5383067973467295
442.70689699999997,,0.0,442.68,0.4569999873638153,-2.605578164954806
443.172414,,0.0,443.15,0.47200000286102295,-2.572593966801226
443.637931,,0.0,443.613,0.4519999921321869,-2.615834491652354
444.103448,,0.0,444.076,0.4410000145435333,-2.639449751559649
444.568966,,0.0,444.541,0.45100000500679016,-2.6173072450498274
445.03448299999997,,0.0,445.004,0.453000009059906,-2.6125982066914046
445.5,,0.0,445.47,0.45100000500679016,-2.6166184248417284
445.965517,,0.0,445.935,0.4690000116825104,-2.5770900881471577
446.431034,,0.0,446.4,0.4620000123977661,-2.5920613185286143
446.896552,,0.0,446.865,0.4740000069141388,-2.5656796389244887
447.36206899999996,,0.0,447.33,0.453000009059906,-2.611242022083822
447.827586,,0.0,447.795,0.4309999942779541,-2.6590384438393846
448.29310300000003,,0.0,448.261,0.45100000500679016,-2.615391789857533
448.758621,,0.0,448.724,0.46799999475479126,-2.5783429347619293
449.224138,,0.0,449.194,0.460999995470047,-2.59364290438779
449.689655,,0.0,449.654,0.4560000002384186,-2.60464538027281
450.155172,,0.0,450.123,0.44699999690055847,-2.624419492735375
450.62068999999997,,0.0,450.587,0.45399999618530273,-2.609387538316459
451.086207,,0.0,451.05,0.46799999475479126,-2.5791504337245263
451.551724,,0.0,451.515,0.4490000009536743,-2.620845886081767
452.017241,,0.0,451.98,0.453000009059906,-2.612460868158593
452.482759,,0.0,452.445,0.3840000033378601,-2.7631373168014637
452.94827599999996,,0.0,452.909,0.45899999141693115,-2.600098861051563
453.413793,,0.0,453.375,0.45100000500679016,-2.6178864756600384
453.87931,,0.0,453.84,0.4350000023841858,-2.653089799727286
454.344828,,0.0,454.306,0.45500001311302185,-2.609838016465484
454.810345,,0.0,454.773,0.4729999899864197,-2.5709092566253045
455.27586199999996,,0.0,455.238,0.45399999618530273,-2.612546604961913
455.741379,,0.0,455.706,0.46399998664855957,-2.590952046918262
456.206897,,0.0,456.168,0.4569999873638153,-2.606337631515585
456.672414,,0.0,456.636,0.45100000500679016,-2.6194837240967392
457.137931,,0.0,457.099,0.46000000834465027,-2.5998872345416117
457.603448,,0.0,457.569,0.453000009059906,-2.6150858372724803
458.06896600000005,,0.0,458.024,0.4830000102519989,-2.549612254076866
458.53448299999997,,0.0,458.49,0.43799999356269836,-2.6474786111622013
459.0,,0.0,458.957,0.47200000286102295,-2.5731786530382816
459.465517,,0.0,459.423,0.45100000500679016,-2.6186583732543376
459.931034,,0.0,459.888,0.45100000500679016,-2.618348939641856
460.39655200000004,,0.0,460.354,0.46299999952316284,-2.591867886259927
460.86206899999996,,0.0,460.82,0.4569999873638153,-2.6045847147576393
461.327586,,0.0,461.279,0.4580000042915344,-2.6020439996101077
461.793103,,0.0,461.747,0.45500001311302185,-2.608222207216792
462.258621,,0.0,462.209,0.4729999899864197,-2.568663892022129
462.724138,,0.0,462.68,0.44699999690055847,-2.624991505705979
463.18965499999996,,0.0,463.143,0.46399998664855957,-2.5876727277709817
463.655172,,0.0,463.606,0.45899999141693115,-2.5983282842608193
464.12069,,0.0,464.076,0.4429999887943268,-2.6330005481455885
464.58620699999994,,0.0,464.534,0.4490000009536743,-2.6198003343372114
465.051724,,0.0,465.005,0.460999995470047,-2.5935898640163373
465.517241,,0.0,465.47,0.43299999833106995,-2.654588911803598
465.98275900000004,,0.0,465.936,0.45500001311302185,-2.606719486170597
466.448276,,0.0,466.394,0.4620000123977661,-2.5915914654273084
466.913793,,0.0,466.862,0.44200000166893005,-2.635344475289854
467.37931,,0.0,467.327,0.46299999952316284,-2.5898249334637744
467.844828,,0.0,467.792,0.4569999873638153,-2.6031735119336923
468.31034500000004,,0.0,468.258,0.43799999356269836,-2.64488066903249
468.77586199999996,,0.0,468.72,0.4519999921321869,-2.614719474365093
469.241379,,0.0,469.19,0.4480000138282776,-2.623790358015195
469.706897,,0.0,469.65,0.44699999690055847,-2.626330698039075
470.172414,,0.0,470.12,0.4959999918937683,-2.519931877526642
470.63793100000004,,0.0,470.584,0.45899999141693115,-2.6008781327087545
471.10344799999996,,0.0,471.046,0.4519999921321869,-2.616436438102594
471.568966,,0.0,471.512,0.46299999952316284,-2.5927419200901336
472.034483,,0.0,471.977,0.453000009059906,-2.61475357782946
472.5,,0.0,472.443,0.45100000500679016,-2.6192840015983907
472.965517,,0.0,472.909,0.46799999475479126,-2.5823627669244797
473.43103399999995,,0.0,473.375,0.4699999988079071,-2.5780598289413055
473.89655200000004,,0.0,473.84,0.44999998807907104,-2.6216242478921523
474.362069,,0.0,474.306,0.4560000002384186,-2.6084818007319694
474.827586,,0.0,474.766,0.44999998807907104,-2.6214238485603465
475.293103,,0.0,475.232,0.4440000057220459,-2.6343108405977174
475.758621,,0.0,475.695,0.4620000123977661,-2.594861081238714
476.22413800000004,,0.0,476.164,0.44600000977516174,-2.6294432403718253
476.689655,,0.0,476.624,0.4749999940395355,-2.5659523070753143
477.155172,,0.0,477.094,0.4569999873638153,-2.6048330898893335
477.62069,,0.0,477.56,0.453000009059906,-2.6131984791929836
478.086207,,0.0,478.025,0.4519999921321869,-2.615025022340799
478.55172400000004,,0.0,478.49,0.45100000500679016,-2.6168594685815405
479.01724099999996,,0.0,478.95,0.47099998593330383,-2.5729605452263007
479.482759,,0.0,479.415,0.4429999887943268,-2.633664691259559
479.948276,,0.0,479.879,0.4339999854564667,-2.6530124007357956
480.413793,,0.0,480.345,0.44600000977516174,-2.6266548281652455
480.87931000000003,,0.0,480.809,0.46299999952316284,-2.589456315345669
481.344828,,0.0,481.275,0.44999998807907104,-2.617673679106479
481.810345,,0.0,481.743,0.4440000057220459,-2.6307001557670917
482.275862,,0.0,482.205,0.4699999988079071,-2.574070815171283
482.74137900000005,,0.0,482.676,0.43799999356269836,-2.6438631013529714
483.206897,,0.0,483.138,0.45100000500679016,-2.61567407765634
483.672414,,0.0,483.602,0.4410000145435333,-2.63764795675549
484.13793100000004,,0.0,484.065,0.45100000500679016,-2.6160968711326253
484.603448,,0.0,484.53,0.45899999141693115,-2.5989433372573827
485.068966,,0.0,484.994,0.45100000500679016,-2.616679428459611
485.534483,,0.0,485.46,0.4390000104904175,-2.6431522666243317
486.0,,0.0,485.924,0.46000000834465027,-2.597741845514825
486.46551700000003,,0.0,486.39,0.45500001311302185,-2.608977434951814
486.931034,,0.0,486.854,0.45399999618530273,-2.6114889009507265
487.396552,,0.0,487.319,0.460999995470047,-2.5965513710241805
487.862069,,0.0,487.791,0.46000000834465027,-2.599013473721758
488.327586,,0.0,488.249,0.4560000002384186,-2.607973434185116
488.79310300000003,,0.0,488.717,0.46299999952316284,-2.5929227699410617
489.258621,,0.0,489.179,0.45500001311302185,-2.6105003755730896
489.724138,,0.0,489.647,0.45100000500679016,-2.6193079164720885
490.189655,,0.0,490.11,0.4690000116825104,-2.5801269934004933
490.655172,,0.0,490.58,0.44699999690055847,-2.6280329530915156
491.12069,,0.0,491.042,0.3919999897480011,-2.7477777243007724
491.586207,,0.0,491.508,0.460999995470047,-2.5973172590918714
492.05172400000004,,0.0,491.973,0.45500001311302185,-2.6102055715592396
492.517241,,0.0,492.438,0.45100000500679016,-2.6186914968280957
492.982759,,0.0,492.906,0.45100000500679016,-2.618425021069015
493.448276,,0.0,493.364,0.45500001311302185,-2.6094143707403776
493.913793,,0.0,493.829,0.4560000002384186,-2.606919087918889
494.37931000000003,,0.0,494.295,0.45100000500679016,-2.6174847254787537
494.844828,,0.0,494.769,0.44999998807907104,-2.6193350811088996
495.310345,,0.0,495.227,0.48100000619888306,-2.551477415616317
495.775862,,0.0,495.695,0.42800000309944153,-2.666644739645081
496.241379,,0.0,496.157,0.46799999475479126,-2.57922591009306
496.70689699999997,,0.0,496.625,0.45399999618530273,-2.609490354655569
497.172414,,0.0,497.086,0.45100000500679016,-2.6158328506390527
497.637931,,0.0,497.552,0.4790000021457672,-2.554686116677499
498.103448,,0.0,498.016,0.31700000166893005,-2.907537952027423
498.568966,,0.0,498.482,0.4480000138282776,-2.6221063971039222
499.03448299999997,,0.0,498.947,0.47999998927116394,-2.5524201581758006
499.5,,0.0,499.413,0.44999998807907104,-2.617864698538992
499.96551700000003,,0.0,499.879,0.45100000500679016,-2.615823219676478
500.431034,,0.0,500.345,0.4790000021457672,-2.5550059098995046
500.89655200000004,,0.0,500.809,0.4429999887943268,-2.633663536120796
501.362069,,0.0,501.275,0.4650000035762787,-2.585994116638235
501.827586,,0.0,501.737,0.4560000002384186,-2.6058894509109107
502.293103,,0.0,502.199,0.45100000500679016,-2.6170879238177287
502.758621,,0.0,502.669,0.48100000619888306,-2.552041896048769
503.224138,,0.0,503.131,0.45399999618530273,-2.6111770763953874
503.68965499999996,,0.0,503.594,0.44699999690055847,-2.6267286261627762
504.15517200000005,,0.0,504.064,0.4650000035762787,-2.587794745247651
504.62068999999997,,0.0,504.53,0.460999995470047,-2.5967631601767356
505.08620699999994,,0.0,504.994,0.45399999618530273,-2.6122319640176332
505.55172400000004,,0.0,505.46,0.46399998664855957,-2.5906220236030624
506.017241,,0.0,505.92,0.453000009059906,-2.6147168407152734
506.48275899999993,,0.0,506.386,0.46000000834465027,-2.5995457125349835
506.948276,,0.0,506.851,0.46299999952316284,-2.5930367188736674
507.413793,,0.0,507.316,0.46799999475479126,-2.582117138688591
507.87931,,0.0,507.784,0.46299999952316284,-2.5929317570853176
508.344828,,0.0,508.249,0.4259999990463257,-2.6734144097649977
508.810345,,0.0,508.709,0.4440000057220459,-2.6340279005245333
509.27586199999996,,0.0,509.179,0.453000009059906,-2.6142110654628383
509.74137900000005,,0.0,509.643,0.4410000145435333,-2.6401137191885407
510.20689699999997,,0.0,510.105,0.44699999690055847,-2.6267761459049654
510.67241399999995,,0.0,510.569,0.4429999887943268,-2.635208571794798
511.13793100000004,,0.0,511.038,0.43799999356269836,-2.645811735791792
511.603448,,0.0,511.504,0.45500001311302185,-2.608485257796718
512.0689659999999,,0.0,511.968,0.4620000123977661,-2.5929538330275625
512.534483,,0.0,512.434,0.45100000500679016,-2.616654460721903
513.0,,0.0,512.899,0.47099998593330383,-2.5728409311051834
513.465517,,0.0,513.364,0.460999995470047,-2.5944173516867632
513.931034,,0.0,513.824,0.46399998664855957,-2.58770788076926
514.396552,,0.0,514.29,0.45399999618530273,-2.609362523185023
514.862069,,0.0,514.757,0.453000009059906,-2.6114550663857576
515.327586,,0.0,515.22,0.4399999976158142,-2.639740008246436
515.793103,,0.0,515.684,0.46299999952316284,-2.589643059720574
516.258621,,0.0,516.154,0.4519999921321869,-2.613668709461543
516.724138,,0.0,516.617,0.44600000977516174,-2.6268476299114285
517.189655,,0.0,517.079,0.4580000042915344,-2.600854298332008
517.655172,,0.0,517.545,0.45100000500679016,-2.616293802698061
518.1206900000001,,0.0,518.015,0.4300000071525574,-2.6622675559412055
518.5862070000001,,0.0,518.48,0.45100000500679016,-2.616764990273507
519.051724,,0.0,518.939,0.46000000834465027,-2.597425046654714
519.517241,,0.0,519.404,0.43799999356269836,-2.6456337275362056
519.982759,,0.0,519.876,0.460999995470047,-2.5958055029292493
520.448276,,0.0,520.334,0.49000000953674316,-2.5328983463533894
520.9137929999999,,0.0,520.806,0.47200000286102295,-2.5723714728950395
521.37931,,0.0,521.264,0.4659999907016754,-2.585677282441989
521.844828,,0.0,521.735,0.46399998664855957,-2.590238822155994
522.310345,,0.0,522.197,0.46399998664855957,-2.590407817525865
522.7758620000001,,0.0,522.665,0.453000009059906,-2.6145022381948984
523.241379,,0.0,523.128,0.45100000500679016,-2.6189461885173535
523.7068969999999,,0.0,523.591,0.45399999618530273,-2.6124522483345958
524.172414,,0.0,524.061,0.4729999899864197,-2.571053948060253
524.637931,,0.0,524.519,0.4699999988079071,-2.5775396915688824
525.103448,,0.0,524.991,0.45100000500679016,-2.618839571828607
525.568966,,0.0,525.449,0.47699999809265137,-2.5620594234181815
526.034483,,0.0,525.916,0.45399999618530273,-2.6119963612389383
526.5,,0.0,526.382,0.45500001311302185,-2.60961467868398
526.9655170000001,,0.0,526.847,0.46399998664855957,-2.589779348884097
527.4310340000001,,0.0,527.312,0.46399998664855957,-2.5895337864636807
527.8965519999999,,0.0,527.776,0.45100000500679016,-2.617600036256614
528.362069,,0.0,528.242,0.47200000286102295,-2.571589364800343
528.827586,,0.0,528.705,0.4729999899864197,-2.569155869515294
529.293103,,0.0,529.176,0.47200000286102295,-2.57109082095123
529.7586210000001,,0.0,529.639,0.47699999809265137,-2.5599721273262572
530.224138,,0.0,530.101,0.46799999475479126,-2.5793792493704575
530.689655,,0.0,530.569,0.44699999690055847,-2.6249612790732373
531.155172,,0.0,531.032,0.47699999809265137,-2.559468529867868
531.62069,,0.0,531.497,0.47200000286102295,-2.5702678874610547
532.086207,,0.0,531.965,0.5360000133514404,-2.4307807784302464
532.5517239999999,,0.0,532.431,0.4819999933242798,-2.548414773746085
533.017241,,0.0,532.894,0.46299999952316284,-2.589837860135395
533.482759,,0.0,533.36,0.4790000021457672,-2.555050610637182
533.9482760000001,,0.0,533.825,0.4869999885559082,-2.537732433587389
534.413793,,0.0,534.291,0.4819999933242798,-2.548772703940841
534.87931,,0.0,534.754,0.47600001096725464,-2.5620234800316553
535.344828,,0.0,535.216,0.49300000071525574,-2.5251920546373374
535.810345,,0.0,535.68,0.4880000054836273,-2.536311155734819
536.275862,,0.0,536.15,0.5770000219345093,-2.342649171512765
536.7413789999999,,0.0,536.613,0.503000020980835,-2.5041104004185244
537.206897,,0.0,537.076,0.4959999918937683,-2.5196000474566165
537.672414,,0.0,537.542,0.4950000047683716,-2.5220106574593726
538.137931,,0.0,538.005,0.5090000033378601,-2.4917280863166553
538.6034480000001,,0.0,538.471,0.5460000038146973,-2.411315991597433
539.0689659999999,,0.0,538.936,0.5230000019073486,-2.46159577829798
539.5344829999999,,0.0,539.401,0.503000020980835,-2.5053086073989776
540.0,,0.0,539.869,0.5210000276565552,-2.466199170401699
540.465517,,0.0,540.334,0.5170000195503235,-2.4749836674325225
540.931034,,0.0,540.798,0.531000018119812,-2.4445141295451993
541.396552,,0.0,541.264,0.546999990940094,-2.409647848490648
541.862069,,0.0,541.727,0.5630000233650208,-2.374741486123971
542.327586,,0.0,542.19,0.5429999828338623,-2.418228048278532
542.7931030000001,,0.0,542.658,0.5339999794960022,-2.4377143864178756
543.258621,,0.0,543.12,0.5019999742507935,-2.507279939352349
543.7241379999999,,0.0,543.588,0.5400000214576721,-2.4243156113272804
544.189655,,0.0,544.05,0.5329999923706055,-2.439370990390561
544.655172,,0.0,544.516,0.5419999957084656,-2.4195534221298507
545.12069,,0.0,544.98,0.5490000247955322,-2.404084404842326
545.5862070000001,,0.0,545.446,0.5460000038146973,-2.410399231641254
546.051724,,0.0,545.913,0.5640000104904175,-2.370965575085524
546.517241,,0.0,546.379,0.5460000038146973,-2.4099724316916005
546.982759,,0.0,546.839,0.5820000171661377,-2.331346843257242
547.448276,,0.0,547.305,0.5529999732971191,-2.394353210460406
547.9137929999999,,0.0,547.773,0.5490000247955322,-2.4029181289510837
548.3793099999999,,0.0,548.238,0.5540000200271606,-2.391905059432018
548.844828,,0.0,548.699,0.5709999799728394,-2.354780846900853
549.310345,,0.0,549.168,0.5540000200271606,-2.3917650219048148
549.775862,,0.0,549.631,0.5759999752044678,-2.3438178080957726
550.241379,,0.0,550.094,0.5669999718666077,-2.3634443901310953
550.706897,,0.0,550.56,0.5490000247955322,-2.4027140748334572
551.172414,,0.0,551.025,0.5799999833106995,-2.335264174864216
551.637931,,0.0,551.491,0.5669999718666077,-2.363705649783494
552.103448,,0.0,551.959,0.5910000205039978,-2.3115638953023656
552.568966,,0.0,552.425,0.574999988079071,-2.346590736794586
553.034483,,0.0,552.891,0.5709999799728394,-2.355491716552189
553.5,,0.0,553.349,0.5640000104904175,-2.3709419715781546
553.965517,,0.0,553.814,0.5540000200271606,-2.3929366533604806
554.4310340000001,,0.0,554.28,0.546999990940094,-2.40839880350264
554.896552,,0.0,554.75,0.5540000200271606,-2.3933575330505814
555.3620689999999,,0.0,555.212,0.5669999718666077,-2.3652361269372992
555.827586,,0.0,555.676,0.5540000200271606,-2.393744984210287
556.293103,,0.0,556.146,0.6430000066757202,-2.2000106883089785
556.758621,,0.0,556.606,0.5860000252723694,-2.324331409089458
557.224138,,0.0,557.076,0.5669999718666077,-2.365832978028024
557.689655,,0.0,557.534,0.5759999752044678,-2.3463003734758163
558.155172,,0.0,558.005,0.5659999847412109,-2.368128481515399
558.6206900000001,,0.0,558.47,0.574999988079071,-2.348527681338223
559.0862070000001,,0.0,558.935,0.5669999718666077,-2.365929310368198
559.5517239999999,,0.0,559.394,0.5540000200271606,-2.3941906506888206
560.017241,,0.0,559.862,0.550000011920929,-2.4028133632132778
560.482759,,0.0,560.327,0.5379999876022339,-2.428837592812568
560.948276,,0.0,560.794,0.5630000233650208,-2.3742272848591934
561.413793,,0.0,561.26,0.5789999961853027,-2.339203437001743
561.87931,,0.0,561.721,0.5540000200271606,-2.393486411362943
562.344828,,0.0,562.19,0.574999988079071,-2.3475391114033046
562.8103450000001,,0.0,562.654,0.5540000200271606,-2.3930877330216327
563.275862,,0.0,563.116,0.5669999718666077,-2.3645608411569583
563.7413789999999,,0.0,563.58,0.5249999761581421,-2.4558641059967754
564.206897,,0.0,564.05,0.5260000228881836,-2.4534965728585454
564.672414,,0.0,564.515,0.5199999809265137,-2.4663968278785426
565.137931,,0.0,564.979,0.5249999761581421,-2.4553534602701284
565.603448,,0.0,565.445,0.5249999761581421,-2.4552286313327545
566.068966,,0.0,565.904,0.5019999742507935,-2.505241408696754
566.534483,,0.0,566.369,0.49399998784065247,-2.5226062862344896
567.0,,0.0,566.835,0.5109999775886536,-2.4855385225350184
567.465517,,0.0,567.301,0.4779999852180481,-2.5574371225322103
567.931034,,0.0,567.766,0.47999998927116394,-2.5531171181453205
568.396552,,0.0,568.232,0.47699999809265137,-2.559723359613903
568.862069,,0.0,568.694,0.4830000102519989,-2.546752066433215
569.327586,,0.0,569.165,0.5009999871253967,-2.507663354394962
569.793103,,0.0,569.628,0.4659999907016754,-2.5840649327020464
570.2586210000001,,0.0,570.09,0.48899999260902405,-2.5341225520738453
570.724138,,0.0,570.556,0.46399998664855957,-2.588768079403307
571.189655,,0.0,571.02,0.47999998927116394,-2.5540963823256693
571.655172,,0.0,571.486,0.46399998664855957,-2.5891433980921055
572.12069,,0.0,571.951,0.4659999907016754,-2.5849712700724297
572.586207,,0.0,572.417,0.4359999895095825,-2.650507816177326
573.051724,,0.0,572.884,0.4569999873638153,-2.6049206660846136
573.517241,,0.0,573.35,0.44999998807907104,-2.620318240550058
573.982759,,0.0,573.81,0.45100000500679016,-2.618264761088039
574.4482760000001,,0.0,574.276,0.4429999887943268,-2.6357940566622506
574.913793,,0.0,574.739,0.3619999885559082,-2.812338558343057
575.37931,,0.0,575.209,0.5239999890327454,-2.45944320971262
575.844828,,0.0,575.669,0.4390000104904175,-2.6446418396115514
576.310345,,0.0,576.139,0.46299999952316284,-2.5923348193231384
576.775862,,0.0,576.602,0.45100000500679016,-2.6184277918301526
577.241379,,0.0,577.064,0.4440000057220459,-2.6335979460536407
577.706897,,0.0,577.53,0.46399998664855957,-2.5899176484084343
578.172414,,0.0,577.994,0.4350000023841858,-2.6529673417888007
578.6379310000001,,0.0,578.46,0.4560000002384186,-2.6070651706447254
579.1034480000001,,0.0,578.924,0.4410000145435333,-2.6395794714542866
579.5689659999999,,0.0,579.39,0.46399998664855957,-2.589295020347751
580.034483,,0.0,579.854,0.4740000069141388,-2.5673272014950363
580.5,,0.0,580.319,0.4490000009536743,-2.6216115314127473
580.965517,,0.0,580.784,0.45100000500679016,-2.617077825815857
581.431034,,0.0,581.25,0.453000009059906,-2.6125552555450624
581.896552,,0.0,581.72,0.4490000009536743,-2.6211206184572178
582.362069,,0.0,582.183,0.44699999690055847,-2.6253492520436628
582.827586,,0.0,582.646,0.45100000500679016,-2.616530398621776
583.2931030000001,,0.0,583.109,0.43799999356269836,-2.644776221966645
583.758621,,0.0,583.58,0.4440000057220459,-2.631657739085048
584.2241379999999,,0.0,584.042,0.44200000166893005,-2.6359998807539142
584.689655,,0.0,584.508,0.43799999356269836,-2.644731057641521
585.155172,,0.0,584.973,0.43799999356269836,-2.6447788600455158
585.6206900000001,,0.0,585.438,0.45100000500679016,-2.6165336403964754
586.0862070000001,,0.0,585.905,0.4429999887943268,-2.6340667030855984
586.551724,,0.0,586.364,0.44699999690055847,-2.6254791845577317
587.017241,,0.0,586.835,0.4690000116825104,-2.5776948295621005
587.482759,,0.0,587.294,0.460999995470047,-2.5952836185890935
587.948276,,0.0,587.765,0.45100000500679016,-2.617238459018518
588.4137929999999,,0.0,588.224,0.46399998664855957,-2.589088449471097
588.87931,,0.0,588.694,0.43799999356269836,-2.6459047793623593
589.344828,,0.0,589.157,0.43799999356269836,-2.6460709856743945
589.810345,,0.0,589.625,0.4580000042915344,-2.6026541559070226
590.2758620000001,,0.0,590.087,0.4490000009536743,-2.622403011902418
590.741379,,0.0,590.553,0.44600000977516174,-2.629060707881492
591.2068969999999,,0.0,591.016,0.4490000009536743,-2.6226240480165273
591.672414,,0.0,591.482,0.45100000500679016,-2.618340617645213
592.137931,,0.0,591.946,0.43799999356269836,-2.646709648907174
592.603448,,0.0,592.412,0.43700000643730164,-2.648906777737957
593.068966,,0.0,592.876,0.4410000145435333,-2.6401824221515664
593.534483,,0.0,593.342,0.4429999887943268,-2.6357874404010144
594.0,,0.0,593.806,0.4410000145435333,-2.6400800580507795
594.4655170000001,,0.0,594.271,0.44699999690055847,-2.626918615481064
594.9310340000001,,0.0,594.735,0.45899999141693115,-2.6006625960669645
595.3965519999999,,0.0,595.205,0.4399999976158142,-2.6419251935495844
595.862069,,0.0,595.665,0.453000009059906,-2.6134557094499544
596.327586,,0.0,596.135,0.4569999873638153,-2.6045830263841543
596.793103,,0.0,596.598,0.4490000009536743,-2.6218474062053163
597.2586210000001,,0.0,597.061,0.44200000166893005,-2.636931768918233
597.724138,,0.0,597.527,0.42399999499320984,-2.6759855682940454
598.189655,,0.0,597.993,0.4350000023841858,-2.6518681503984176
598.655172,,0.0,598.459,0.46700000762939453,-2.5820124992178934
599.12069,,0.0,598.924,0.4569999873638153,-2.603676354993872
599.586207,,0.0,599.389,0.4690000116825104,-2.577429098618617
600.0517239999999,,0.0,599.855,0.4569999873638153,-2.6034917525071144
600.517241,,0.0,600.32,0.43799999356269836,-2.6448300523917765
600.982759,,0.0,600.78,0.4569999873638153,-2.603407092717607
601.448276,,0.0,601.246,0.45100000500679016,-2.6164782810556573
601.913793,,0.0,601.714,0.45899999141693115,-2.5990761437095355
602.37931,,0.0,602.176,0.46399998664855957,-2.5882365537487813
602.844828,,0.0,602.639,0.4440000057220459,-2.6318882392105643
603.310345,,0.0,603.109,0.44999998807907104,-2.618918481973345
603.775862,,0.0,603.572,0.4259999990463257,-2.6713291266495856
604.2413789999999,,0.0,604.035,0.43799999356269836,-2.645326375945983
604.706897,,0.0,604.5,0.44699999690055847,-2.6258731549644336
605.172414,,0.0,604.965,0.45100000500679016,-2.617321531003601
605.637931,,0.0,605.431,0.45100000500679016,-2.617487701757307
606.1034480000001,,0.0,605.895,0.4519999921321869,-2.6154733803259216
606.5689659999999,,0.0,606.361,0.4480000138282776,-2.6243454978242626
607.0344829999999,,0.0,606.828,0.4620000123977661,-2.59399042187655
607.5,,0.0,607.293,0.44200000166893005,-2.6376934637387675
607.965517,,0.0,607.754,0.44600000977516174,-2.629089456345875
608.431034,,0.0,608.225,0.4519999921321869,-2.616105605204313
608.896552,,0.0,608.687,0.4410000145435333,-2.640133386538516
609.362069,,0.0,609.15,0.45100000500679016,-2.6183825230323707
609.827586,,0.0,609.62,0.45399999618530273,-2.6118538202771457
610.293103,,0.0,610.083,0.4429999887943268,-2.6357974931287402
610.758621,,0.0,610.548,0.44999998807907104,-2.620497599714474
611.2241379999999,,0.0,611.011,0.44699999690055847,-2.6269577587743935
611.689655,,0.0,611.477,0.4480000138282776,-2.624679075771322
612.155172,,0.0,611.942,0.4519999921321869,-2.6158431943357066
612.62069,,0.0,612.408,0.44999998807907104,-2.6200612893415425
613.0862070000001,,0.0,612.872,0.45100000500679016,-2.6177296152440124
613.551724,,0.0,613.338,0.46700000762939453,-2.5827087013154673
614.017241,,0.0,613.806,0.43799999356269836,-2.6457222757734553
614.4827590000001,,0.0,614.264,0.4480000138282776,-2.623769293759149
614.948276,,0.0,614.732,0.44999998807907104,-2.619251556912451
615.4137929999999,,0.0,615.194,0.4429999887943268,-2.6343522273807953
615.8793099999999,,0.0,615.662,0.43799999356269836,-2.645111014611341
616.344828,,0.0,616.131,0.43799999356269836,-2.64499632290909
616.810345,,0.0,616.591,0.43700000643730164,-2.6470835283871286
617.275862,,0.0,617.061,0.4429999887943268,-2.633946147918831
617.741379,,0.0,617.519,0.44699999690055847,-2.6251935223815264
618.206897,,0.0,617.99,0.44699999690055847,-2.625183834464347
618.672414,,0.0,618.449,0.43799999356269836,-2.644810642208367
619.137931,,0.0,618.914,0.44200000166893005,-2.6361432671524403
619.603448,,0.0,619.379,0.43299999833106995,-2.655825353088034
620.068966,,0.0,619.846,0.45100000500679016,-2.6167085222879685
620.534483,,0.0,620.312,0.45899999141693115,-2.599399183839729
621.0,,0.0,620.776,0.44600000977516174,-2.6278583412133534
621.465517,,0.0,621.241,0.4359999895095825,-2.6497949828546616
621.9310340000001,,0.0,621.709,0.4429999887943268,-2.6347038901375956
622.396552,,0.0,622.172,0.4339999854564667,-2.654475864618457
622.862069,,0.0,622.635,0.4429999887943268,-2.63503194328616
623.327586,,0.0,623.105,0.45100000500679016,-2.6177612281876295
623.793103,,0.0,623.569,0.4300000071525574,-2.663661147796304
624.258621,,0.0,624.031,0.4410000145435333,-2.6398300654538303
624.724138,,0.0,624.497,0.45500001311302185,-2.6094445597878333
625.189655,,0.0,624.963,0.44699999690055847,-2.6269668524094687
625.655172,,0.0,625.429,0.4440000057220459,-2.6335706697336856
626.1206900000001,,0.0,625.894,0.4410000145435333,-2.640147647896625
626.5862070000001,,0.0,626.36,0.44699999690055847,-2.627088883125274
627.0517239999999,,0.0,626.825,0.414000004529953,-2.6989695364963957
627.5172409999999,,0.0,627.291,0.43299999833106995,-2.657533857962142
627.982759,,0.0,627.754,0.44600000977516174,-2.6291443357653916
628.448276,,0.0,628.216,0.46399998664855957,-2.5898367434290925
628.913793,,0.0,628.684,0.43799999356269836,-2.6463670531749646
629.37931,,0.0,629.146,0.46299999952316284,-2.5917672506873566
629.844828,,0.0,629.61,0.4620000123977661,-2.5937968954376838
630.3103450000001,,0.0,630.079,0.44699999690055847,-2.626316630432575
630.7758620000001,,0.0,630.545,0.4440000057220459,-2.632686965711451
631.2413789999999,,0.0,631.008,0.4440000057220459,-2.6325212573397714
631.706897,,0.0,631.473,0.43299999833106995,-2.656325901999588
632.172414,,0.0,631.939,0.4429999887943268,-2.634389216378788
632.637931,,0.0,632.404,0.4259999990463257,-2.6712910138382515
633.103448,,0.0,632.869,0.46799999475479126,-2.579671269710353
633.568966,,0.0,633.335,0.44699999690055847,-2.625327778399946
634.034483,,0.0,633.795,0.4399999976158142,-2.6405075553132975
634.5,,0.0,634.261,0.47699999809265137,-2.559853217093689
634.9655170000001,,0.0,634.728,0.4309999942779541,-2.6600541805473483
635.431034,,0.0,635.19,0.5360000133514404,-2.43130607493581
635.8965519999999,,0.0,635.658,0.4300000071525574,-2.6622787258089597
636.362069,,0.0,636.12,0.4440000057220459,-2.6318399879190024
636.827586,,0.0,636.588,0.4309999942779541,-2.660251334116085
637.293103,,0.0,637.051,0.43799999356269836,-2.6451137677949137
637.7586210000001,,0.0,637.516,0.42899999022483826,-2.664855538237128
638.224138,,0.0,637.983,0.4269999861717224,-2.6693639656041857
638.689655,,0.0,638.449,0.453000009059906,-2.6128825471467954
639.155172,,0.0,638.914,0.4390000104904175,-2.6435538712447286
639.62069,,0.0,639.38,0.48500001430511475,-2.543506913491147
640.086207,,0.0,639.839,0.43700000643730164,-2.6482478757778156
640.551724,,0.0,640.305,0.4429999887943268,-2.6353324069279633
641.017241,,0.0,640.772,0.46000000834465027,-2.5984378729981517
641.482759,,0.0,641.238,0.43799999356269836,-2.6464921558076377
641.9482760000001,,0.0,641.7,0.42800000309944153,-2.668380864851019
642.413793,,0.0,642.17,0.4050000011920929,-2.7185683148416175
642.87931,,0.0,642.631,0.41100001335144043,-2.705549569932115
643.344828,,0.0,643.094,0.4339999854564667,-2.655466457178034
643.810345,,0.0,643.56,0.4339999854564667,-2.6554627346910626
644.275862,,0.0,644.025,0.43799999356269836,-2.6467141852885816
644.7413789999999,,0.0,644.49,0.44699999690055847,-2.6270425581402153
645.206897,,0.0,644.958,0.4480000138282776,-2.624771435958437
645.672414,,0.0,645.423,0.43799999356269836,-2.646439381520249
646.1379310000001,,0.0,645.887,0.46000000834465027,-2.598367632507032
646.6034480000001,,0.0,646.353,0.4560000002384186,-2.6069215335311533
647.0689659999999,,0.0,646.82,0.43799999356269836,-2.6459621055713125
647.534483,,0.0,647.279,0.4359999895095825,-2.6501359634164596
648.0,,0.0,647.746,0.44999998807907104,-2.619448880103072
648.465517,,0.0,648.209,0.44699999690055847,-2.625801589957667
648.931034,,0.0,648.677,0.4359999895095825,-2.6495920977385023
649.396552,,0.0,649.139,0.4129999876022339,-2.6995413790349745
649.862069,,0.0,649.609,0.4300000071525574,-2.662365482486385
650.327586,,0.0,650.072,0.4259999990463257,-2.6709664450458472
650.7931030000001,,0.0,650.537,0.44200000166893005,-2.6360227794297595
651.258621,,0.0,651.0,0.43799999356269836,-2.6446828696073146
651.7241379999999,,0.0,651.466,0.4440000057220459,-2.631588794147429
652.189655,,0.0,651.932,0.43799999356269836,-2.644671801188673
652.655172,,0.0,652.398,0.4560000002384186,-2.6055000940092317
653.12069,,0.0,652.865,0.4480000138282776,-2.623004642173507
653.5862070000001,,0.0,653.331,0.44200000166893005,-2.636181354604172
654.051724,,0.0,653.796,0.45100000500679016,-2.6167049489227585
654.517241,,0.0,654.254,0.43799999356269836,-2.645181744824281
654.982759,,0.0,654.724,0.43799999356269836,-2.645354770187058
655.448276,,0.0,655.186,0.45100000500679016,-2.6172189062938336
655.9137929999999,,0.0,655.654,0.4339999854564667,-2.6544504172177223
656.37931,,0.0,656.117,0.4320000112056732,-2.659004489602217
656.844828,,0.0,656.58,0.4449999928474426,-2.6308754747980174
657.310345,,0.0,657.05,0.43700000643730164,-2.6484883295308093
657.7758620000001,,0.0,657.509,0.4490000009536743,-2.622512668596134
658.241379,,0.0,657.975,0.43799999356269836,-2.646624998325779
658.7068969999999,,0.0,658.441,0.4259999990463257,-2.6728907340239454
659.172414,,0.0,658.905,0.4440000057220459,-2.6337681364619736
659.637931,,0.0,659.371,0.4480000138282776,-2.6251141268522984
660.103448,,0.0,659.835,0.4429999887943268,-2.6360329885285503
660.568966,,0.0,660.301,0.4429999887943268,-2.6360225305216094
661.034483,,0.0,660.766,0.43799999356269836,-2.646869492332054
661.5,,0.0,661.231,0.421999990940094,-2.6816473978340984
661.965517,,0.0,661.694,0.4399999976158142,-2.6423195124643417
662.4310340000001,,0.0,662.164,0.5130000114440918,-2.483135603912167
662.8965519999999,,0.0,662.628,0.4440000057220459,-2.6332919773426435
663.362069,,0.0,663.09,0.4440000057220459,-2.6330998963008443
663.827586,,0.0,663.557,0.453000009059906,-2.61328528607401
664.293103,,0.0,664.02,0.4390000104904175,-2.643571211324505
664.7586210000001,,0.0,664.485,0.4569999873638153,-2.6041386986786415
665.224138,,0.0,664.951,0.4490000009536743,-2.621355783160198
665.689655,,0.0,665.417,0.4429999887943268,-2.634227182281548
666.155172,,0.0,665.883,0.45500001311302185,-2.6079009041185905
666.62069,,0.0,666.349,0.4490000009536743,-2.6208141237527887
667.086207,,0.0,666.813,0.45500001311302185,-2.6076122976315523
667.5517239999999,,0.0,667.279,0.46399998664855957,-2.587907453547134
668.017241,,0.0,667.739,0.45899999141693115,-2.598739472626062
668.482759,,0.0,668.209,0.43799999356269836,-2.644468418622414
668.948276,,0.0,668.669,0.44699999690055847,-2.6248782315062016
669.413793,,0.0,669.139,0.43799999356269836,-2.644544153812923
669.87931,,0.0,669.602,0.45100000500679016,-2.616318646016805
670.3448279999999,,0.0,670.065,0.42800000309944153,-2.666560840048133
670.810345,,0.0,670.53,0.44999998807907104,-2.618796474190108
671.275862,,0.0,670.994,0.4440000057220459,-2.632061604148476
671.7413789999999,,0.0,671.459,0.43700000643730164,-2.6475268772521474
672.206897,,0.0,671.924,0.4300000071525574,-2.6630075010545005
672.672414,,0.0,672.389,0.4429999887943268,-2.634923509878017
673.137931,,0.0,672.855,0.4480000138282776,-2.6242689793943756
673.6034480000001,,0.0,673.32,0.4390000104904175,-2.6441080972646542
674.068966,,0.0,673.788,0.4129999876022339,-2.7009700898139215
674.5344829999999,,0.0,674.254,0.4390000104904175,-2.644521607831867
675.0,,0.0,674.717,0.4339999854564667,-2.6555838446983997
675.465517,,0.0,675.179,0.46700000762939453,-2.5838231704716663
675.931034,,0.0,675.647,0.45399999618530273,-2.6122407320713426
676.396552,,0.0,676.109,0.45100000500679016,-2.618828566004409
676.862069,,0.0,676.58,0.46299999952316284,-2.5926915982285124
677.327586,,0.0,677.042,0.43799999356269836,-2.6471190483251834
677.793103,,0.0,677.508,0.4620000123977661,-2.5947481759767914
678.2586210000001,,0.0,677.973,0.4359999895095825,-2.6512677841538754
678.7241379999999,,0.0,678.439,0.4399999976158142,-2.6423899220827938
679.1896549999999,,0.0,678.906,0.43299999833106995,-2.657444692692179
679.655172,,0.0,679.364,0.4490000009536743,-2.6223638820233997
680.12069,,0.0,679.829,0.453000009059906,-2.6134065385774936
680.5862070000001,,0.0,680.294,0.4490000009536743,-2.621865315814867
681.051724,,0.0,680.768,0.4440000057220459,-2.6324978385928763
681.517241,,0.0,681.227,0.4440000057220459,-2.6322408010486296
681.9827590000001,,0.0,681.695,0.4359999895095825,-2.649425146654768
682.448276,,0.0,682.158,0.45500001311302185,-2.607805878127903
682.9137929999999,,0.0,682.621,0.4359999895095825,-2.649002501542828
683.3793099999999,,0.0,683.09,0.4429999887943268,-2.633588050135722
683.844828,,0.0,683.549,0.4560000002384186,-2.6051408616111074
684.310345,,0.0,684.019,0.4390000104904175,-2.6420963107322213
684.775862,,0.0,684.484,0.45100000500679016,-2.6159172297496087
685.241379,,0.0,684.95,0.43799999356269836,-2.6442522585191868
685.706897,,0.0,685.416,0.4440000057220459,-2.6312408933905544
686.172414,,0.0,685.88,0.4359999895095825,-2.6487772862084196
686.637931,,0.0,686.339,0.43799999356269836,-2.644570840333758
687.103448,,0.0,686.805,0.453000009059906,-2.612080937491641
687.5689659999999,,0.0,687.271,0.4429999887943268,-2.6340901757105195
688.034483,,0.0,687.739,0.44600000977516174,-2.6278029067986663
688.5,,0.0,688.201,0.43799999356269836,-2.6454993873933086
688.965517,,0.0,688.669,0.4230000078678131,-2.678457027928523
689.4310340000001,,0.0,689.132,0.4359999895095825,-2.650414923832759
689.896552,,0.0,689.595,0.43799999356269836,-2.646331078739234
690.362069,,0.0,690.064,0.4300000071525574,-2.6640178802521204
690.827586,,0.0,690.53,0.45100000500679016,-2.6184995341588406
691.293103,,0.0,690.994,0.4359999895095825,-2.6513801885056214
691.758621,,0.0,691.46,0.45500001311302185,-2.6101473824894827
692.224138,,0.0,691.924,0.43799999356269836,-2.6473011302389358
692.689655,,0.0,692.39,0.45100000500679016,-2.6190463637249586
693.155172,,0.0,692.85,0.44699999690055847,-2.627777064689882
693.6206900000001,,0.0,693.316,0.4440000057220459,-2.6342765239236448
694.0862070000001,,0.0,693.781,0.45899999141693115,-2.601508478173709
694.551724,,0.0,694.246,0.43799999356269836,-2.64712224608848
695.0172409999999,,0.0,694.709,0.4410000145435333,-2.640403391004554
695.482759,,0.0,695.179,0.43799999356269836,-2.6467174032834424
695.948276,,0.0,695.639,0.4359999895095825,-2.6508205297110035
696.4137929999999,,0.0,696.109,0.44999998807907104,-2.6200408248168428
696.87931,,0.0,696.569,0.4390000104904175,-2.6437113030244404
697.344828,,0.0,697.039,0.4429999887943268,-2.6346955126591367
697.8103450000001,,0.0,697.504,0.45100000500679016,-2.616967895008859
698.2758620000001,,0.0,697.968,0.45500001311302185,-2.6079668469949113
698.741379,,0.0,698.434,0.43799999356269836,-2.6447387182945863
699.206897,,0.0,698.894,0.4440000057220459,-2.6314319142322016
699.672414,,0.0,699.36,0.4519999921321869,-2.613805885479882
700.137931,,0.0,699.828,0.4399999976158142,-2.6397972216901424
700.603448,,0.0,700.293,0.4429999887943268,-2.633158740713675
701.068966,,0.0,700.754,0.4339999854564667,-2.652717878238556
701.534483,,0.0,701.225,0.43799999356269836,-2.6440105630857342
702.0,,0.0,701.687,0.44699999690055847,-2.6244660534950324
702.4655170000001,,0.0,702.15,0.4050000011920929,-2.7160874470785465
702.931034,,0.0,702.62,0.43799999356269836,-2.644362349460513
703.3965519999999,,0.0,703.083,0.45899999141693115,-2.598827233951728
703.862069,,0.0,703.549,0.4490000009536743,-2.6208685512158723
704.327586,,0.0,704.011,0.45100000500679016,-2.616796458831713
704.793103,,0.0,704.477,0.46299999952316284,-2.590959246973059
705.2586210000001,,0.0,704.942,0.4429999887943268,-2.63485044308126
705.724138,,0.0,705.408,0.44699999690055847,-2.626456059653736
706.189655,,0.0,705.872,0.4490000009536743,-2.6224110700454535
706.6551720000001,,0.0,706.338,0.4399999976158142,-2.6423133914402914
707.12069,,0.0,706.802,0.45100000500679016,-2.618615505798457
707.586207,,0.0,707.268,0.45100000500679016,-2.6188466940504793
708.051724,,0.0,707.731,0.4440000057220459,-2.634284720659757
708.517241,,0.0,708.194,0.453000009059906,-2.614814541863266
708.982759,,0.0,708.665,0.46399998664855957,-2.5909322424197847
709.4482760000001,,0.0,709.127,0.4580000042915344,-2.6040286174577902
709.913793,,0.0,709.595,0.4440000057220459,-2.6344951508241157
710.37931,,0.0,710.057,0.4429999887943268,-2.636581671908978
710.844828,,0.0,710.523,0.4699999988079071,-2.577610769146661
711.310345,,0.0,710.986,0.43799999356269836,-2.6471290199389426
711.775862,,0.0,711.452,0.4429999887943268,-2.6359927088760142
712.2413789999999,,0.0,711.916,0.44699999690055847,-2.6269982997908756
712.706897,,0.0,712.382,0.46399998664855957,-2.5896528807639076
713.172414,,0.0,712.85,0.46299999952316284,-2.591503417071715
713.637931,,0.0,713.316,0.44200000166893005,-2.6369177050020896
714.1034480000001,,0.0,713.78,0.45399999618530273,-2.61043858099547
714.5689659999999,,0.0,714.246,0.46399998664855957,-2.588329183161244
715.034483,,0.0,714.706,0.46399998664855957,-2.5880284106927713
715.5,,0.0,715.175,0.45500001311302185,-2.607367263739583
715.965517,,0.0,715.636,0.4729999899864197,-2.567923302879124
716.431034,,0.0,716.105,0.4620000123977661,-2.591707925258529
716.896552,,0.0,716.564,0.4449999928474426,-2.6286188742860563
717.362069,,0.0,717.035,0.4429999887943268,-2.6329096811835697
717.827586,,0.0,717.5,0.43799999356269836,-2.6437990603128405
718.2931030000001,,0.0,717.965,0.4429999887943268,-2.6329652632603846
718.758621,,0.0,718.431,0.44699999690055847,-2.624371692167356
719.2241379999999,,0.0,718.891,0.4429999887943268,-2.633265268087788
719.689655,,0.0,719.357,0.4659999907016754,-2.583387453014809
720.155172,,0.0,719.825,0.4519999921321869,-2.6141641961677977
720.62069,,0.0,720.29,0.43799999356269836,-2.6449772766464146
721.0862070000001,,0.0,720.75,0.43700000643730164,-2.6474952726228707
721.551724,,0.0,721.22,0.460999995470047,-2.5955636120196783
722.017241,,0.0,721.683,0.4440000057220459,-2.6329611740296515
722.482759,,0.0,722.146,0.46000000834465027,-2.5984563421069464
722.948276,,0.0,722.61,0.453000009059906,-2.6140419513200905
723.4137929999999,,0.0,723.079,0.4519999921321869,-2.6165263652489092
723.87931,,0.0,723.544,0.4440000057220459,-2.634222297856259
724.344828,,0.0,724.007,0.4560000002384186,-2.6082976712192676
724.810345,,0.0,724.473,0.46399998664855957,-2.591032314144266
725.2758620000001,,0.0,724.939,0.4300000071525574,-2.665209371925718
725.741379,,0.0,725.405,0.45399999618530273,-2.6129611041607683
726.2068969999999,,0.0,725.869,0.4300000071525574,-2.6652227690285515
726.672414,,0.0,726.335,0.44699999690055847,-2.6280952290199777
727.137931,,0.0,726.795,0.44699999690055847,-2.627942346846046
727.603448,,0.0,727.261,0.4410000145435333,-2.6408032091591145
728.068966,,0.0,727.729,0.4569999873638153,-2.6056820194175114
728.534483,,0.0,728.191,0.4490000009536743,-2.622804127840166
729.0,,0.0,728.654,0.4480000138282776,-2.6246409881218966
729.465517,,0.0,729.123,0.44699999690055847,-2.6264540551519144
729.9310340000001,,0.0,729.587,0.4390000104904175,-2.643505416258592
730.3965519999999,,0.0,730.05,0.4440000057220459,-2.632234341302785
730.8620689999999,,0.0,730.516,0.46399998664855957,-2.588295103260707
731.327586,,0.0,730.979,0.4440000057220459,-2.631524531720734
731.793103,,0.0,731.445,0.46700000762939453,-2.581105873577035
732.2586210000001,,0.0,731.909,0.4399999976158142,-2.6396635992358632
732.724138,,0.0,732.374,0.45500001311302185,-2.606770966673768
733.189655,,0.0,732.84,0.46000000834465027,-2.5957248388874867
733.655172,,0.0,733.305,0.44699999690055847,-2.62395946031852
734.12069,,0.0,733.773,0.43299999833106995,-2.6544416917743603
734.586207,,0.0,734.238,0.30000001192092896,-2.944256501516192
735.0517239999999,,0.0,734.699,0.4560000002384186,-2.6045160820912336
735.517241,,0.0,735.168,0.4480000138282776,-2.6221413909926126
735.982759,,0.0,735.631,0.5289999842643738,-2.4459241241658383
736.448276,,0.0,736.094,0.43799999356269836,-2.6444825172642044
736.913793,,0.0,736.56,0.4399999976158142,-2.640467131693814
737.37931,,0.0,737.025,0.4350000023841858,-2.6517339662454416
737.844828,,0.0,737.491,0.45100000500679016,-2.6172690022032485
738.310345,,0.0,737.957,0.4429999887943268,-2.6350987449586962
738.775862,,0.0,738.423,0.4560000002384186,-2.607170958875018
739.2413789999999,,0.0,738.887,0.45399999618530273,-2.6119042673913464
739.706897,,0.0,739.353,0.45100000500679016,-2.618785410306404
740.172414,,0.0,739.818,0.46299999952316284,-2.592944923635634
740.637931,,0.0,740.284,0.4410000145435333,-2.641126796367514
741.1034480000001,,0.0,740.746,0.4560000002384186,-2.608639198394851
741.568966,,0.0,741.21,0.492000013589859,-2.5303332642971
742.034483,,0.0,741.68,0.44999998807907104,-2.6218903731416248
742.5,,0.0,742.142,0.4519999921321869,-2.6175141233753063
742.965517,,0.0,742.606,0.4440000057220459,-2.634852883852209
743.431034,,0.0,743.076,0.47999998927116394,-2.556261932749034
743.896552,,0.0,743.534,0.4729999899864197,-2.5712874483147568
744.362069,,0.0,744.005,0.4300000071525574,-2.664686255504641
744.827586,,0.0,744.47,0.44699999690055847,-2.62731839293617
745.293103,,0.0,744.935,0.42899999022483826,-2.666166340028798
745.7586210000001,,0.0,745.401,0.44699999690055847,-2.6265575220898354
746.2241379999999,,0.0,745.865,0.4620000123977661,-2.593470973936187
746.6896549999999,,0.0,746.33,0.44600000977516174,-2.6279211045361164
747.155172,,0.0,746.795,0.4300000071525574,-2.6623832161524317
747.62069,,0.0,747.261,0.36800000071525574,-2.7970897285533627
748.086207,,0.0,747.724,0.4519999921321869,-2.613752648129503
748.551724,,0.0,748.186,0.4560000002384186,-2.604754925667324
749.017241,,0.0,748.654,0.4440000057220459,-2.630670374997759
749.4827590000001,,0.0,749.116,0.4490000009536743,-2.6196109988846548
749.9482760000001,,0.0,749.58,0.46700000762939453,-2.580296257558921
750.4137929999999,,0.0,750.05,0.43799999356269836,-2.643448093223867
750.8793099999999,,0.0,750.515,0.4440000057220459,-2.630418788438141
751.344828,,0.0,750.98,0.4519999921321869,-2.6131028123630515
751.810345,,0.0,751.445,0.5540000200271606,-2.3910585406072773
752.275862,,0.0,751.91,0.4429999887943268,-2.6331242353239706
752.741379,,0.0,752.376,0.4519999921321869,-2.613804500362769
753.206897,,0.0,752.835,0.4440000057220459,-2.6315675613260416
753.672414,,0.0,753.301,0.4449999928474426,-2.6297586275797755
754.1379310000001,,0.0,753.766,0.44999998807907104,-2.619259638121588
754.603448,,0.0,754.231,0.45899999141693115,-2.600058162214459
755.0689659999999,,0.0,754.694,0.492000013589859,-2.528567673774482
755.534483,,0.0,755.165,0.44699999690055847,-2.626997517916709
756.0,,0.0,755.628,0.46299999952316284,-2.592504091372742
756.465517,,0.0,756.09,0.4359999895095825,-2.6516565011441915
756.931034,,0.0,756.556,0.45899999141693115,-2.601830432470325
757.396552,,0.0,757.02,0.44699999690055847,-2.6282021600650642
757.862069,,0.0,757.486,0.45500001311302185,-2.6109386766000076
758.3275860000001,,0.0,757.951,0.5230000019073486,-2.4628874774050513
758.793103,,0.0,758.417,0.45899999141693115,-2.6023445144799973
759.258621,,0.0,758.884,0.46399998664855957,-2.5914014771051344
759.724138,,0.0,759.35,0.44200000166893005,-2.639211536181319
760.189655,,0.0,759.809,0.45100000500679016,-2.6194172785481658
760.655172,,0.0,760.275,0.4819999933242798,-2.551631680015247
761.1206900000001,,0.0,760.739,0.4259999990463257,-2.673334661042334
761.5862070000001,,0.0,761.208,0.46399998664855957,-2.590200757554009
762.051724,,0.0,761.669,0.43799999356269836,-2.646467085515498
762.517241,,0.0,762.138,0.4429999887943268,-2.635173719856108
762.982759,,0.0,762.599,0.4490000009536743,-2.6216924297210955
763.448276,,0.0,763.068,0.44600000977516174,-2.6278219283148077
763.9137929999999,,0.0,763.534,0.4429999887943268,-2.633966832079201
764.37931,,0.0,763.997,0.4620000123977661,-2.59220838564762
764.844828,,0.0,764.462,0.44699999690055847,-2.624561813730138
765.310345,,0.0,764.928,0.460999995470047,-2.5937819695663475
765.7758620000001,,0.0,765.393,0.44200000166893005,-2.6349537295831187
766.241379,,0.0,765.857,0.3610000014305115,-2.8112667127697555
766.706897,,0.0,766.323,0.46399998664855957,-2.586779458827935
767.172414,,0.0,766.787,0.4410000145435333,-2.6368737288883715
767.637931,,0.0,767.253,0.4300000071525574,-2.6608955507242023
768.103448,,0.0,767.721,0.4560000002384186,-2.6043771138602487
768.568966,,0.0,768.183,0.46399998664855957,-2.5871392453928634
769.034483,,0.0,768.647,0.4440000057220459,-2.630962012849827
769.5,,0.0,769.109,0.4490000009536743,-2.6203699668681626
769.9655170000001,,0.0,769.577,0.43799999356269836,-2.644678872117561
770.4310340000001,,0.0,770.039,0.453000009059906,-2.612374966522707
770.8965519999999,,0.0,770.505,0.4569999873638153,-2.6040565382953282
771.362069,,0.0,770.972,0.4169999957084656,-2.6916071609217385
771.827586,,0.0,771.437,0.4490000009536743,-2.62229215236169
772.293103,,0.0,771.904,0.45100000500679016,-2.6183210626693145
772.7586210000001,,0.0,772.37,0.4390000104904175,-2.6448233459300425
773.224138,,0.0,772.835,0.44600000977516174,-2.629893028633294
773.689655,,0.0,773.301,0.45899999141693115,-2.601842621776252
774.155172,,0.0,773.765,0.4690000116825104,-2.580270849478998
774.62069,,0.0,774.231,0.44200000166893005,-2.63924540455362
775.086207,,0.0,774.691,0.44699999690055847,-2.628435693418829
775.551724,,0.0,775.161,0.4569999873638153,-2.60666301151475
776.017241,,0.0,775.624,0.4440000057220459,-2.6349289755871026
776.482759,,0.0,776.087,0.4429999887943268,-2.63698318619955
776.9482760000001,,0.0,776.553,0.4519999921321869,-2.6171868573361343
777.413793,,0.0,777.016,0.47200000286102295,-2.573366527721689
777.87931,,0.0,777.482,0.4429999887943268,-2.6362484845434047
778.344828,,0.0,777.946,0.44699999690055847,-2.627193230885156
778.810345,,0.0,778.412,0.45100000500679016,-2.618107016945814
779.275862,,0.0,778.877,0.47200000286102295,-2.5719635837635617
779.7413789999999,,0.0,779.343,0.4399999976158142,-2.641280073301599
780.206897,,0.0,779.809,0.43799999356269836,-2.6452416519065807
780.672414,,0.0,780.275,0.4569999873638153,-2.6034685377040754
781.137931,,0.0,780.739,0.4399999976158142,-2.6401548346090213
781.6034480000001,,0.0,781.201,0.4560000002384186,-2.604984385964214
782.0689659999999,,0.0,781.665,0.44600000977516174,-2.6265067744132127
782.5344829999999,,0.0,782.135,0.43299999833106995,-2.6546213661673033
783.0,,0.0,782.598,0.4729999899864197,-2.5673298597182446
783.465517,,0.0,783.061,0.45399999618530273,-2.6086443156696353
783.931034,,0.0,783.526,0.4440000057220459,-2.630419038454527
784.396552,,0.0,783.993,0.46299999952316284,-2.58908167630895
784.862069,,0.0,784.459,0.4480000138282776,-2.6218849428279265
785.327586,,0.0,784.924,0.44999998807907104,-2.6177141496512517
785.7931030000001,,0.0,785.389,0.4490000009536743,-2.6201365581288623
786.258621,,0.0,785.854,0.45399999618530273,-2.6095368450530643
786.7241379999999,,0.0,786.32,0.46299999952316284,-2.5902629108259108
787.189655,,0.0,786.78,0.45399999618530273,-2.6102346031459236
787.655172,,0.0,787.246,0.44699999690055847,-2.625868132746452
788.12069,,0.0,787.709,0.43799999356269836,-2.645867077359284
788.5862070000001,,0.0,788.179,0.43700000643730164,-2.648433514020017
789.051724,,0.0,788.643,0.4569999873638153,-2.605233161069014
789.517241,,0.0,789.105,0.44999998807907104,-2.6208291539309205
789.982759,,0.0,789.573,0.43799999356269836,-2.6472808752808166
790.448276,,0.0,790.035,0.42100000381469727,-2.6845798918695802
790.9137929999999,,0.0,790.501,0.4560000002384186,-2.6085354925451965
791.3793099999999,,0.0,790.968,0.46399998664855957,-2.591253477624607
791.844828,,0.0,791.434,0.4480000138282776,-2.6261926613096396
792.310345,,0.0,791.899,0.45100000500679016,-2.6196692551270804
792.7758620000001,,0.0,792.364,0.43799999356269836,-2.647936002298862
793.241379,,0.0,792.824,0.4690000116825104,-2.5802754695483334
793.7068969999999,,0.0,793.29,0.43799999356269836,-2.6476280553239193
794.172414,,0.0,793.758,0.4650000035762787,-2.588561492645562
794.637931,,0.0,794.22,0.45100000500679016,-2.6187694312683925
795.103448,,0.0,794.69,0.44600000977516174,-2.6293284954202107
795.568966,,0.0,795.153,0.45500001311302185,-2.609355983457085
796.034483,,0.0,795.614,0.44699999690055847,-2.62640114534708
796.5,,0.0,796.084,0.46399998664855957,-2.588972234773444
796.965517,,0.0,796.549,0.4569999873638153,-2.603834700780647
797.4310340000001,,0.0,797.012,0.4390000104904175,-2.6426782519632126
797.8965519999999,,0.0,797.478,0.4390000104904175,-2.6423343664082863
798.3620689999999,,0.0,797.943,0.47600001096725464,-2.561418820910217
798.827586,,0.0,798.409,0.45100000500679016,-2.6156263226930236
799.293103,,0.0,798.876,0.37400001287460327,-2.7831799286835825
799.758621,,0.0,799.334,0.43700000643730164,-2.6457873643973637
800.224138,,0.0,799.806,0.45500001311302185,-2.6065015053030196
800.689655,,0.0,800.264,0.460999995470047,-2.5934270022694257
801.155172,,0.0,800.732,0.42100000381469727,-2.680637900571257
801.62069,,0.0,801.194,0.45500001311302185,-2.6066949266912274
802.086207,,0.0,801.665,0.4869999885559082,-2.5371701810495377
802.5517239999999,,0.0,802.127,0.44999998807907104,-2.618025869286792
803.017241,,0.0,802.591,0.42899999022483826,-2.6640704254801157
803.482759,,0.0,803.054,0.4410000145435333,-2.6382590079124935
803.948276,,0.0,803.519,0.4320000112056732,-2.658228675762012
804.413793,,0.0,803.99,0.4429999887943268,-2.6346435763384592
804.87931,,0.0,804.449,0.43799999356269836,-2.645923155483526
805.344828,,0.0,804.914,0.45100000500679016,-2.617981258824874
805.810345,,0.0,805.38,0.44699999690055847,-2.627058678685168
806.275862,,0.0,805.846,0.45399999618530273,-2.612141852566959
806.7413789999999,,0.0,806.312,0.44699999690055847,-2.6276867898284193
807.206897,,0.0,806.777,0.4480000138282776,-2.6257543445926905
807.672414,,0.0,807.243,0.43299999833106995,-2.6586251358164112
808.137931,,0.0,807.705,0.4410000145435333,-2.641326355879825
808.603448,,0.0,808.175,0.46399998664855957,-2.591283027892865
809.068966,,0.0,808.636,0.4519999921321869,-2.617424767083483
809.534483,,0.0,809.105,0.44699999690055847,-2.6282486929983007
810.0,,0.0,809.569,0.4440000057220459,-2.6346507878300423
810.465517,,0.0,810.031,0.46299999952316284,-2.593062215322627
810.931034,,0.0,810.497,0.4429999887943268,-2.6363863823850546
811.396552,,0.0,810.961,0.4269999861717224,-2.6709498153016966
811.862069,,0.0,811.426,0.45100000500679016,-2.6183308057227586
812.327586,,0.0,811.892,0.46000000834465027,-2.5983646223982797
812.793103,,0.0,812.358,0.4429999887943268,-2.6350270052544835
813.2586210000001,,0.0,812.824,0.43700000643730164,-2.6477199198781363
813.724138,,0.0,813.29,0.4410000145435333,-2.6386342253266664
814.1896549999999,,0.0,813.75,0.45899999141693115,-2.599066356753868
814.655172,,0.0,814.22,0.43799999356269836,-2.644494995480659
815.12069,,0.0,814.683,0.4390000104904175,-2.6420328241332456
815.586207,,0.0,815.146,0.4429999887943268,-2.6330831687508285
816.051724,,0.0,815.614,0.46299999952316284,-2.5893299710503515
816.517241,,0.0,816.076,0.4429999887943268,-2.632782638669398
816.982759,,0.0,816.542,0.4490000009536743,-2.619654036937271
817.4482760000001,,0.0,817.005,0.4320000112056732,-2.6567000989814153
817.913793,,0.0,817.47,0.4390000104904175,-2.641524298672008
818.3793099999999,,0.0,817.936,0.43799999356269836,-2.643841044217267
818.844828,,0.0,818.401,0.44699999690055847,-2.6244299008363927
819.310345,,0.0,818.866,0.45899999141693115,-2.598534729659201
819.775862,,0.0,819.331,0.44699999690055847,-2.6249708496408966
820.241379,,0.0,819.798,0.4399999976158142,-2.6405487428388583
820.706897,,0.0,820.264,0.43799999356269836,-2.6452588098661196
821.172414,,0.0,820.724,0.44600000977516174,-2.628196922272907
821.6379310000001,,0.0,821.194,0.4429999887943268,-2.635103320211464
822.1034480000001,,0.0,821.654,0.46299999952316284,-2.5918919857771736
822.5689659999999,,0.0,822.125,0.4429999887943268,-2.6358065412683036
823.034483,,0.0,822.587,0.4740000069141388,-2.568579176277034
823.5,,0.0,823.05,0.44999998807907104,-2.6211370959173523
823.965517,,0.0,823.515,0.4429999887943268,-2.63660975664216
824.431034,,0.0,823.98,0.46299999952316284,-2.593204415009215
824.896552,,0.0,824.445,0.4429999887943268,-2.6368854796148806
825.362069,,0.0,824.911,0.45399999618530273,-2.6129658690248725
825.827586,,0.0,825.377,0.45100000500679016,-2.6194837122767645
826.293103,,0.0,825.843,0.4399999976158142,-2.643368074029569
826.758621,,0.0,826.309,0.4490000009536743,-2.6236197369176995
827.224138,,0.0,826.769,0.43799999356269836,-2.6473893161836672
827.689655,,0.0,827.234,0.4410000145435333,-2.6406090162982307
828.155172,,0.0,827.702,0.43799999356269836,-2.646859748374239
828.6206900000001,,0.0,828.165,0.4580000042915344,-2.602969031031665
829.0862070000001,,0.0,828.635,0.4410000145435333,-2.639665286474471
829.551724,,0.0,829.098,0.4399999976158142,-2.641490883078098
830.017241,,0.0,829.569,0.4729999899864197,-2.569240567086795
830.482759,,0.0,830.024,0.46399998664855957,-2.588501441032212
830.948276,,0.0,830.49,0.46399998664855957,-2.588172666558257
831.4137929999999,,0.0,830.954,0.4440000057220459,-2.631445581742724
831.87931,,0.0,831.42,0.45100000500679016,-2.615933492467289
832.344828,,0.0,831.887,0.45399999618530273,-2.609182477430599
832.810345,,0.0,832.352,0.421999990940094,-2.678737472203304
833.2758620000001,,0.0,832.817,0.4429999887943268,-2.6328829129572044
833.741379,,0.0,833.283,0.43799999356269836,-2.6437349629622586
834.2068969999999,,0.0,833.746,0.4440000057220459,-2.6306843303563996
834.672414,,0.0,834.216,0.45100000500679016,-2.6155164053839903
835.137931,,0.0,834.68,0.43799999356269836,-2.643979918698903
835.603448,,0.0,835.142,0.4480000138282776,-2.622388477401145
836.068966,,0.0,835.606,0.4490000009536743,-2.620452651445012
836.534483,,0.0,836.076,0.4390000104904175,-2.6425219420350547
837.0,,0.0,836.534,0.4440000057220459,-2.6319429720886185
837.4655170000001,,0.0,837.005,0.4359999895095825,-2.6497082861182775
837.9310340000001,,0.0,837.47,0.45100000500679016,-2.617375921434247
838.3965519999999,,0.0,837.935,0.46399998664855957,-2.5894008606378245
838.862069,,0.0,838.4,0.4560000002384186,-2.6071659964577822
839.327586,,0.0,838.865,0.4490000009536743,-2.622731066035992
839.793103,,0.0,839.324,0.44699999690055847,-2.627372360742723
840.2586210000001,,0.0,839.791,0.43799999356269836,-2.6472254747779442
840.724138,,0.0,840.256,0.45899999141693115,-2.6016730276027364
841.189655,,0.0,840.724,0.4650000035762787,-2.5887475790484578
841.655172,,0.0,841.186,0.44600000977516174,-2.63023116219505
842.12069,,0.0,841.654,0.4339999854564667,-2.6564054288233336
842.586207,,0.0,842.116,0.4410000145435333,-2.641126441704509
843.0517239999999,,0.0,842.58,0.4560000002384186,-2.608360382548363
843.517241,,0.0,843.05,0.4429999887943268,-2.636540978473208
843.982759,,0.0,843.515,0.43799999356269836,-2.64724171618954
844.4482760000001,,0.0,843.979,0.44699999690055847,-2.6273971108218577
844.913793,,0.0,844.445,0.46399998664855957,-2.5900859475860396
845.37931,,0.0,844.909,0.4519999921321869,-2.6159261424445357
845.844828,,0.0,845.375,0.45399999618530273,-2.6112453282073953
846.310345,,0.0,845.835,0.4480000138282776,-2.6239840215924826
846.775862,,0.0,846.301,0.4390000104904175,-2.6432596718653434
847.2413789999999,,0.0,846.765,0.45100000500679016,-2.616795068914678
847.706897,,0.0,847.231,0.45500001311302185,-2.6077804381588297
848.172414,,0.0,847.699,0.4519999921321869,-2.6140460131189966
848.637931,,0.0,848.161,0.45100000500679016,-2.6159920402143144
849.1034480000001,,0.0,848.624,0.4490000009536743,-2.6201616931514646
849.5689659999999,,0.0,849.094,0.46000000834465027,-2.5960592904884128
850.0344829999999,,0.0,849.56,0.45899999141693115,-2.598154806334219
850.5,,0.0,850.025,0.46299999952316284,-2.5894132155980456
850.965517,,0.0,850.49,0.45100000500679016,-2.615586958243825
851.431034,,0.0,850.95,0.46700000762939453,-2.580814465795176
851.896552,,0.0,851.416,0.44699999690055847,-2.624526538849723
852.362069,,0.0,851.88,0.4399999976158142,-2.639965508086217
852.827586,,0.0,852.346,0.45100000500679016,-2.6162326810717578
853.2931030000001,,0.0,852.813,0.45100000500679016,-2.6165014037318013
853.758621,,0.0,853.279,0.43799999356269836,-2.6451206821505453
