Trial: ,5
Threshold: ,0.0
Maximum EMG: ,0.2331286848663216
Success: ,True

EMG Time,Raw EMG,Filtered EMG,Force Time,Raw Force (V),Filtered Force (N)
0.0,samples,2.698527960396675e-07,0.467,0.5070000290870667,-2.4959175746878213
0.46551699999999996,time,2.8104264315442394e-07,0.931,0.49399998784065247,-2.5241416231992027
0.9310339999999999,value,2.917140642846272e-07,1.397,0.49399998784065247,-2.5240312987867353
1.396552,,3.018066349265253e-07,1.861,0.5080000162124634,-2.4934112394751873
1.862069,,3.1125938411916826e-07,2.327,0.5180000066757202,-2.4715001044927747
2.327586,,3.200109881561186e-07,2.79,0.5120000243186951,-2.4844447554680515
2.793103,,3.27999973920352e-07,3.26,0.49900001287460327,-2.512641604019178
3.258621,,3.3516493153322634e-07,3.72,0.5070000290870667,-2.4950926321165636
3.724138,,3.4144473596185164e-07,4.19,0.4970000088214874,-2.5167691068482085
4.189654999999999,,3.467787771819018e-07,4.654,0.503000020980835,-2.5036003114701515
4.655172,,3.511071984450134e-07,5.116,0.5170000195503235,-2.4730182449359956
5.12069,,3.543711421515594e-07,5.581,0.49900001287460327,-2.512171096175718
5.586207,,3.565130027809197e-07,6.045,0.5009999871253967,-2.5077715155088436
6.051723999999999,,3.5747668628255345e-07,6.51,0.5180000066757202,-2.4707139456175526
6.517241,,3.5720787528238175e-07,6.976,0.5139999985694885,-2.4794300569579026
6.982759,,3.556542994103839e-07,7.442,0.5059999823570251,-2.496882840390272
7.448276,,3.527660100070822e-07,7.91,0.5120000243186951,-2.483856163249333
7.913793000000001,,3.484956584189233e-07,8.375,0.44699999690055847,-2.6255354069912364
8.379309999999998,,3.4279877704565506e-07,8.835,0.5009999871253967,-2.5079764195048204
8.844828000000001,,3.3563406225684634e-07,9.301,0.503000020980835,-2.5037246931103243
9.310345,,3.2696365824990515e-07,9.769,0.5080000162124634,-2.492950303282561
9.775862,,3.1675344087853337e-07,10.231,0.5080000162124634,-2.4930784852261474
10.241379,,3.049733004387232e-07,10.702,0.5049999952316284,-2.4997480247341595
10.706897,,2.915974223593723e-07,11.164,0.4970000088214874,-2.5173122545282243
11.172414,,2.7660456470658876e-07,11.625,0.49399998784065247,-2.5239810761705788
11.637931,,2.599783313749997e-07,12.095,0.5120000243186951,-2.484891702091858
12.103447999999998,,2.4170743980609064e-07,12.56,0.4950000047683716,-2.522044488490349
12.568966000000001,,2.2178598204301272e-07,13.02,0.5040000081062317,-2.5025381565787144
13.034483,,2.0021367790362816e-07,13.486,0.492000013589859,-2.52876625905864
13.5,,1.769961190290429e-07,13.95,0.5,-2.511401653180122
13.965517,,1.521450025437259e-07,14.415,0.4959999918937683,-2.520158949531357
14.431034,,1.2567835304575662e-07,14.887,0.5090000033378601,-2.4918555936877524
14.896552,,9.762073163199208e-08,15.345,0.5130000114440918,-2.483135299276647
15.362069,,6.800343065321806e-08,15.818,0.5139999985694885,-2.4809258459538612
15.827586000000002,,3.6864652888852745e-08,16.276,0.49000000953674316,-2.5331586077658916
16.293103,,4.249673829708681e-09,16.746,0.503000020980835,-2.5047596319152867
16.758621,,2.9789014239115347e-08,17.209,0.4819999933242798,-2.5504157457693046
17.224138,,6.519157765475955e-08,17.672,0.5049999952316284,-2.500195147799827
17.689655,,1.0189073757871724e-07,18.142,0.5019999742507935,-2.506606357862076
18.155172,,1.398116882521726e-07,18.6,0.5210000276565552,-2.465077114619004
18.62069,,1.7887203854834083e-07,19.069,0.492000013589859,-2.5281171895578236
19.086207,,2.1898177803627062e-07,19.535,0.5090000033378601,-2.4909381599935383
19.551724,,2.6004326873565493e-07,20.001,0.5009999871253967,-2.508228613522115
20.017241000000002,,3.019512637015704e-07,20.46,0.492000013589859,-2.5277053493180413
20.482758999999998,,3.445929535316261e-07,20.931,0.5299999713897705,-2.4447973391964037
20.948276,,3.878480418356631e-07,21.39,0.5139999985694885,-2.4795506842861617
21.413793000000002,,4.315888506498389e-07,21.862,0.4970000088214874,-2.516500749995994
21.87931,,4.7568045671260754e-07,22.32,0.49300000071525574,-2.525150319765058
22.344828,,5.199808594497341e-07,22.79,0.49900001287460327,-2.512037799868236
22.810344999999998,,5.643411814390496e-07,23.253,0.49900001287460327,-2.512022918895037
23.275862,,6.086059020431743e-07,23.721,0.4959999918937683,-2.518570302788652
23.741379,,6.526131248099425e-07,24.183,0.5,-2.5098931688167934
24.206897,,6.961948791458106e-07,24.65,0.503000020980835,-2.5034195499638345
24.672414,,7.39177456667196e-07,25.112,0.4909999966621399,-2.5296488620186386
25.137931,,7.813817825285826e-07,25.578,0.5049999952316284,-2.4992538918465574
25.603448,,8.226238219144736e-07,26.042,0.49900001287460327,-2.512449080688662
26.068966,,8.627150217650197e-07,26.507,0.5059999823570251,-2.497335178194765
26.534483,,9.014627876825862e-07,26.972,0.5009999871253967,-2.508373942233324
27.0,,9.38670995838857e-07,27.437,0.47600001096725464,-2.5629905921445797
27.465517,,9.741405395695294e-07,27.903,0.492000013589859,-2.528283619788376
27.931034,,1.0076699102065092e-06,28.368,0.5059999823570251,-2.4979297745067277
28.396552,,1.0390558115560446e-06,28.836,0.49399998784065247,-2.524211175463345
28.862069,,1.0680938072857714e-06,29.301,0.5120000243186951,-2.4851188952180405
29.327586,,1.0945790003345186e-06,29.764,0.5049999952316284,-2.5004745321213555
29.793103000000002,,1.1183067433063154e-06,30.227,0.5019999742507935,-2.507093655022823
30.258620999999998,,1.1390733786547548e-06,30.695,0.5149999856948853,-2.478829687315162
30.724138,,1.1566770073061313e-06,31.157,0.49900001287460327,-2.513719798477441
31.189655000000002,,1.1709182842100374e-06,31.621,0.4909999966621399,-2.531153500172076
31.655172000000004,,1.181601239144861e-06,32.09,0.5249999761581421,-2.4570563571052677
32.12069,,1.1885341209433754e-06,32.556,0.4519999921321869,-2.6160478931040676
32.586207,,1.1915302631409017e-06,33.021,0.47200000286102295,-2.572401541208245
33.051724,,1.1904089688859016e-06,33.487,0.49000000953674316,-2.5330914224261205
33.517241000000006,,1.184996412790906e-06,33.946,0.503000020980835,-2.5046549562295133
33.982759,,1.1751265572410288e-06,34.412,0.5239999890327454,-2.4587719813950795
34.448276,,1.1606420805185577e-06,34.877,0.503000020980835,-2.504378060379869
34.913793,,1.1413953139459175e-06,35.342,0.5170000195503235,-2.4737220142293888
35.37931,,1.1172491850963323e-06,35.805,0.49000000953674316,-2.532386330288423
35.844828,,1.0880781639724572e-06,36.275,0.5049999952316284,-2.4995485885618205
36.310345,,1.0537692089087993e-06,36.736,0.4880000054836273,-2.536434038320558
36.775862,,1.0142227088146237e-06,37.206,0.5049999952316284,-2.499256796070856
37.241378999999995,,9.693534182409654e-07,37.669,0.4880000054836273,-2.536169418608725
37.706897000000005,,9.190913816290795e-07,38.131,0.4959999918937683,-2.518635886698526
38.172414,,8.633828429789073e-07,38.597,0.5049999952316284,-2.4989469490146163
38.637931,,8.021911370656517e-07,39.06,0.49000000953674316,-2.5315713314639567
39.103448,,7.354975582311039e-07,39.525,0.4950000047683716,-2.520650724581886
39.568965999999996,,6.633022026846874e-07,39.99,0.4959999918937683,-2.518473777870999
40.034483,,5.856247801680464e-07,40.456,0.5080000162124634,-2.492360399668309
40.5,,5.025053907671329e-07,40.92,0.5070000290870667,-2.4945970267144095
40.965517,,4.140052625978913e-07,41.386,0.5120000243186951,-2.4837873986167365
41.431034,,3.2020744604650775e-07,41.85,0.515999972820282,-2.4751794313578652
41.896552,,2.212174602135129e-07,42.315,0.4950000047683716,-2.5210574179108347
42.362069000000005,,1.171638871934823e-07,42.783,0.492000013589859,-2.5277366627706552
42.827586000000004,,8.198909819348814e-09,43.245,0.5080000162124634,-2.493034355103121
43.293103,,1.0550121148692954e-07,43.716,0.4699999988079071,-2.5759873204135757
43.758621,,2.2373572708679036e-07,44.179,0.5099999904632568,-2.4890091002302985
44.224138,,3.462790560045312e-07,44.643,0.49000000953674316,-2.532747602099525
44.689655,,4.7288051753505155e-07,45.105,0.4970000088214874,-2.517655097567094
45.155172,,6.032641407206298e-07,45.571,0.515999972820282,-2.476406091570048
45.620689999999996,,7.371285557387848e-07,46.035,0.49900001287460327,-2.513570324331628
46.086206999999995,,8.741469711258905e-07,46.5,0.49399998784065247,-2.5245692016148866
46.551724,,1.0139672406247767e-06,46.965,0.4880000054836273,-2.5377220896225516
47.017241,,1.1562120232887162e-06,47.43,0.503000020980835,-2.505096117386793
47.482759,,1.3004790402986957e-06,47.895,0.49000000953674316,-2.5334430438545024
47.948276,,1.4463414317554558e-06,48.361,0.5009999871253967,-2.509472069910738
48.413793,,1.593348216492315e-06,48.828,0.5019999742507935,-2.5072569718309685
48.879310000000004,,1.7410248577191553e-06,49.293,0.49000000953674316,-2.5333344861764253
49.344828,,1.8888739370521256e-06,49.761,0.4970000088214874,-2.517990149779405
49.810345,,2.036375939207639e-06,50.224,0.49300000071525574,-2.5265861164262255
50.275862,,2.182990149343211e-06,50.687,0.49399998784065247,-2.524267485544016
50.741379,,2.328155664711822e-06,51.157,0.492000013589859,-2.5284676127157497
51.206897,,2.4712925219610375e-06,51.617,0.5189999938011169,-2.4694741994390452
51.672414,,2.6118029410534233e-06,52.087,0.4860000014305115,-2.541191699950784
52.137931,,2.7490726864113208e-06,52.545,0.492000013589859,-2.5279399978322434
52.603448,,2.882472545497273e-06,53.016,0.48899999260902405,-2.5343003796222305
53.068966,,3.0113599246319687e-06,53.475,0.49399998784065247,-2.5232411005430344
53.534483,,3.13508056142516e-06,53.94,0.5090000033378601,-2.490409669629632
54.0,,3.2529703527523982e-06,54.405,0.492000013589859,-2.527313895756463
54.465517,,3.3643572967525236e-06,54.873,0.5049999952316284,-2.4988819719404614
54.931034,,3.4685635468485972e-06,55.338,0.45899999141693115,-2.5990178765854886
55.396552,,3.56490757530944e-06,55.806,0.48100000619888306,-2.5510369682803216
55.862069,,3.65270644337129e-06,56.267,0.492000013589859,-2.5270541838279588
56.327586,,3.731278174430552e-06,56.735,0.48500001430511475,-2.542320085071328
56.793102999999995,,3.799944226300596e-06,57.198,0.48100000619888306,-2.551082847440187
57.258621000000005,,3.858032057999423e-06,57.661,0.49000000953674316,-2.5315546837716734
57.724138,,3.90487778600232e-06,58.131,0.49000000953674316,-2.5316632806446955
58.189655,,3.939828924355956e-06,58.59,0.4880000054836273,-2.5361546774434918
58.655172,,3.962247202509497e-06,59.06,0.4779999852180481,-2.558096958266047
59.120689999999996,,3.97151145417595e-06,59.526,0.47999998927116394,-2.5539126214307
59.586207,,3.967020569994989e-06,59.991,0.49799999594688416,-2.514881514394158
60.051724,,3.94819650622895e-06,60.457,0.4830000102519989,-2.5477512340818738
60.517241,,3.914487341188472e-06,60.917,0.5090000033378601,-2.4912955726744936
60.982758999999994,,3.865370370555524e-06,61.383,0.48899999260902405,-2.5350507058887106
61.448276,,3.8003552322515026e-06,61.85,0.4959999918937683,-2.519969606100256
61.913793,,3.7189870509888594e-06,62.316,0.492000013589859,-2.528835761741342
62.379310000000004,,3.6208495921486962e-06,62.776,0.6209999918937683,-2.2479166461801663
62.84482800000001,,3.5055684141461885e-06,63.246,0.49000000953674316,-2.533414989074968
63.310345000000005,,3.3728140079830396e-06,63.709,0.48899999260902405,-2.535657409235333
63.775862000000004,,3.2223049122437795e-06,64.172,0.492000013589859,-2.5291541792945247
64.241379,,3.053810791373088e-06,64.635,0.5070000290870667,-2.4964749723953257
64.706897,,2.8671554646769213e-06,65.105,0.48500001430511475,-2.544373582071839
65.172414,,2.6622198731235377e-06,65.571,0.5019999742507935,-2.5072740015582067
65.637931,,2.4389449706840726e-06,66.034,0.48500001430511475,-2.54421954910709
66.103448,,2.197334526648581e-06,66.5,0.48399999737739563,-2.546281322035524
66.56896599999999,,1.937457825084984e-06,66.965,0.4830000102519989,-2.5483215675831876
67.03448300000001,,1.659452247377562e-06,67.431,0.4830000102519989,-2.5481660735327605
67.5,,1.3635257235910062e-06,67.89,0.49000000953674316,-2.5327475705093687
67.965517,,1.0499590382579848e-06,68.357,0.5009999871253967,-2.508606687608669
68.431034,,7.191079760850638e-07,68.821,0.48899999260902405,-2.5345718421842034
68.896552,,3.714052930159385e-07,69.287,0.49000000953674316,-2.5322173044109473
69.362069,,7.3624980845449136e-09,69.75,0.4779999852180481,-2.558193757123224
69.827586,,3.7242856846412366e-07,70.22,0.4950000047683716,-2.5210028477591684
70.293103,,7.672943752087001e-07,70.683,0.4790000021457672,-2.55572540606898
70.75862099999999,,1.1764785720101852e-06,71.146,0.5019999742507935,-2.505502518517997
71.22413800000001,,1.5991411089511199e-06,71.617,0.48500001430511475,-2.542450325647413
71.689655,,2.0343576155401098e-06,72.079,0.4779999852180481,-2.55763953837677
72.15517200000001,,2.481119053634326e-06,72.545,0.492000013589859,-2.5271067447432793
72.62069,,2.9383316571379997e-06,73.005,0.47200000286102295,-2.570678617873016
73.086207,,3.4048171710767494e-06,73.471,0.49000000953674316,-2.531492280333097
73.551724,,3.8793134021246904e-06,73.935,0.4819999933242798,-2.5489801335472175
74.017241,,4.360475092072783e-06,74.401,0.48399999737739563,-2.5447086661812914
74.482759,,4.8468751250719914e-06,74.865,0.47200000286102295,-2.5709630174964047
74.94827599999999,,5.337006078763082e-06,75.331,0.49000000953674316,-2.531879174341675
75.41379300000001,,5.829282128615896e-06,75.802,0.5049999952316284,-2.499347728331563
75.87931,,6.322041313944672e-06,76.264,0.4830000102519989,-2.54743754736241
76.344828,,6.813548173142547e-06,76.728,0.4749999940395355,-2.5650334457628965
76.810345,,7.301996754688193e-06,77.19,0.48500001430511475,-2.5434161281625283
77.275862,,7.785514009421189e-06,77.661,0.47999998927116394,-2.554475939729574
77.741379,,8.262163568461254e-06,78.124,0.47200000286102295,-2.572064037262857
78.206897,,8.729949909960873e-06,78.589,0.47600001096725464,-2.563496327129186
78.67241399999999,,9.186822916632752e-06,79.052,0.49000000953674316,-2.533125461484519
79.137931,,9.630682824684588e-06,79.518,0.503000020980835,-2.5049118212012673
79.603448,,1.0059385563425914e-05,79.983,0.49000000953674316,-2.5333180263492965
80.068966,,1.0470748483387618e-05,80.449,0.4779999852180481,-2.5595186176848084
80.53448300000001,,1.0862556469316734e-05,80.913,0.4880000054836273,-2.537760814834768
81.0,,1.1232568432880293e-05,81.378,0.44999998807907104,-2.620550137024203
81.465517,,1.1578524178335538e-05,81.843,0.4699999988079071,-2.576950651483793
81.931034,,1.1898151632803336e-05,82.309,0.4860000014305115,-2.5420393008682947
82.396552,,1.2189174431120912e-05,82.772,0.4790000021457672,-2.557211276587711
82.86206899999999,,1.2449319843553419e-05,83.235,0.503000020980835,-2.5048214581277475
83.327586,,1.2676327032915673e-05,83.705,0.4650000035762787,-2.587487464495835
83.79310299999999,,1.2867955625900498e-05,84.168,0.4830000102519989,-2.548132981047028
84.258621,,1.3021994581633652e-05,84.632,0.47200000286102295,-2.57194777091086
84.72413800000001,,1.3136271338682736e-05,85.102,0.4690000116825104,-2.5783264437958255
85.189655,,1.320866121994431e-05,85.56,0.4659999907016754,-2.5847034015853785
85.65517200000001,,1.3237097073025715e-05,86.028,0.4880000054836273,-2.5366167657442302
86.12069,,1.321957912193215e-05,86.493,0.4790000021457672,-2.5560750287540324
86.586207,,1.3154185004071802e-05,86.958,0.47600001096725464,-2.5624724760953086
87.051724,,1.3039079964809107e-05,87.424,0.48100000619888306,-2.5514560938633766
87.517241,,1.2872527180035413e-05,87.891,0.4740000069141388,-2.5666023885209346
87.98275899999999,,1.2652898175494793e-05,88.356,0.4729999899864197,-2.568698892486563
88.448276,,1.2378683309907857e-05,88.821,0.48899999260902405,-2.5337825569689736
88.913793,,1.2048502287285815e-05,89.28,0.49399998784065247,-2.5228565190805186
89.37931,,1.166111466222853e-05,89.75,0.48500001430511475,-2.542457162305423
89.844828,,1.1215430300461709e-05,90.212,0.5019999742507935,-2.5054387573675867
90.310345,,1.0710519755398028e-05,90.68,0.5009999871253967,-2.507660534968215
90.775862,,1.0145624520112776e-05,91.142,0.49000000953674316,-2.531692011672556
91.241379,,9.520167112815069e-06,91.608,0.4779999852180481,-2.5579241727546425
91.706897,,8.833760952678919e-06,92.074,0.47600001096725464,-2.562389788511878
92.17241399999999,,8.086219981782914e-06,92.54,0.48500001430511475,-2.5429073427681
92.63793100000001,,7.277567987901312e-06,93.006,0.4749999940395355,-2.5648325431316605
93.103448,,6.4080475820012726e-06,93.471,0.4819999933242798,-2.549729945698238
93.568966,,5.478128783538973e-06,93.936,0.4790000021457672,-2.556418752876111
94.03448300000001,,4.488517166019738e-06,94.395,0.4909999966621399,-2.5304280623022013
94.5,,3.440161514801972e-06,94.861,0.4880000054836273,-2.5371124671113736
94.965517,,2.3342609487896232e-06,95.327,0.4880000054836273,-2.537251879983565
95.431034,,1.1722714574806682e-06,95.795,0.48500001430511475,-2.543914209926749
95.896552,,4.4088195172700936e-08,96.257,0.47999998927116394,-2.5549174365231493
96.36206899999999,,1.3128312484758295e-06,96.72,0.47600001096725464,-2.5637225682259284
96.827586,,2.6316984523188076e-06,97.19,0.4860000014305115,-2.5420047619777293
97.293103,,3.9981543516365844e-06,97.654,0.4860000014305115,-2.5420492125678376
97.758621,,5.40938439480126e-06,98.117,0.4880000054836273,-2.537710622818138
98.224138,,6.862292911829796e-06,98.582,0.4749999940395355,-2.566025702087554
98.689655,,8.353502007171204e-06,99.046,0.49900001287460327,-2.5137048138504907
99.155172,,9.879351410510173e-06,99.511,0.44999998807907104,-2.620400774631955
99.62069,,1.1435899327484849e-05,99.976,0.47600001096725464,-2.5636758816691527
100.086207,,1.3018924330461364e-05,100.441,0.48500001430511475,-2.5439680822505797
100.551724,,1.4623928327533648e-05,100.905,0.4749999940395355,-2.565636898959989
101.017241,,1.6246140645721703e-05,101.371,0.4880000054836273,-2.53718226786071
101.482759,,1.7880523261923037e-05,101.836,0.4749999940395355,-2.56536184612386
101.948276,,1.9521777212529437e-05,102.301,0.4779999852180481,-2.558676593762993
102.413793,,2.11643502097543e-05,102.765,0.4569999873638153,-2.604277268661667
102.87931,,2.2802445489625007e-05,103.234,0.4650000035762787,-2.5867003501841226
103.344828,,2.4430031913281566e-05,103.695,0.4749999940395355,-2.5647735541342214
103.810345,,2.6040855339689262e-05,104.165,0.4880000054836273,-2.5363213206958526
104.275862,,2.7628451284122383e-05,104.628,0.4869999885559082,-2.5383837966656273
104.741379,,2.9186158872811965e-05,105.09,0.44699999690055847,-2.6254309286878295
105.206897,,3.0707136099978255e-05,105.556,0.4869999885559082,-2.538207116801218
105.672414,,3.218437638909397e-05,106.02,0.5009999871253967,-2.5076503114373616
106.13793100000001,,3.361072645565401e-05,106.486,0.47699999809265137,-2.5599050472262097
106.603448,,3.497890546396934e-05,106.95,0.4880000054836273,-2.535931362164909
107.068966,,3.628152546556551e-05,107.416,0.47999998927116394,-2.553376851865951
107.534483,,3.7511113101660565e-05,107.883,0.48100000619888306,-2.55123891109275
108.0,,3.866013254693269e-05,108.349,0.4860000014305115,-2.5404098656001337
108.46551699999999,,3.972100966637757e-05,108.816,0.4880000054836273,-2.5361382370675667
108.931034,,4.06861573515119e-05,109.275,0.4659999907016754,-2.584173651875885
109.396552,,4.154800199651646e-05,109.743,0.4880000054836273,-2.536365369133914
109.862069,,4.229901106914488e-05,110.206,0.47999998927116394,-2.5539299468490184
110.32758600000001,,4.293172172536916e-05,110.676,0.4729999899864197,-2.5693254269635823
110.793103,,4.3438770410806344e-05,111.138,0.48500001430511475,-2.543332260872013
111.258621,,4.3812923385991306e-05,111.604,0.4729999899864197,-2.5696282069822525
111.724138,,4.404710810654698e-05,112.068,0.492000013589859,-2.5283829274519705
112.189655,,4.4134445383275665e-05,112.534,0.4819999933242798,-2.5503110512196208
112.655172,,4.4068282241174055e-05,112.998,0.4830000102519989,-2.548262404216678
113.12069,,4.384222539038232e-05,113.464,0.4740000069141388,-2.567985347338433
113.586207,,4.3450175216136195e-05,113.928,0.47600001096725464,-2.563725149516268
114.051724,,4.2886360188924296e-05,114.393,0.4699999988079071,-2.5768735628820636
114.51724100000001,,4.2145371590284513e-05,114.858,0.49000000953674316,-2.5333539486327297
114.982759,,4.12221984440286e-05,115.324,0.4880000054836273,-2.5377392893874418
115.448276,,4.011226253718808e-05,115.787,0.47999998927116394,-2.55517009156252
115.913793,,3.8811453409653706e-05,116.257,0.47999998927116394,-2.5551453451105712
116.37931,,3.7316163186360786e-05,116.717,0.5049999952316284,-2.500628270287137
116.84482799999999,,3.562332112098155e-05,117.186,0.4480000138282776,-2.6247357585706816
117.310345,,3.3730427715449976e-05,117.65,0.49000000953674316,-2.5331352736027912
117.77586199999999,,3.163558827529197e-05,118.113,0.4729999899864197,-2.570055822143193
118.241379,,2.9337545756692318e-05,118.578,0.48899999260902405,-2.535064325568702
118.70689700000001,,2.6835712757526865e-05,119.042,0.47600001096725464,-2.56324068558549
119.172414,,2.4130202501252336e-05,119.508,0.47999998927116394,-2.5543713373826464
119.63793100000001,,2.122185865960433e-05,119.972,0.49000000953674316,-2.532425493105411
120.103448,,1.8112283857533855e-05,120.438,0.49000000953674316,-2.5322657320215303
120.568966,,1.4803866701741966e-05,120.905,0.492000013589859,-2.527752552060044
121.034483,,1.1299807172576733e-05,121.371,0.4699999988079071,-2.5755357305995283
121.5,,7.6041402179638086e-06,121.836,0.47600001096725464,-2.56233038622115
121.96551699999999,,3.721757387476355e-06,122.302,0.4790000021457672,-2.555678816647446
122.431034,,3.415736553628701e-07,122.765,0.4740000069141388,-2.566477503801834
122.896552,,4.579191903891079e-06,123.226,0.4790000021457672,-2.555513701520428
123.362069,,8.983528222407812e-06,123.695,0.47099998593330383,-2.572898577466562
123.827586,,1.3546093161967526e-05,124.157,0.47699999809265137,-2.5598100360858367
124.293103,,1.825746753383461e-05,124.625,0.47999998927116394,-2.553285719593569
124.758621,,2.3107295893487288e-05,125.087,0.4790000021457672,-2.555503793218005
125.22413800000001,,2.808428308429289e-05,125.553,0.47999998927116394,-2.5533914405778013
125.68965500000002,,3.317619398551901e-05,126.02,0.4819999933242798,-2.5491253995668126
126.15517200000001,,3.8369856604179026e-05,126.486,0.48399999737739563,-2.5448817370866768
126.62069000000001,,4.365116864432391e-05,126.951,0.49799999594688416,-2.514513161098754
127.086207,,4.9005107680775344e-05,127.416,0.47200000286102295,-2.571305643856083
127.55172400000001,,5.441574505693978e-05,127.876,0.4790000021457672,-2.5562142829222156
128.017241,,5.986626361824323e-05,128.341,0.47200000286102295,-2.571631446962782
128.48275900000002,,6.53389793838793e-05,128.814,0.492000013589859,-2.528227520213568
128.948276,,7.081536724996775e-05,129.272,0.46700000762939453,-2.5828603132459818
129.413793,,7.627609080687844e-05,129.735,0.47699999809265137,-2.561233427190252
129.87931,,8.170103634239152e-05,130.205,0.46299999952316284,-2.591882839787336
130.344828,,8.706935109054614e-05,130.665,0.4729999899864197,-2.570229202308968
130.81034499999998,,9.235948577348722e-05,131.135,0.4690000116825104,-2.579057061789567
131.275862,,9.754924147036598e-05,131.6,0.4779999852180481,-2.5595393716799744
131.741379,,0.00010261582083340151,132.064,0.48399999737739563,-2.54653110220661
132.206897,,0.00010753588365658807,132.529,0.4690000116825104,-2.5792457942094935
132.67241399999997,,0.0001122856067872578,132.994,0.47099998593330383,-2.5748939848284573
133.13793099999998,,0.00011684074835480777,133.46,0.4779999852180481,-2.5596189442016217
133.60344800000001,,0.00012117671627440344,133.925,0.4729999899864197,-2.570457951986094
134.06896600000002,,0.00012526864096641053,134.39,0.4880000054836273,-2.537695271939124
134.53448300000002,,0.00012909145221471984,134.85,0.5720000267028809,-2.354577200930628
135.0,,0.00013261996006905534,135.316,0.4830000102519989,-2.5483382554524825
135.465517,,0.0001358289396778374,135.78,0.5090000033378601,-2.4915326319726594
135.931034,,0.00013869321991925762,136.249,0.49000000953674316,-2.5327500167114763
136.396552,,0.0001411877756789589,136.71,0.47999998927116394,-2.5543491738436446
136.862069,,0.00014328782360315648,137.18,0.47200000286102295,-2.571587088707456
137.327586,,0.00014496892113624347,137.643,0.47600001096725464,-2.5626836032216227
137.793103,,0.0001462070686319522,138.105,0.4650000035762787,-2.586468251462249
138.258621,,0.00014697881430705966,138.571,0.46700000762939453,-2.5819446223172107
138.724138,,0.00014726136178649249,139.042,0.4729999899864197,-2.5687257404902533
139.189655,,0.0001470326799685784,139.5,0.48500001430511475,-2.542458180831713
139.655172,,0.00014627161491917513,139.967,0.5099999904632568,-2.4878943647938074
140.12069,,0.00014495800348356298,140.432,0.48399999737739563,-2.5444700406512912
140.586207,,0.00014307278828538852,140.899,0.47099998593330383,-2.5727547417050296
141.05172399999998,,0.00014059813376267658,141.365,0.4880000054836273,-2.5357132818571775
141.51724099999998,,0.00013751754287206642,141.831,0.4860000014305115,-2.540099534048664
141.982759,,0.00013381597407406115,142.29,0.4819999933242798,-2.548875543701973
142.44827600000002,,0.00012947995819429336,142.757,0.49000000953674316,-2.531538513483236
142.913793,,0.00012449771473869263,143.22,0.46700000762939453,-2.5817680414763617
143.37931,,0.00011885926722408091,143.691,0.4790000021457672,-2.5557702422711253
143.844828,,0.00011255655707021084,144.153,0.4860000014305115,-2.5406866278841442
144.310345,,0.00010558355558469045,144.617,0.48500001430511475,-2.543047703999623
144.77586200000002,,9.793637355869841e-05,145.086,0.47699999809265137,-2.5606695223790066
145.241379,,8.96133679789779e-05,145.545,0.47600001096725464,-2.5630454223785706
145.706897,,8.061524535039706e-05,146.011,0.47200000286102295,-2.5719563066604305
146.172414,,7.094516111347165e-05,146.477,0.4650000035762787,-2.5873964328996664
146.637931,,6.060881463275147e-05,146.946,0.48399999737739563,-2.546179160701386
147.103448,,4.9614539224966324e-05,147.411,0.4790000021457672,-2.5572309277785896
147.568966,,3.7973386690398144e-05,147.876,0.5,-2.5116137795207525
148.034483,,2.569920580717961e-05,148.341,0.4790000021457672,-2.557471287103966
148.5,,1.2808714246201122e-05,148.802,0.4860000014305115,-2.542294896977134
148.965517,,6.784366358821598e-07,149.265,0.45500001311302185,-2.6098737130773393
149.43103399999998,,1.4739604666333699e-05,149.735,0.492000013589859,-2.529269880121737
149.89655199999999,,2.9349107925799814e-05,150.198,0.4490000009536743,-2.6229230924757037
150.362069,,4.44781845488914e-05,150.661,0.4740000069141388,-2.5683942890556355
150.82758600000003,,6.0094961779345324e-05,151.131,0.4830000102519989,-2.548691406065429
151.293103,,7.616443479317068e-05,151.597,0.4880000054836273,-2.5376724025409447
151.758621,,9.264845579088813e-05,152.059,0.47600001096725464,-2.563663144239329
152.224138,,0.0001095057338453831,152.525,0.4830000102519989,-2.548236983608853
152.68965500000002,,0.00012669184597496874,152.991,0.4869999885559082,-2.539329315466206
153.155172,,0.00014415925989195582,153.457,0.47999998927116394,-2.5543748608911963
153.62069,,0.00016185736885531988,153.916,0.49000000953674316,-2.5323776349729803
154.086207,,0.0001797325390319176,154.382,0.49399998784065247,-2.5234528049502383
154.551724,,0.00019772816974411556,154.846,0.46799999475479126,-2.5798944199549707
155.017241,,0.0002157847669526492,155.312,0.48500001430511475,-2.542668016636781
155.482759,,0.00023384003029202518,155.776,0.47600001096725464,-2.5621064212887457
155.948276,,0.0002518289539418269,156.245,0.4819999933242798,-2.5488902639260873
156.413793,,0.0002696839415808943,156.706,0.4970000088214874,-2.5160956259599407
156.87931,,0.0002873349356325563,157.175,0.4650000035762787,-2.585730669446861
157.34482799999998,,0.0003047095609679322,157.636,0.4869999885559082,-2.5377550817710577
157.81034499999998,,0.0003217332831908365,158.105,0.49000000953674316,-2.531211553317191
158.275862,,0.0003383295815820712,158.57,0.4950000047683716,-2.520348496403037
158.741379,,0.0003544201367329489,159.034,0.4790000021457672,-2.5552742296639086
159.20689700000003,,0.00036992503284782576,159.5,0.49000000953674316,-2.531412131400276
159.672414,,0.0003847629746433369,159.965,0.4740000069141388,-2.5664066455505714
160.137931,,0.0003988515187180106,160.43,0.49300000071525574,-2.525177658194791
160.60344800000001,,0.00041210731921011195,160.89,0.47200000286102295,-2.5711190013304477
161.06896600000002,,0.0004244463875040497,161.356,0.47200000286102295,-2.571327915997497
161.534483,,0.0004357843656866084,161.82,0.4699999988079071,-2.5759075085354333
162.0,,0.0004460368133937893,162.286,0.48399999737739563,-2.545635141577114
162.465517,,0.00045511950762731803,162.754,0.49399998784065247,-2.52407612709086
162.931034,,0.0004629487550570756,163.216,0.492000013589859,-2.528651924676545
163.396552,,0.000469441716262005,163.684,0.4790000021457672,-2.5571773665677235
163.862069,,0.0004745167412976396,164.147,0.49900001287460327,-2.5137855392054216
164.327586,,0.00047809371591349045,164.617,0.47999998927116394,-2.555333425032015
164.793103,,0.0004800944176783353,165.079,0.48500001430511475,-2.544561267756889
165.258621,,0.0004804428812061893,165.545,0.4779999852180481,-2.55989700900333
165.72413799999998,,0.0004790657716106484,166.01,0.4740000069141388,-2.5686580438786293
166.189655,,0.00047589276525061955,166.476,0.49000000953674316,-2.5338057433517958
166.655172,,0.00047085693676644254,166.935,0.48500001430511475,-2.5446637434412303
167.12069,,0.0004638951513423261,167.4,0.4790000021457672,-2.557659862799698
167.58620699999997,,0.00045494846106913615,167.865,0.4779999852180481,-2.5597245329606393
168.051724,,0.0004439625042211631,168.331,0.47200000286102295,-2.572647622546047
168.517241,,0.00043088790620184037,168.802,0.5139999985694885,-2.480964583521144
168.98275900000002,,0.00041568068085677984,169.265,0.4860000014305115,-2.5417602984322243
169.44827600000002,,0.0003983026307982259,169.728,0.46799999475479126,-2.5807496214990135
169.913793,,0.0003787217453334035,170.19,0.49000000953674316,-2.532580623613268
170.37931,,0.0003569125945405453,170.661,0.4869999885559082,-2.538872451966848
170.844828,,0.0003328567179909404,171.124,0.4659999907016754,-2.5843820022527595
171.310345,,0.00030654300657346697,171.589,0.48500001430511475,-2.5427555727187188
171.775862,,0.0002779680758400538,172.052,0.49900001287460327,-2.51203909865402
172.241379,,0.0002471366292566457,172.518,0.47999998927116394,-2.5532409698020815
172.706897,,0.0002140618097148243,172.984,0.48899999260902405,-2.533469859168828
173.172414,,0.00017876553763458898,173.449,0.4970000088214874,-2.5159117529307418
173.637931,,0.00014127883396927588,173.91,0.4659999907016754,-2.583359788412562
174.103448,,0.00010164212640944055,174.375,0.45899999141693115,-2.5985631837130083
174.568966,,5.990553707391484e-05,174.842,0.48100000619888306,-2.550630902624957
175.034483,,1.612914997342103e-05,175.308,0.4740000069141388,-2.565924455299881
175.5,,2.9616743464422197e-05,175.776,0.4779999852180481,-2.5572966151203875
175.96551699999998,,7.72514225096495e-05,176.238,0.4970000088214874,-2.5160298469739963
176.43103399999998,,0.00012668354056806345,176.706,0.4970000088214874,-2.516193897609778
176.896552,,0.00017781095560374038,177.168,0.4950000047683716,-2.520746553830445
177.36206900000002,,0.00023052058917709338,177.636,0.5120000243186951,-2.4839301006419023
177.827586,,0.00028468831569186274,178.098,0.4790000021457672,-2.556064941587055
178.293103,,0.0003401788833971787,178.563,0.4729999899864197,-2.5693888599003802
178.758621,,0.00039684586863615145,179.028,0.47999998927116394,-2.554396078324613
179.224138,,0.0004545316647741521,179.494,0.4860000014305115,-2.5415796000787974
179.68965500000002,,0.000513067507176778,179.961,0.4749999940395355,-2.565789915400826
180.155172,,0.0005722735355302161,180.42,0.48100000619888306,-2.5529454835409853
180.62069,,0.000631958894700388,180.891,0.5410000085830688,-2.4224281146273734
181.086207,,0.0006919218752267526,181.35,0.4690000116825104,-2.57945920638018
181.551724,,0.0007519500944639147,181.816,0.47600001096725464,-2.564339908251746
182.01724099999998,,0.0008118207193061229,182.282,0.47699999809265137,-2.5622522825234255
182.482759,,0.0008713007313007907,182.75,0.47600001096725464,-2.5644784689387032
182.948276,,0.0009301472347601078,183.212,0.492000013589859,-2.529622180729468
183.413793,,0.0009881078083153038,183.676,0.4779999852180481,-2.560079271545466
183.87931,,0.0010449209003421888,184.146,0.4729999899864197,-2.570883612137845
184.34482799999998,,0.001100316268705093,184.612,0.45899999141693115,-2.6012540529569854
184.81034499999998,,0.0011540154649901469,185.075,0.4909999966621399,-2.531368522278788
185.27586200000002,,0.0012057323628006354,185.541,0.4819999933242798,-2.5507735557482762
185.74137900000002,,0.0012551737294224775,186.006,0.49000000953674316,-2.53311288356826
186.206897,,0.0013020398408166063,186.472,0.5299999713897705,-2.4457128344443846
186.672414,,0.001346025140572535,186.931,0.47999998927116394,-2.554375229636389
187.137931,,0.0013868189422665677,187.397,0.4779999852180481,-2.558455962882307
187.60344800000001,,0.0014241061719156272,187.862,0.492000013589859,-2.5276808821944114
188.06896600000002,,0.0014575681470502457,188.328,0.4959999918937683,-2.5187029123309967
188.534483,,0.001486883394026259,188.79,0.49000000953674316,-2.531529738851737
189.0,,0.0015117285091653142,189.26,0.49000000953674316,-2.531310945043418
189.465517,,0.0015317790615571075,189.721,0.47999998927116394,-2.552912189079505
189.931034,,0.0015467105205525687,190.19,0.4779999852180481,-2.557124110688842
190.39655199999999,,0.001556199194663897,190.654,0.4790000021457672,-2.554844993859124
190.862069,,0.0015599232015107971,191.116,0.4749999940395355,-2.5635076508508843
191.327586,,0.0015575635066763303,191.582,0.4880000054836273,-2.535183549439214
191.793103,,0.001548805015717705,192.046,0.4690000116825104,-2.5766269123223773
192.25862099999998,,0.0015333376228807494,192.511,0.4790000021457672,-2.554939282123045
192.72413799999998,,0.0015108571655014058,192.976,0.5249999761581421,-2.4548665224221766
193.189655,,0.001481066434813913,193.442,0.49000000953674316,-2.5313050292677572
193.655172,,0.0014436764609547792,193.91,0.47600001096725464,-2.56202809847483
194.12069000000002,,0.0013984079282157026,194.375,0.5299999713897705,-2.4446328874190844
194.586207,,0.001344992149733578,194.835,0.4830000102519989,-2.5473025184998295
195.051724,,0.0012831714337379909,195.301,0.47999998927116394,-2.5541258208853272
195.517241,,0.0012126998722721387,195.769,0.4749999940395355,-2.5653129404993247
195.98275900000002,,0.0011333457107013574,196.232,0.4959999918937683,-2.5198527188915056
196.448276,,0.0010448940926099009,196.702,0.4779999852180481,-2.5593480856331867
196.913793,,0.0009471468269318316,197.164,0.47600001096725464,-2.5639649418964336
197.37931,,0.0008399189710622767,197.632,0.47600001096725464,-2.5641968173862466
197.844828,,0.0007230389500569828,198.094,0.4790000021457672,-2.5578576685381673
198.310345,,0.0005963579861180546,198.56,0.4860000014305115,-2.542762218727898
198.775862,,0.00045975961554009477,199.024,0.48399999737739563,-2.5472275148209795
199.241379,,0.00031315005226319176,199.49,0.4959999918937683,-2.5211405980306947
199.706897,,0.00015643300352981428,199.957,0.4819999933242798,-2.5516450690633747
200.172414,,1.0488632954083698e-05,200.415,0.47600001096725464,-2.5646666739743322
200.63793099999998,,0.00018765776932456362,200.88,0.48399999737739563,-2.547135024883376
201.103448,,0.00037502100563104236,201.345,0.5040000081062317,-2.5034094081742397
201.568966,,0.0005725065156474424,201.817,0.49000000953674316,-2.533711363161331
202.034483,,0.0007801713235651381,202.275,0.47600001096725464,-2.5639729302747924
202.5,,0.0009981573185087493,202.746,0.46399998664855957,-2.5898448993242544
202.965517,,0.001226352177028473,203.209,0.4880000054836273,-2.5372613663382717
203.431034,,0.0014642083469395264,203.676,0.4819999933242798,-2.5500216218774225
203.896552,,0.001711295076934065,204.138,0.4860000014305115,-2.5409886753143134
204.36206900000002,,0.0019681103610311164,204.604,0.48899999260902405,-2.534137331035859
204.827586,,0.002235593080079826,205.068,0.47999998927116394,-2.5534423363147054
205.293103,,0.0025130640524273257,205.533,0.4909999966621399,-2.5291963548161287
205.758621,,0.0027975867689222634,205.999,0.47999998927116394,-2.5529114574012026
206.224138,,0.0030876913631147198,206.465,0.4860000014305115,-2.539628263156833
206.689655,,0.003387660071022135,206.931,0.4779999852180481,-2.5568919344883483
207.155172,,0.0037032888858596997,207.39,0.4880000054836273,-2.5349910095999237
207.62069,,0.004029695511826966,207.861,0.3490000069141388,-2.8377663294401474
208.086207,,0.004350310040374648,208.327,0.4779999852180481,-2.5567258892244653
208.551724,,0.004661140992350633,208.787,0.4399999976158142,-2.6395805597105846
209.01724099999998,,0.0049922089612232405,209.25,0.4880000054836273,-2.535128415062199
209.482759,,0.00537474858449313,209.717,0.48500001430511475,-2.5418397044440773
209.948276,,0.005770974985547225,210.18,0.46700000762939453,-2.5812773671311176
210.413793,,0.00608550288274555,210.65,0.47600001096725464,-2.56193193071798
210.87930999999998,,0.006318875521755086,211.113,0.46299999952316284,-2.5905495327166945
211.344828,,0.00666654571918476,211.578,0.48899999260902405,-2.534223351890392
211.810345,,0.007282098906424946,212.042,0.4790000021457672,-2.5563417550681127
212.27586200000002,,0.007884785652777702,212.509,0.47699999809265137,-2.5610339875201675
212.741379,,0.007933597858370882,212.976,0.4830000102519989,-2.54828985091949
213.206897,,0.007575297162292783,213.441,0.45399999618530273,-2.6117816294027074
213.672414,,0.008049039177853184,213.906,0.4580000042915344,-2.6033523751255236
214.137931,,0.01005942036337468,214.372,0.4880000054836273,-2.538243670418404
214.60344800000001,,0.011557381749033618,214.831,0.4909999966621399,-2.5319148407606047
215.068966,,0.008904131326163188,215.297,0.45100000500679016,-2.6192177850793468
215.534483,,0.001682749806012314,215.765,0.503000020980835,-2.5060303759312212
216.0,,0.00535134635986177,216.227,0.4880000054836273,-2.5387537118757204
216.465517,,0.007473258527589398,216.695,0.48399999737739563,-2.547451257725277
216.93103399999998,,0.0056993779077035844,217.158,0.44600000977516174,-2.630163760823584
217.39655199999999,,0.004553662781822927,217.62,0.47999998927116394,-2.555957616776095
217.862069,,0.0055425320610425705,218.09,0.492000013589859,-2.5296288419411033
218.327586,,0.006205806857806764,218.556,0.49000000953674316,-2.5337529284868325
218.793103,,0.005035546883927972,219.021,0.4790000021457672,-2.5574437289353056
219.25862099999998,,0.0038251130799583323,219.487,0.47999998927116394,-2.554958447688454
219.724138,,0.004338864910771999,219.946,0.48100000619888306,-2.552450376908556
220.18965500000002,,0.005339948593811073,220.412,0.48399999737739563,-2.5455723816928706
220.65517200000002,,0.004744844794427221,220.876,0.492000013589859,-2.5277986979747165
221.12069,,0.003291117967688032,221.342,0.4880000054836273,-2.5361768747974667
221.586207,,0.0038789338844949202,221.805,0.49000000953674316,-2.5315015896110427
222.051724,,0.007458921334804078,222.275,0.47600001096725464,-2.561713371905988
222.517241,,0.011483369685486432,222.735,0.4959999918937683,-2.517889009164635
222.98275900000002,,0.013058663051357939,223.205,0.4740000069141388,-2.5656136013824935
223.448276,,0.012195571413970556,223.668,0.48100000619888306,-2.5502100361253515
223.913793,,0.010889553731085359,224.131,0.4740000069141388,-2.5653654092020037
224.37931,,0.009991379714184822,224.596,0.4959999918937683,-2.5174007000734795
224.844828,,0.008363925849650771,225.067,0.49000000953674316,-2.5304994876019387
225.31034499999998,,0.004864462153507444,225.525,0.48399999737739563,-2.5436590179912324
225.775862,,8.450847010572172e-05,225.991,0.47200000286102295,-2.569949131804226
226.241379,,0.0040074579163771095,226.457,0.492000013589859,-2.526577023773803
226.706897,,0.005641097030432763,226.924,0.49000000953674316,-2.531183244501546
227.172414,,0.004546082829613884,227.39,0.48100000619888306,-2.551080317233415
227.63793099999998,,0.00214362291896417,227.854,0.47699999809265137,-2.5601160679574306
228.103448,,0.00039515706988634393,228.32,0.5009999871253967,-2.508171561045352
228.56896600000002,,0.00020646988488316753,228.783,0.4749999940395355,-2.565170472688587
229.03448300000002,,0.0010277566255357583,229.246,0.5059999823570251,-2.4979864061233714
229.5,,0.0018071816157398735,229.716,0.4880000054836273,-2.537544750234275
229.965517,,0.001772940626431468,230.179,0.48899999260902405,-2.5356869414812495
230.431034,,0.0005695592405074528,230.643,0.47600001096725464,-2.5642988143779086
230.896552,,0.001356531447608501,231.105,0.49300000071525574,-2.527511034460358
231.362069,,0.0025009637159835816,231.571,0.47999998927116394,-2.5560345097447943
231.827586,,0.0014500144204845893,232.042,0.48500001430511475,-2.545287697339803
232.293103,,0.0014255943072833217,232.5,0.47699999809265137,-2.5628043883885288
232.758621,,0.004048331550380967,232.967,0.47999998927116394,-2.556294135492537
233.224138,,0.0046482538929004825,233.432,0.49000000953674316,-2.5344703179991015
233.689655,,0.003415047774121218,233.898,0.47200000286102295,-2.573586602181532
234.155172,,0.002062295357544551,234.364,0.4860000014305115,-2.5429270215559105
234.62069,,0.0018764579507952702,234.831,0.5009999871253967,-2.510033936238932
235.086207,,0.0022422128324811126,235.29,0.48500001430511475,-2.5446298599100756
235.55172399999998,,0.0012194737072640208,235.761,0.4959999918937683,-2.5203613854520506
236.01724099999998,,0.002225984097600288,236.223,0.48100000619888306,-2.552706153786651
236.482759,,0.00668999576607379,236.691,0.47600001096725464,-2.563243613238992
236.94827600000002,,0.009413839581722035,237.153,0.4909999966621399,-2.53019843024869
237.413793,,0.00901141810966958,237.617,0.4729999899864197,-2.5690501080791637
237.87931,,0.0069231648369372815,238.087,0.4729999899864197,-2.5686992023567052
238.344828,,0.006120354149943762,238.545,0.49000000953674316,-2.531335244185363
238.810345,,0.00838386648096389,239.016,0.47699999809265137,-2.5593646369551375
239.27586200000002,,0.01264427722000502,239.475,0.4880000054836273,-2.535149333880868
239.741379,,0.015944234504144266,239.94,0.48500001430511475,-2.5414857937520456
240.206897,,0.016225337207404152,240.405,0.4790000021457672,-2.5544152681150893
240.672414,,0.013957430800763903,240.872,0.4790000021457672,-2.5543347096014237
241.137931,,0.01073253219718813,241.338,0.4880000054836273,-2.5347108202940407
241.603448,,0.007022090355523719,241.805,0.47999998927116394,-2.5521890429644327
242.068966,,0.002436761986800111,242.268,0.4790000021457672,-2.5544805345296373
242.534483,,0.0024021145940928126,242.736,0.48500001430511475,-2.541582150940329
243.0,,0.00609341351562173,243.198,0.4880000054836273,-2.535274995734246
243.465517,,0.008732639326438342,243.666,0.48399999737739563,-2.54426657884278
243.93103399999998,,0.012112449691305174,244.128,0.49000000953674316,-2.5315114091500868
244.39655199999999,,0.016875163646036247,244.594,0.49900001287460327,-2.5122501378443314
244.862069,,0.02102085994845241,245.057,0.46000000834465027,-2.59758357904305
245.327586,,0.022310218272129114,245.523,0.4959999918937683,-2.519527296491593
245.793103,,0.0208129452987624,245.991,0.4729999899864197,-2.57000851508647
246.258621,,0.017833311290513427,246.456,0.5049999952316284,-2.5006493395329468
246.724138,,0.013599367570501016,246.92,0.4880000054836273,-2.53801777954073
247.18965500000002,,0.0077960529844011296,247.386,0.492000013589859,-2.529598088121555
247.655172,,0.0018489888208729059,247.851,0.48399999737739563,-2.5472768869513875
248.12069,,0.001108080996977598,248.316,0.4129999876022339,-2.702158974513545
248.586207,,0.0007833706934182044,248.78,0.47999998927116394,-2.556331121025903
249.051724,,0.005580675934098511,249.242,0.4959999918937683,-2.5215519397409887
249.517241,,0.008589989875798652,249.705,0.47999998927116394,-2.5564227870736027
249.982759,,0.006462693285932269,250.176,0.4819999933242798,-2.552010720947655
250.44827600000002,,0.00041677215123414726,250.639,0.47200000286102295,-2.573676991232798
250.913793,,0.004896761156943595,251.102,0.4729999899864197,-2.5713164214051614
251.37931000000003,,0.005859652305231234,251.567,0.4880000054836273,-2.538398105633846
251.844828,,0.0029851496914187065,252.031,0.4650000035762787,-2.588218797947725
252.31034499999998,,0.00030263840252637067,252.497,0.492000013589859,-2.529065981071531
252.77586200000002,,0.001155055731312954,252.964,0.4860000014305115,-2.541777055809608
253.241379,,0.0008318906856329818,253.43,0.45100000500679016,-2.6176486533026915
253.706897,,0.004184917035818659,253.895,0.47699999809265137,-2.560614947227117
254.172414,,0.006732526958679151,254.36,0.515999972820282,-2.4752619571433536
254.63793099999998,,0.006727716349289727,254.821,0.4779999852180481,-2.5576786134712974
255.10344800000001,,0.004267086872868964,255.287,0.4779999852180481,-2.5573325845209927
255.56896600000002,,0.0015885606044584682,255.75,0.47600001096725464,-2.561381315049355
256.03448299999997,,0.0008268960172400227,256.22,0.49000000953674316,-2.530618758075058
256.5,,0.0015115605657479384,256.68,0.4169999957084656,-2.689454943422652
256.965517,,0.0012373992009591097,257.15,0.41600000858306885,-2.6914936373034437
257.431034,,0.0013400713065290883,257.62,0.48899999260902405,-2.5323822228587307
257.896552,,0.005198691657331001,258.076,0.4729999899864197,-2.56724032688185
258.362069,,0.008663668585729214,258.541,0.4880000054836273,-2.534629131546392
258.827586,,0.011273656960892952,259.006,0.47699999809265137,-2.5587297244714633
259.29310300000003,,0.013249528322747367,259.471,0.47999998927116394,-2.552392172918212
259.758621,,0.013984493276087251,259.939,0.47600001096725464,-2.5613622919438614
260.224138,,0.01237398911420819,260.404,0.4909999966621399,-2.5289874825625276
260.689655,,0.00853065447087079,260.868,0.49000000953674316,-2.5315106685599655
261.155172,,0.004135912355774798,261.334,0.4749999940395355,-2.564564300979769
261.62068999999997,,0.0010026106430650913,261.795,0.48399999737739563,-2.545348706017613
262.086207,,0.0002046967752159177,262.264,0.47699999809265137,-2.5609980796782024
262.551724,,0.00017234377421305167,262.725,0.47600001096725464,-2.563570094466277
263.017241,,0.0004279203240562608,263.194,0.4909999966621399,-2.531266240068638
263.482759,,0.002237243115664801,263.662,0.49000000953674316,-2.5337911639991915
263.94827599999996,,0.005364703503439026,264.124,0.4790000021457672,-2.558062436103402
264.413793,,0.008008247709348076,264.591,0.4779999852180481,-2.5604981081514198
264.87931,,0.008471415315035372,265.053,0.4819999933242798,-2.551983604675894
265.34482799999995,,0.0070901765332742625,265.518,0.4880000054836273,-2.539048469186081
265.810345,,0.006110916983070822,265.984,0.49000000953674316,-2.534759994235212
266.27586199999996,,0.007262518402239569,266.45,0.5669999718666077,-2.367001116612014
266.741379,,0.009764126804048812,266.917,0.4740000069141388,-2.5695394910923595
267.206897,,0.011174268882928799,267.375,0.4830000102519989,-2.5497869463040534
267.672414,,0.009863070195110854,267.842,0.49000000953674316,-2.5343286681852186
268.137931,,0.00638695648432898,268.308,0.4790000021457672,-2.558029197690193
268.603448,,0.003081317613892207,268.776,0.4880000054836273,-2.5381080407015073
269.06896600000005,,0.0024283372283191527,269.238,0.4779999852180481,-2.5595422283064213
269.53448299999997,,0.004790716628617435,269.702,0.492000013589859,-2.5286603911743613
270.0,,0.007613561431149679,270.172,0.49000000953674316,-2.5326199945780035
270.465517,,0.008064273006600764,270.632,0.48899999260902405,-2.534395928986573
270.931034,,0.00648322846089745,271.101,0.47999998927116394,-2.5536085208237096
271.396552,,0.005709283184066051,271.56,0.47600001096725464,-2.5619478031480116
271.86206899999996,,0.006792758712080556,272.031,0.4880000054836273,-2.5354602869019893
272.327586,,0.007241973653100547,272.497,0.4860000014305115,-2.539515518786209
272.793103,,0.0046383709320963395,272.955,0.47999998927116394,-2.552336181479327
273.258621,,0.0006692076835079206,273.42,0.49000000953674316,-2.530356915102799
273.724138,,0.0002849514401619047,273.888,0.47600001096725464,-2.560729649970621
274.18965499999996,,0.003462778635177302,274.354,0.48899999260902405,-2.532347252637498
274.655172,,0.008407064228904264,274.821,0.4729999899864197,-2.567215870197898
275.12069,,0.009448366820461527,275.287,0.48100000619888306,-2.549866936202788
275.586207,,0.00534651938772256,275.75,0.4779999852180481,-2.556550848560957
276.051724,,0.00014764345983992312,276.213,0.42399999499320984,-2.6744098209949665
276.517241,,0.0026155083031255866,276.68,0.48399999737739563,-2.543961194273501
276.98275900000004,,0.001869450650853221,277.143,0.4970000088214874,-2.515957571412808
277.448276,,0.001811504445834125,277.609,0.4860000014305115,-2.540278772214202
277.913793,,0.005400956160518337,278.074,0.4880000054836273,-2.5363038278556083
278.37931,,0.01088726864932597,278.539,0.5009999871253967,-2.5083782181456913
278.844828,,0.013776521495855286,279.006,0.49000000953674316,-2.5327420316718605
279.31034500000004,,0.011673891168161749,279.465,0.49000000953674316,-2.533130663727999
279.77586199999996,,0.006300968733437645,279.931,0.47600001096725464,-2.5639989276395556
280.241379,,0.0014628117248726348,280.397,0.492000013589859,-2.5294753357327857
280.706897,,0.0001240327466439284,280.861,0.4860000014305115,-2.5428393244249166
281.172414,,0.003017252034059391,281.327,0.47699999809265137,-2.5626877954976646
281.637931,,0.008475119419806146,281.79,0.5170000195503235,-2.4757234408786597
282.10344799999996,,0.01285363114105919,282.259,0.4909999966621399,-2.5324848440794554
282.568966,,0.012339028873755868,282.72,0.4880000054836273,-2.5390689815251113
283.034483,,0.0061821508844310605,283.191,0.48899999260902405,-2.5368696417428063
283.5,,0.001701004673593664,283.654,0.47600001096725464,-2.5651035248156204
283.965517,,0.005793135036594289,284.116,0.47600001096725464,-2.564950603134846
284.431034,,0.004251305976753762,284.582,0.48500001430511475,-2.5451303633823428
284.89655200000004,,0.0001560335926469031,285.046,0.48899999260902405,-2.5361501848774233
285.362069,,0.0027829859939189515,285.511,0.47999998927116394,-2.555447250004976
285.827586,,0.004108201365885044,285.976,0.4860000014305115,-2.542029115824794
286.293103,,0.005159822742473492,286.442,0.4860000014305115,-2.5416580450266055
286.758621,,0.005629692898071088,286.909,0.47600001096725464,-2.5630600080255324
287.22413800000004,,0.0039475399530432154,287.375,0.5009999871253967,-2.508207506268787
287.689655,,0.00042845365469653784,287.839,0.48500001430511475,-2.542688987155504
288.155172,,0.0022863960893523684,288.305,0.48399999737739563,-2.544511877545361
288.62069,,0.002161189000732798,288.765,0.47600001096725464,-2.561617546425752
289.086207,,0.00028872968897219293,289.235,0.4749999940395355,-2.563515117599197
289.55172400000004,,0.0030836033422623602,289.698,0.48399999737739563,-2.5436769632058445
290.01724099999996,,0.0046918533995481395,290.161,0.47999998927116394,-2.5522186691582336
290.482759,,0.00469428740302347,290.629,0.4690000116825104,-2.576073489620761
290.948276,,0.0034405905254197744,291.09,0.47099998593330383,-2.571672182481194
291.413793,,0.0015851330616648708,291.556,0.47999998927116394,-2.5520875154140783
291.87931,,0.00025562923274144293,292.023,0.5109999775886536,-2.4846379047498557
292.344828,,0.0017847651549825643,292.489,0.503000020980835,-2.502216665386205
292.81034500000004,,0.0030922041720207547,292.954,0.47999998927116394,-2.552531886412235
293.275862,,0.004277657009362926,293.419,0.4699999988079071,-2.574575908324567
293.74137900000005,,0.004889612707254876,293.884,0.503000020980835,-2.502981550192401
294.206897,,0.004011525128920532,294.35,0.4970000088214874,-2.5163879688931985
294.672414,,0.001399394385430435,294.817,0.5049999952316284,-2.499315934561054
295.13793100000004,,0.0014197038776659965,295.275,0.4880000054836273,-2.536722022110155
295.603448,,0.001954379970130027,295.743,0.45899999141693115,-2.6002738075165515
296.068966,,0.0005282669578622412,296.205,0.47999998927116394,-2.554884829432394
296.534483,,0.0035016861467056797,296.676,0.49000000953674316,-2.5334413532027895
297.0,,0.0037112384800122057,297.138,0.4790000021457672,-2.557719136886458
297.46551700000003,,0.001311792644551863,297.604,0.5009999871253967,-2.5100615519471647
297.931034,,8.334313761630609e-05,298.068,0.4779999852180481,-2.560394902046474
298.396552,,0.0017605195546222484,298.534,0.4950000047683716,-2.5235274953033753
298.862069,,0.004296085012155906,298.999,0.48399999737739563,-2.5476026391975006
299.327586,,0.0032401029180146607,299.464,0.4790000021457672,-2.558543231262892
299.79310300000003,,0.0015294779357469502,299.931,0.4860000014305115,-2.54327643929561
300.258621,,0.004982112467046672,300.39,0.4860000014305115,-2.5431970899378977
300.724138,,0.002488926501636219,300.861,0.47200000286102295,-2.573558422153281
301.189655,,0.004790856241108734,301.327,0.4970000088214874,-2.518896443192418
301.65517200000005,,0.011063244219930364,301.791,0.4740000069141388,-2.568759451597297
302.12069,,0.011883489355742873,302.253,0.47999998927116394,-2.5553992749215526
302.586207,,0.008220301442427308,302.721,0.5009999871253967,-2.5093255149738916
303.05172400000004,,0.005047119809203127,303.184,0.47999998927116394,-2.554730456395734
303.517241,,0.006649703888492056,303.646,0.4950000047683716,-2.5216900336371806
303.982759,,0.012816865559377257,304.11,0.45899999141693115,-2.5997582109256387
304.448276,,0.0187128993018111,304.575,0.4819999933242798,-2.549295038625936
304.913793,,0.018910922902591432,305.041,0.46799999475479126,-2.5794615573763706
305.37931000000003,,0.012723680747225815,305.507,0.49000000953674316,-2.5312259855355643
305.844828,,0.005378778117308637,305.975,0.4779999852180481,-2.5571025865344272
306.310345,,0.0027251435119606537,306.441,0.49000000953674316,-2.5307371971629924
306.775862,,0.00492492768494574,306.905,0.49799999594688416,-2.5131382943476916
307.241379,,0.006729793219948171,307.371,0.46799999475479126,-2.57838480873922
307.70689699999997,,0.0037828715686223538,307.831,0.4959999918937683,-2.5173301220497777
308.172414,,0.003155424940908043,308.297,0.4740000069141388,-2.5652696475617742
308.637931,,0.01027255182299172,308.765,0.4950000047683716,-2.519588551851428
309.103448,,0.014799282424545923,309.227,0.48899999260902405,-2.532789741044522
309.568966,,0.01634376437605155,309.695,0.47699999809265137,-2.5591175749337776
310.034483,,0.015973443978123034,310.158,0.49000000953674316,-2.531028649979288
310.5,,0.01518577209301721,310.62,0.4860000014305115,-2.5400190180463302
310.96551700000003,,0.015018405872381936,311.09,0.4869999885559082,-2.538149926983657
311.431034,,0.01530547006987166,311.556,0.5019999742507935,-2.505803977398624
311.896552,,0.014964838651925067,312.021,0.5080000162124634,-2.4930792921528733
312.362069,,0.013483496917917087,312.486,0.4860000014305115,-2.5413600191748333
312.827586,,0.011987107474667665,312.947,0.4129999876022339,-2.7007466603780026
313.29310300000003,,0.01204390724024237,313.412,0.4830000102519989,-2.548572784880465
313.758621,,0.013200742191296714,313.879,0.492000013589859,-2.529271649467968
314.224138,,0.012901202604317158,314.345,0.47600001096725464,-2.56440133523361
314.689655,,0.009714126575697318,314.806,0.49000000953674316,-2.5341281849883774
315.155172,,0.005597918951415727,315.275,0.46700000762939453,-2.5844151099072548
315.62068999999997,,0.0036938765172017506,315.738,0.5419999957084656,-2.4211383802164224
316.086207,,0.004398981611399805,316.201,0.4860000014305115,-2.5432036869393913
316.551724,,0.004907607213947584,316.665,0.49000000953674316,-2.534487962251395
317.017241,,0.002686301135389118,317.135,0.48100000619888306,-2.5540338797711493
317.482759,,0.0016335315451999049,317.6,0.47200000286102295,-2.5735214126180623
317.94827599999996,,0.005159545144289409,318.063,0.4779999852180481,-2.560274985777679
318.413793,,0.005651077356852091,318.529,0.4950000047683716,-2.523014043390811
318.87931000000003,,0.003160211583305952,318.994,0.47600001096725464,-2.564141602009606
319.344828,,0.00010050465634484963,319.46,0.492000013589859,-2.5289816917013836
319.810345,,0.0008497943062250554,319.924,0.4779999852180481,-2.5591556670260736
320.275862,,0.0029511549562232734,320.39,0.48100000619888306,-2.5522768301265057
320.741379,,0.009531740717434378,320.854,0.5170000195503235,-2.473496662018196
321.20689699999997,,0.013853902921676837,321.319,0.49000000953674316,-2.5319750638531175
321.672414,,0.012204359226960206,321.78,0.4779999852180481,-2.557788281056958
322.137931,,0.006307535291875264,322.25,0.4779999852180481,-2.557483041966713
322.603448,,0.0019993909692113615,322.713,0.46399998664855957,-2.587713887811836
323.068966,,0.0034031391617139533,323.175,0.47999998927116394,-2.552628513201482
323.53448299999997,,0.00871465346776577,323.646,0.4740000069141388,-2.5655231196122354
324.0,,0.012217780800563485,324.109,0.4959999918937683,-2.5174700342813074
324.465517,,0.010419691702053582,324.575,0.4779999852180481,-2.556620467623321
324.931034,,0.0055285611098721404,325.041,0.4779999852180481,-2.556614829858057
325.396552,,0.0024519801366044594,325.506,0.492000013589859,-2.526167758491205
325.86206899999996,,0.0029637585897574,325.965,0.47699999809265137,-2.5589593108494455
326.327586,,0.004026973499036958,326.43,0.48399999737739563,-2.5438749255393605
326.793103,,0.002308839580804214,326.895,0.48100000619888306,-2.550626357061006
327.258621,,0.0008840061222331829,327.361,0.4729999899864197,-2.5683139933475614
327.724138,,0.000946499232285731,327.828,0.47999998927116394,-2.5533571409158515
328.189655,,0.003798633460048193,328.294,0.492000013589859,-2.5275330433141288
328.655172,,0.009222217951596402,328.762,0.48899999260902405,-2.5344046651877195
329.12068999999997,,0.009904130751550284,329.224,0.4860000014305115,-2.5412819611470585
329.586207,,0.005318863402685917,329.687,0.4690000116825104,-2.5786563499310224
330.051724,,7.23860122531668e-05,330.15,0.47999998927116394,-2.5550150511141774
330.517241,,0.0014584250687381664,330.62,0.4909999966621399,-2.531350153533853
330.982759,,0.0006661280415978495,331.083,0.4779999852180481,-2.5599400381718476
331.44827599999996,,0.0029037494324498144,331.548,0.4880000054836273,-2.538380249840159
331.913793,,0.0020759957145398784,332.013,0.45500001311302185,-2.610455533618518
332.37931,,0.0019452199500767807,332.479,0.5389999747276306,-2.427576281399203
332.844828,,0.006397215225523186,332.946,0.48500001430511475,-2.5452925793975854
333.310345,,0.00807053359438475,333.412,0.49000000953674316,-2.5344092500662194
333.77586199999996,,0.006192427921166714,333.876,0.4880000054836273,-2.538717824232589
334.241379,,0.0032360608051223367,334.342,0.4860000014305115,-2.5429694622664942
334.706897,,0.002542718611636725,334.805,0.5130000114440918,-2.4839863033980842
335.17241399999995,,0.0049451142682917235,335.268,0.47699999809265137,-2.562208870046626
335.637931,,0.008025067987105224,335.735,0.5049999952316284,-2.5009554428813257
336.103448,,0.00886125186958463,336.198,0.4819999933242798,-2.55077851203488
336.56896600000005,,0.007150166309173756,336.666,0.492000013589859,-2.528680413739303
337.034483,,0.005137371760728371,337.127,0.4819999933242798,-2.55013944609647
337.5,,0.004535077375686194,337.593,0.4970000088214874,-2.5171260790459677
337.965517,,0.004312475589221274,338.056,0.5040000081062317,-2.5015454319852726
338.431034,,0.002236716219416253,338.521,0.5090000033378601,-2.490334899904197
338.89655200000004,,0.001798509717987459,338.987,0.4830000102519989,-2.5466850003945027
339.36206899999996,,0.005008606299051957,339.453,0.4169999957084656,-2.6902146193319543
339.827586,,0.00464705720976363,339.92,0.4909999966621399,-2.5287761557079915
340.293103,,0.0012192524968501878,340.386,0.4729999899864197,-2.567821451478156
340.758621,,0.0018002370459744507,340.85,0.49000000953674316,-2.530665789933408
341.224138,,0.0015158892021698127,341.316,0.47999998927116394,-2.5523886921439116
341.68965499999996,,0.001521854118792818,341.779,0.4880000054836273,-2.5349522401775535
342.155172,,0.004070889833907878,342.241,0.47200000286102295,-2.5698598571382525
342.62069,,0.003340947908350061,342.71,0.47200000286102295,-2.5699641181012107
343.086207,,0.0005190309454956022,343.172,0.5019999742507935,-2.5047602204923085
343.551724,,0.004150338737783253,343.639,0.46299999952316284,-2.589928816882793
344.01724099999996,,0.0030819142701623945,344.102,0.49399998784065247,-2.5226317843307484
344.48275900000004,,0.004797635878823318,344.567,0.47600001096725464,-2.562120578944282
344.948276,,0.01719260817668319,345.031,0.49000000953674316,-2.531916102668619
345.413793,,0.0290898460706456,345.497,0.492000013589859,-2.5278695163471494
345.87931,,0.03670557859411359,345.962,0.49000000953674316,-2.532541889517216
346.344828,,0.03974939302189988,346.427,0.49000000953674316,-2.5328518246662726
346.81034500000004,,0.03996594097192876,346.895,0.4909999966621399,-2.5309687532204257
347.275862,,0.03779698508729382,347.36,0.4880000054836273,-2.5377771067060935
347.741379,,0.030940289004608042,347.821,0.4880000054836273,-2.538018515248053
348.206897,,0.01655335245355384,348.286,0.47200000286102295,-2.573080670715166
348.672414,,0.005068404294516246,348.75,0.4819999933242798,-2.551454920151802
349.13793100000004,,0.028891546089024358,349.22,0.48399999737739563,-2.5472106954873204
349.60344799999996,,0.04721093855606065,349.68,0.48100000619888306,-2.5538088270045165
350.068966,,0.05432172660251561,350.15,0.49000000953674316,-2.5342107123971607
350.534483,,0.050539736735054755,350.62,0.48899999260902405,-2.5363464922681707
351.0,,0.0416773317634083,351.075,0.45899999141693115,-2.601612520711016
351.465517,,0.03371292712545437,351.541,0.47699999809265137,-2.562256787244899
351.93103399999995,,0.02804474688138363,352.006,0.48100000619888306,-2.553359872876966
352.396552,,0.022535157822836334,352.472,0.48899999260902405,-2.535711214411301
352.862069,,0.01626663680508158,352.939,0.5049999952316284,-2.5006022341039746
353.32758600000005,,0.011251009720067512,353.405,0.49300000071525574,-2.52647148336398
353.793103,,0.00906881035225222,353.865,0.46399998664855957,-2.589362927177823
354.258621,,0.0078034943158732835,354.331,0.47600001096725464,-2.562924631961415
354.72413800000004,,0.004048236582792113,354.799,0.4749999940395355,-2.564812776601993
355.189655,,0.0026434001295775854,355.261,0.5920000076293945,-2.3096304179110856
355.655172,,0.008773056433706095,355.731,0.48899999260902405,-2.533767019962807
356.12069,,0.01041602892336317,356.194,0.47699999809265137,-2.559672350506418
356.586207,,0.007046801764317235,356.657,0.49300000071525574,-2.5246105732157926
357.05172400000004,,0.002055256168535337,357.12,0.4880000054836273,-2.5353412479774073
357.517241,,8.874394736275396e-05,357.586,0.4880000054836273,-2.5352241701687914
357.982759,,0.0024103647643501738,358.056,0.4690000116825104,-2.5765507191212507
358.448276,,0.007055184230216694,358.521,0.47999998927116394,-2.5525695130959214
358.913793,,0.009157505458949791,358.983,0.492000013589859,-2.526461184900883
359.37931000000003,,0.006186548279375733,359.448,0.4790000021457672,-2.554869047063922
359.844828,,0.0006267565959363022,359.913,0.48399999737739563,-2.5441084082867196
360.310345,,0.0017270832604552176,360.378,0.47999998927116394,-2.552998672812834
360.775862,,0.0027831912671682445,360.846,0.47999998927116394,-2.5532118555145322
361.241379,,0.011620586790775577,361.305,0.492000013589859,-2.5273118766519294
361.706897,,0.017921031531857038,361.775,0.4819999933242798,-2.5493650921748516
362.172414,,0.016687449783423142,362.238,0.47600001096725464,-2.5627184430636363
362.63793100000004,,0.009157444496855,362.705,0.49000000953674316,-2.532505141362962
363.103448,,0.0013747734063955161,363.168,0.4729999899864197,-2.569827373929736
363.568966,,0.0013940784245732665,363.636,0.47200000286102295,-2.5722801997438087
364.034483,,0.0008076684918866071,364.098,0.4959999918937683,-2.5202474591734543
364.5,,0.0033510101850313806,364.564,0.48100000619888306,-2.5531542757910257
364.96551700000003,,0.002115871082635194,365.031,0.47999998927116394,-2.5555256617641287
365.431034,,0.00244951837622422,365.497,0.46000000834465027,-2.5992518427694127
365.896552,,0.006315279973613365,365.962,0.4880000054836273,-2.538359163861187
366.362069,,0.006230684090940865,366.42,0.492000013589859,-2.5297063643549413
366.827586,,0.0026241856657724877,366.887,0.4880000054836273,-2.538432805113704
367.29310300000003,,0.001481114983623971,367.353,0.47600001096725464,-2.5645385634205566
367.758621,,0.0036027929219232153,367.82,0.47600001096725464,-2.564452600059103
368.224138,,0.0034271821571736135,368.286,0.492000013589859,-2.529463064889717
368.689655,,0.0019529099411801053,368.746,0.4749999940395355,-2.5663277523769557
369.155172,,0.00010758479917438768,369.216,0.4909999966621399,-2.531261211914994
369.62068999999997,,0.0016014011403172753,369.676,0.4020000100135803,-2.724924977273526
370.086207,,0.0027924440553922475,370.146,0.5080000162124634,-2.49373268131621
370.55172400000004,,0.0030294930461121587,370.605,0.48500001430511475,-2.543572631769728
371.017241,,0.001862549333943394,371.076,0.49300000071525574,-2.5258678788997297
371.482759,,0.0009613614243800157,371.542,0.46399998664855957,-2.5887756057726445
371.948276,,0.005060156005106342,372.001,0.4860000014305115,-2.5405834297021768
372.413793,,0.008976060976646988,372.467,0.46700000762939453,-2.5817351492069593
372.87931000000003,,0.010684748663619324,372.932,0.4729999899864197,-2.568447423914045
373.344828,,0.009638860212478027,373.398,0.4729999899864197,-2.568264856895796
373.810345,,0.008253825226840428,373.865,0.49000000953674316,-2.5310834667955255
374.275862,,0.009739893407248078,374.33,0.49000000953674316,-2.5309809785094837
374.741379,,0.013873640335530601,374.791,0.4830000102519989,-2.5461736012253664
375.20689699999997,,0.016530185983019526,375.261,0.4830000102519989,-2.5461621026476235
375.672414,,0.01439888277035066,375.724,0.4699999988079071,-2.5745200582794436
376.137931,,0.008951617015648599,376.186,0.48500001430511475,-2.5419217429862306
376.603448,,0.004813229222436807,376.65,0.47600001096725464,-2.561654246821545
377.068966,,0.005089351140886726,377.12,0.4880000054836273,-2.5356742292342345
377.53448299999997,,0.008948902545655472,377.586,0.47200000286102295,-2.570730423450361
378.0,,0.012924158710673704,378.048,0.46799999475479126,-2.579671228685368
378.465517,,0.013815443826919627,378.514,0.48100000619888306,-2.5515966029217116
378.931034,,0.010835414360677068,378.979,0.4729999899864197,-2.569287463710371
379.396552,,0.0055813859049532785,379.445,0.4779999852180481,-2.558661618719431
379.862069,,7.972352784014862e-05,379.91,0.46399998664855957,-2.5894279288085658
380.327586,,0.005825931367917816,380.375,0.49799999594688416,-2.5156086167967833
380.79310300000003,,0.011960183329423743,380.835,0.492000013589859,-2.528916188274767
381.258621,,0.017275581306265077,381.301,0.46399998664855957,-2.5901280800410396
381.724138,,0.019498880179187446,381.765,0.4690000116825104,-2.579413166443021
382.189655,,0.01810539374664922,382.234,0.4790000021457672,-2.5577686502015884
382.655172,,0.015300076878955494,382.695,0.5049999952316284,-2.5012241492969722
383.12068999999997,,0.013736822612196675,383.165,0.49000000953674316,-2.533958832760741
383.586207,,0.014106484651869682,383.628,0.4830000102519989,-2.5492176742900114
384.051724,,0.015070643340852457,384.09,0.4869999885559082,-2.5404651704388623
384.517241,,0.01487143580342811,384.556,0.4779999852180481,-2.5599903418537915
384.982759,,0.013090961517662614,385.021,0.4830000102519989,-2.5489725453480507
385.44827599999996,,0.011323543503040873,385.487,0.4959999918937683,-2.520487573059059
385.913793,,0.011759339678002054,385.955,0.49000000953674316,-2.5333634656248902
386.37931,,0.01452448979271933,386.42,0.46299999952316284,-2.591964309807502
386.84482799999995,,0.016763572716012975,386.88,0.4860000014305115,-2.541613569460386
387.310345,,0.015066559846763907,387.346,0.49399998784065247,-2.523930489568251
387.775862,,0.008844150764371901,387.818,0.47999998927116394,-2.5541729016339043
388.241379,,0.0010217756474572525,388.276,0.5170000195503235,-2.4733070029745514
388.70689699999997,,0.004360471520413583,388.746,0.4970000088214874,-2.5166341518657562
389.172414,,0.0049867681024203785,389.208,0.4740000069141388,-2.5665152012708634
389.637931,,0.0015258810470166178,389.676,0.46299999952316284,-2.5902788559488426
390.103448,,0.0027881917410745123,390.139,0.4790000021457672,-2.55525200050418
390.56896600000005,,0.004054901993935331,390.604,0.47999998927116394,-2.5529425856513988
391.03448299999997,,0.0006127435483721715,391.068,0.492000013589859,-2.526708890256553
391.5,,0.005169247836065938,391.534,0.4519999921321869,-2.6138088279632874
391.965517,,0.008581417653867789,392.001,0.47600001096725464,-2.5615209004102235
392.431034,,0.006919218884921066,392.467,0.49000000953674316,-2.5310646032508752
392.896552,,0.0022190862719462883,392.931,0.47600001096725464,-2.5616531860896066
393.36206899999996,,0.0009061273303357212,393.397,0.4860000014305115,-2.5399940114784525
393.827586,,0.0002509710859858186,393.862,0.492000013589859,-2.5270847734711968
394.293103,,0.0020633893145651653,394.32,0.4749999940395355,-2.5643145839331196
394.75862099999995,,0.003086811391329334,394.79,0.46399998664855957,-2.5884971169629463
395.224138,,0.0030410026840000147,395.253,0.49000000953674316,-2.5320875867796153
395.68965499999996,,0.004328170029848555,395.716,0.48100000619888306,-2.551940871310971
396.155172,,0.007433356590421588,396.186,0.48899999260902405,-2.5347592204481777
396.62069,,0.009763858452317331,396.65,0.4819999933242798,-2.550251693512666
397.086207,,0.008724862306197421,397.112,0.45100000500679016,-2.618019398751455
397.551724,,0.00471271120988486,397.578,0.4729999899864197,-2.570300287766333
398.017241,,0.0006026338891619504,398.042,0.46799999475479126,-2.581379610648596
398.48275900000004,,0.0011664061771962148,398.508,0.4749999940395355,-2.5662840916408474
398.94827599999996,,0.0005834227566086068,398.972,0.4830000102519989,-2.548973825849598
399.413793,,0.0005810219077693986,399.438,0.49000000953674316,-2.533802081671894
399.87931,,0.0008788017232191284,399.905,0.48100000619888306,-2.5534460554958467
400.344828,,0.0004911317244102203,400.371,0.47999998927116394,-2.5556175002980748
400.810345,,0.0006880375500534677,400.835,0.49000000953674316,-2.5337808274274938
401.27586199999996,,0.002174424979074127,401.301,0.49799999594688416,-2.5162599214600174
401.741379,,0.004086907447413403,401.761,0.4880000054836273,-2.5379158508952724
402.206897,,0.0047871895469865245,402.231,0.47699999809265137,-2.5617164222605564
402.672414,,0.003553231115394438,402.694,0.4830000102519989,-2.54845173758767
403.137931,,0.0013623038753141088,403.157,0.47600001096725464,-2.563487687026066
403.60344799999996,,0.00029187182221151727,403.62,0.47999998927116394,-2.554543663798536
404.068966,,0.002125708893217357,404.09,0.4620000123977661,-2.5935225581222423
404.534483,,0.006744453909643679,404.556,0.47200000286102295,-2.5714999496353834
405.0,,0.01154507552995939,405.021,0.4740000069141388,-2.5669144057417923
405.465517,,0.013209157346686748,405.487,0.48399999737739563,-2.5449142031099066
405.931034,,0.0106266784205566,405.946,0.4880000054836273,-2.536006423242097
406.39655200000004,,0.005757583434281518,406.412,0.4699999988079071,-2.5750553913122456
406.862069,,0.0013655322860461967,406.876,0.46700000762939453,-2.581456682623072
407.327586,,0.0015581127543696708,407.342,0.49000000953674316,-2.531249187094212
407.793103,,0.003600386734688046,407.805,0.48500001430511475,-2.542082033896897
408.258621,,0.0048346860620465445,408.275,0.5049999952316284,-2.4984878570185227
408.72413800000004,,0.004311589731727774,408.735,0.4880000054836273,-2.5355428554041666
409.18965499999996,,0.0018847051495587297,409.205,0.4749999940395355,-2.563922235670273
409.655172,,0.0005872076859065164,409.666,0.4650000035762787,-2.58580356679581
410.12069,,0.00046786309618167255,410.136,0.4880000054836273,-2.5358244658643057
410.586207,,0.0035026005247737655,410.601,0.4909999966621399,-2.5294483811378154
411.05172400000004,,0.009854513186410717,411.064,0.47600001096725464,-2.562312534385995
411.51724099999996,,0.014534510818348178,411.53,0.46700000762939453,-2.5821242359747774
411.982759,,0.013464596642633843,411.994,0.4880000054836273,-2.5365896412121764
412.448276,,0.006675712323909548,412.459,0.47200000286102295,-2.5716711019660132
412.913793,,0.00047852225646620043,412.925,0.47200000286102295,-2.5718934193514706
413.37931,,0.0020794127736016572,413.391,0.4860000014305115,-2.5416070024947803
413.844828,,0.0020422164307154285,413.85,0.47999998927116394,-2.5548788660766015
414.31034500000004,,0.006095898735346647,414.316,0.48500001430511475,-2.5441644773807983
414.775862,,0.0048052163973499006,414.787,0.47600001096725464,-2.563924828305883
415.241379,,0.0012047662475635891,415.249,0.4749999940395355,-2.5662252473211296
415.706897,,0.006973346755505511,415.717,0.47999998927116394,-2.5554194531439314
416.172414,,0.008749931433288564,416.179,0.4909999966621399,-2.5315045204971476
416.63793100000004,,0.0070399117517480824,416.643,0.4729999899864197,-2.570731689787474
417.103448,,0.005121215575814583,417.105,0.46299999952316284,-2.592491380798372
417.568966,,0.005686493730246339,417.571,0.4779999852180481,-2.5597481129453623
418.034483,,0.008804705124798095,418.035,0.5019999742507935,-2.5073615554115602
418.5,,0.012543581636968596,418.5,0.4779999852180481,-2.5595172060930307
418.96551700000003,,0.015142280142904481,418.972,0.4300000071525574,-2.663933144312133
419.43103399999995,,0.016201435073135945,419.43,0.48100000619888306,-2.5526419831660982
419.896552,,0.01592872512271202,419.895,0.46399998664855957,-2.5894831273204715
420.362069,,0.01434080931793892,420.361,0.47999998927116394,-2.5544184161416954
420.827586,,0.01214974979937224,420.828,0.46700000762939453,-2.582530477798401
421.293103,,0.011813856203402287,421.293,0.46799999475479126,-2.5801441503176696
421.758621,,0.01598979044447192,421.761,0.48399999737739563,-2.5450869509833405
422.22413800000004,,0.024018672747995764,422.223,0.4950000047683716,-2.52093711672963
422.689655,,0.030749990723004342,422.687,0.4860000014305115,-2.5403794823659656
423.15517200000005,,0.030242220679954183,423.156,0.492000013589859,-2.5271663066477013
423.62069,,0.021018418955196502,423.617,0.46700000762939453,-2.581520222621222
424.086207,,0.007139971099101581,424.08,0.47699999809265137,-2.559654376721893
424.55172400000004,,0.00595604391420162,424.546,0.47699999809265137,-2.5596104111338738
425.017241,,0.015985389868163655,425.013,0.47200000286102295,-2.570496250739606
425.482759,,0.024216576608789616,425.479,0.4909999966621399,-2.5291310503007263
425.948276,,0.03265806619865448,425.943,0.47600001096725464,-2.5618750500211886
426.413793,,0.041792162847268825,426.409,0.4830000102519989,-2.5467219607492564
426.87931000000003,,0.050277914413257595,426.876,0.4690000116825104,-2.577350848453638
427.344828,,0.05551001920310901,427.342,0.48100000619888306,-2.5513613641810093
427.810345,,0.05467116416132619,427.805,0.4650000035762787,-2.5863958222479977
428.275862,,0.04681387849232849,428.268,0.4880000054836273,-2.5364791607904533
428.741379,,0.03466745170738047,428.735,0.47600001096725464,-2.5628250934057566
429.20689699999997,,0.023555701251445793,429.198,0.46700000762939453,-2.5826388802591977
429.672414,,0.01748214409476253,429.661,0.49000000953674316,-2.532733408880434
430.137931,,0.015990190032369452,430.131,0.47999998927116394,-2.5547141391778454
430.603448,,0.01502277341278581,430.597,0.4729999899864197,-2.570143695275034
431.068966,,0.011117263971921369,431.059,0.4729999899864197,-2.570302483674821
431.534483,,0.004809639667105339,431.525,0.4950000047683716,-2.5225055946522263
432.0,,0.0004719237933748549,431.991,0.47600001096725464,-2.564003456314402
432.46551700000003,,0.0028107369802902373,432.456,0.46799999475479126,-2.581503678117116
432.931034,,0.003926589152915004,432.92,0.492000013589859,-2.529252614863186
433.396552,,0.006270495086358591,433.386,0.4819999933242798,-2.5510396928831622
433.862069,,0.00936792462798643,433.851,0.4740000069141388,-2.568433557887501
434.327586,,0.010597154939463761,434.317,0.46399998664855957,-2.5901508449627433
434.79310300000003,,0.00901472661102389,434.779,0.47999998927116394,-2.555191729144147
435.258621,,0.006895910457234705,435.242,0.47600001096725464,-2.563776949042384
435.724138,,0.00740687690996901,435.709,0.46399998664855957,-2.5897669975263136
436.189655,,0.011444932151976948,436.172,0.47999998927116394,-2.554735368281987
436.655172,,0.016425213386879963,436.635,0.47600001096725464,-2.563262315756122
437.12068999999997,,0.017753870709402635,437.105,0.5130000114440918,-2.4824552801568176
437.586207,,0.012682746189661582,437.571,0.4790000021457672,-2.5563283701742336
438.051724,,0.00394105439945747,438.034,0.4729999899864197,-2.5692022246123583
438.517241,,0.001417173641777521,438.5,0.47999998927116394,-2.553763429278173
438.982759,,0.001594580868540258,438.965,0.4749999940395355,-2.564484000841957
439.448276,,0.010840885358885227,439.43,0.49000000953674316,-2.531652257712208
439.913793,,0.01924051646470239,439.895,0.4860000014305115,-2.5402398825149484
440.37931000000003,,0.021549969409464288,440.361,0.4690000116825104,-2.577178983909035
440.844828,,0.018465510185337715,440.821,0.47600001096725464,-2.5618631893735637
441.310345,,0.014798156038339328,441.287,0.48100000619888306,-2.550939304851507
441.775862,,0.014453689195391054,441.75,0.47999998927116394,-2.5531225378348443
442.241379,,0.01699995740978661,442.22,0.47999998927116394,-2.5531620210662576
442.70689699999997,,0.018606155033379573,442.68,0.46399998664855957,-2.588093864964713
443.172414,,0.016111588186423043,443.151,0.4880000054836273,-2.5359114622148144
443.637931,,0.010228736330084089,443.61,0.47999998927116394,-2.5534738919904667
444.103448,,0.004925597103337923,444.081,0.46799999475479126,-2.5797747233904893
444.568966,,0.0035606596658794188,444.547,0.48399999737739563,-2.5450925956431636
445.03448299999997,,0.005317429521593057,445.007,0.48899999260902405,-2.5343888387781504
445.5,,0.005696899812830064,445.473,0.48399999737739563,-2.545478446127723
445.965517,,0.0012094903017908823,445.94,0.4699999988079071,-2.576177035912248
446.431034,,0.006541150892520687,446.405,0.46299999952316284,-2.591620828208149
446.896552,,0.012408184687608072,446.865,0.45399999618530273,-2.6114123581604534
447.36206899999996,,0.013535894372085706,447.33,0.4790000021457672,-2.5571144902083156
447.827586,,0.012449879575926038,447.798,0.4740000069141388,-2.5681548432197
448.29310300000003,,0.013416523113483483,448.26,0.46700000762939453,-2.5835264681898975
448.758621,,0.016752798463908883,448.731,0.46700000762939453,-2.583618052552475
449.224138,,0.018499692228462983,449.194,0.4830000102519989,-2.548818671208798
449.689655,,0.01567580320831052,449.657,0.4740000069141388,-2.5684506377333
450.155172,,0.010167772071929116,450.12,0.4729999899864197,-2.5706178035571288
450.62068999999997,,0.006606563773735812,450.585,0.4659999907016754,-2.585821850757845
451.086207,,0.007187117263730051,451.056,0.4650000035762787,-2.587920715766478
451.551724,,0.009472327037940901,451.522,0.47600001096725464,-2.563844951743416
452.017241,,0.009279372074608126,451.982,0.47699999809265137,-2.5615278690665133
452.482759,,0.005087040137452888,452.448,0.46299999952316284,-2.591866940424338
452.94827599999996,,0.0007468181154351826,452.913,0.48500001430511475,-2.543756177789977
453.413793,,0.004577895436176855,453.379,0.46399998664855957,-2.5893144355497832
453.87931,,0.004780507070339725,453.843,0.46399998664855957,-2.5891144125916608
454.344828,,0.0031365086054784864,454.309,0.4779999852180481,-2.558413085890858
454.810345,,0.0035769820394576154,454.772,0.48399999737739563,-2.545146316738634
455.27586199999996,,0.008773777132678977,455.242,0.46399998664855957,-2.588535854236147
455.741379,,0.01711019810162622,455.702,0.4690000116825104,-2.5774767623675343
456.206897,,0.02352011476345457,456.172,0.45899999141693115,-2.5991207755057535
456.672414,,0.024111535337910467,456.635,0.46799999475479126,-2.5793982632165244
457.137931,,0.019932036033029992,457.098,0.46299999952316284,-2.5902082435096982
457.603448,,0.01593775171824734,457.563,0.4519999921321869,-2.6141243860021723
458.06896600000005,,0.016219669972416372,458.028,0.47999998927116394,-2.553108944181914
458.53448299999997,,0.02017222646163738,458.493,0.46399998664855957,-2.587989665450927
459.0,,0.023438655253598336,458.957,0.46700000762939453,-2.5815108969656086
459.465517,,0.02265131062833527,459.423,0.4830000102519989,-2.5467427064415853
459.931034,,0.018594133857475104,459.888,0.4819999933242798,-2.549041107690308
460.39655200000004,,0.014238948647462977,460.353,0.4749999940395355,-2.564437018376709
460.86206899999996,,0.010754024594437814,460.821,0.46299999952316284,-2.5907478183620594
461.327586,,0.0070627388714391065,461.286,0.4300000071525574,-2.6628279272449293
461.793103,,0.0031676744975092184,461.747,0.46799999475479126,-2.580236663856893
462.258621,,0.0019375635592760797,462.216,0.4620000123977661,-2.5935117007737034
462.724138,,0.006213219000699496,462.679,0.4880000054836273,-2.537068445250066
463.18965499999996,,0.014710213489515228,463.142,0.47600001096725464,-2.5634052807376633
463.655172,,0.02208626533362102,463.608,0.46299999952316284,-2.591906395514032
464.12069,,0.02346043548771483,464.074,0.4869999885559082,-2.5397777499633545
464.58620699999994,,0.018465438743102296,464.539,0.47200000286102295,-2.5725912935888435
465.051724,,0.010617244917864024,465.007,0.4749999940395355,-2.5661600193520018
465.517241,,0.002930696938508937,465.465,0.4650000035762787,-2.588019085198757
465.98275900000004,,0.0054417764045467075,465.931,0.46799999475479126,-2.581521727311203
466.448276,,0.018056938619116038,466.397,0.4740000069141388,-2.5684531501309493
466.913793,,0.03691499544734521,466.861,0.4699999988079071,-2.5771356107043246
467.37931,,0.05943220438034719,467.327,0.46399998664855957,-2.590141071802691
467.844828,,0.07906776445054008,467.795,0.4659999907016754,-2.5856853685921117
468.31034500000004,,0.08865648250091727,468.257,0.46399998664855957,-2.589915515110577
468.77586199999996,,0.08447650542632762,468.72,0.4729999899864197,-2.5701555872990065
469.241379,,0.06907823462932813,469.19,0.47200000286102295,-2.5721616804175613
469.706897,,0.050432658851985585,469.654,0.3889999985694885,-2.7528033961794347
470.172414,,0.03655578919745127,470.116,0.4659999907016754,-2.5848550303711546
470.63793100000004,,0.029394151095487396,470.582,0.4779999852180481,-2.5585169645064036
471.10344799999996,,0.024269711815695663,471.045,0.49799999594688416,-2.514751398564646
471.568966,,0.016269578515263644,471.511,0.47200000286102295,-2.571210807967744
472.034483,,0.00645615983729569,471.976,0.47600001096725464,-2.562324048734627
472.5,,5.274359080142954e-05,472.442,0.46000000834465027,-2.5970295526397242
472.965517,,0.0009654882370130529,472.909,0.4519999921321869,-2.614330549041759
473.43103399999995,,0.0006526058891087553,473.374,0.46399998664855957,-2.588087530756638
473.89655200000004,,0.0036386805877984827,473.839,0.46799999475479126,-2.5793053490357583
474.362069,,0.009356871101874775,474.305,0.46700000762939453,-2.5814497898771194
474.827586,,0.013412864286445263,474.768,0.46700000762939453,-2.5814500031958603
475.293103,,0.013238458009790679,475.231,0.4560000002384186,-2.605449981710346
475.758621,,0.01066291412032926,475.702,0.5080000162124634,-2.492227978303732
476.22413800000004,,0.0095364587600963,476.164,0.47200000286102295,-2.5707570029999767
476.689655,,0.012077183701994844,476.628,0.47200000286102295,-2.5708818822130226
477.155172,,0.01711646078565875,477.09,0.4819999933242798,-2.5492442777281323
477.62069,,0.02095324992543064,477.556,0.4560000002384186,-2.606057634655078
478.086207,,0.020483808486000468,478.024,0.4699999988079071,-2.5757401172149508
478.55172400000004,,0.0165582759463737,478.489,0.4620000123977661,-2.5933624949315206
479.01724099999996,,0.013728228135314137,478.953,0.4860000014305115,-2.54127152685485
479.482759,,0.015567355552275258,479.419,0.492000013589859,-2.528392743709296
479.948276,,0.020687303729744328,479.884,0.45899999141693115,-2.6004720011980016
480.413793,,0.02437221297342745,480.349,0.4819999933242798,-2.5505326391455214
480.87931000000003,,0.023711021671938712,480.817,0.4620000123977661,-2.5942559596648405
481.344828,,0.02022471843727477,481.275,0.47200000286102295,-2.5725962540631917
481.810345,,0.01771161407529988,481.743,0.47600001096725464,-2.5639808774833193
482.275862,,0.018211548375886434,482.205,0.4749999940395355,-2.566227938070686
482.74137900000005,,0.020129558215374956,482.673,0.46299999952316284,-2.59240733017176
483.206897,,0.0200503221338812,483.135,0.46299999952316284,-2.59240955057231
483.672414,,0.016319714102969105,483.6,0.47999998927116394,-2.5553411644259674
484.13793100000004,,0.010894896126517811,484.071,0.47600001096725464,-2.5639910875846224
484.603448,,0.007620478297740343,484.53,0.46700000762939453,-2.5835029631971
485.068966,,0.008485903525947188,484.996,0.46799999475479126,-2.581200271906891
485.534483,,0.011625235450346029,485.462,0.48500001430511475,-2.5440145474538753
486.0,,0.013336304910908954,485.928,0.47200000286102295,-2.572167836226191
486.46551700000003,,0.011838068355664942,486.394,0.4480000138282776,-2.6242713933593143
486.931034,,0.008328977551841258,486.861,0.4819999933242798,-2.550004581627656
487.396552,,0.004726906399247188,487.326,0.4779999852180481,-2.558522676228742
487.862069,,0.0017743086925350513,487.787,0.4830000102519989,-2.5474344519673906
488.327586,,0.0004566137666280805,488.257,0.4970000088214874,-2.516745558237739
488.79310300000003,,0.0016715414258418875,488.717,0.4790000021457672,-2.555786005638857
489.258621,,0.0018071010077483913,489.186,0.4830000102519989,-2.5469144136376065
489.724138,,0.0016309909669974306,489.65,0.46399998664855957,-2.58817550887186
490.189655,,0.002204988935603893,490.112,0.46399998664855957,-2.5880707043645916
490.655172,,0.0040549259915083485,490.578,0.4749999940395355,-2.5640326757336287
491.12069,,0.007106055084349099,491.042,0.45100000500679016,-2.6162816476098687
491.586207,,0.010836235639485723,491.508,0.46700000762939453,-2.581420599971168
492.05172400000004,,0.01395291016742241,491.972,0.4790000021457672,-2.5553098577707414
492.517241,,0.014534277835088129,492.438,0.48899999260902405,-2.5335902072975105
492.982759,,0.011690068986762637,492.903,0.47600001096725464,-2.562010864134992
493.448276,,0.0072810694304690365,493.368,0.46399998664855957,-2.5882819885809356
493.913793,,0.004996088907685543,493.835,0.4790000021457672,-2.5557551133859606
494.37931000000003,,0.0069022001211721425,494.301,0.4650000035762787,-2.586430026566512
494.844828,,0.01094397210408748,494.761,0.4440000057220459,-2.632371783263867
495.310345,,0.01227047672748592,495.231,0.4790000021457672,-2.5563200928568435
495.775862,,0.007499189580330761,495.691,0.47999998927116394,-2.554346289679611
496.241379,,0.0019195825411805908,496.161,0.4790000021457672,-2.556726545919334
496.70689699999997,,0.010446341156392404,496.624,0.45399999618530273,-2.611385524923342
497.172414,,0.01280675028072643,497.087,0.4699999988079071,-2.5767056811182174
497.637931,,0.008184464460957398,497.553,0.4650000035762787,-2.5877577126021407
498.103448,,0.0006555662949702386,498.017,0.4740000069141388,-2.5682836728072083
498.568966,,0.004484190096269046,498.483,0.45500001311302185,-2.6097827320908857
499.03448299999997,,0.005138171113618879,498.95,0.46700000762939453,-2.583711609990121
499.5,,0.0033690158250410164,499.416,0.4830000102519989,-2.548891039166416
499.96551700000003,,0.0023530148529744836,499.876,0.4729999899864197,-2.570678630700764
500.431034,,0.0031886841969796477,500.341,0.4690000116825104,-2.57935746254464
500.89655200000004,,0.004947056813405364,500.813,0.4729999899864197,-2.5705716736408113
501.362069,,0.006809130763451034,501.271,0.45500001311302185,-2.609682902021057
501.827586,,0.008812997716459117,501.739,0.4300000071525574,-2.664015749204138
502.293103,,0.010463219260248674,502.201,0.46700000762939453,-2.583247901056634
502.758621,,0.010007996196345334,502.665,0.47200000286102295,-2.5721760995662057
503.224138,,0.006232453303389252,503.135,0.45899999141693115,-2.6003039541521593
503.68965499999996,,0.000558536219926515,503.6,0.4659999907016754,-2.5848488610627047
504.15517200000005,,0.0036348095370111523,504.063,0.44600000977516174,-2.628213836643018
504.62068999999997,,0.0040118860764651165,504.528,0.47200000286102295,-2.571364000584348
505.08620699999994,,0.001443599547598982,504.995,0.4729999899864197,-2.5689889922057203
505.55172400000004,,0.0006773055390011791,505.461,0.46299999952316284,-2.5905932959062623
506.017241,,0.0007163006426563284,505.92,0.45899999141693115,-2.5991459698587813
506.48275899999993,,0.005667558238498077,506.386,0.46700000762939453,-2.581580203911685
506.948276,,0.01076496476046956,506.851,0.460999995470047,-2.5945451174935337
507.413793,,0.01143169773551981,507.316,0.46700000762939453,-2.5813990362827273
507.87931,,0.0055301160762909725,507.78,0.4830000102519989,-2.546501299024238
508.344828,,0.004302741229410189,508.249,0.47600001096725464,-2.561748080598784
508.810345,,0.012158092020862698,508.71,0.4699999988079071,-2.574852200310705
509.27586199999996,,0.013866709950110008,509.179,0.4699999988079071,-2.5749199525436337
509.74137900000005,,0.010667542708521053,509.642,0.47600001096725464,-2.561949511064814
510.20689699999997,,0.007150982710169715,510.105,0.47600001096725464,-2.562081650821305
510.67241399999995,,0.006032177242593196,510.571,0.4650000035762787,-2.586205929363342
511.13793100000004,,0.006233303480283898,511.035,0.49000000953674316,-2.5319211348457524
511.603448,,0.005674111630558185,511.5,0.4620000123977661,-2.593121594029236
512.0689659999999,,0.0040247177160549095,511.965,0.492000013589859,-2.5279714472904815
512.534483,,0.0021343233985387402,512.431,0.4779999852180481,-2.558686477136832
513.0,,0.00023567998844911258,512.898,0.35899999737739563,-2.81815999694681
513.465517,,0.0019303898937689378,513.364,0.36800000071525574,-2.798764952033276
513.931034,,0.00363881484789263,513.831,0.46700000762939453,-2.583283416341736
514.396552,,0.003182020225821966,514.29,0.46799999475479126,-2.581291027669344
514.862069,,0.0001563078743498027,514.757,0.47200000286102295,-2.572736039324894
515.327586,,0.004708749844502945,515.221,0.47200000286102295,-2.572863549562671
515.793103,,0.007470513961265693,515.691,0.4729999899864197,-2.570775860574447
516.258621,,0.006482558825342326,516.153,0.4569999873638153,-2.605685627299957
516.724138,,0.0022336639930970368,516.621,0.47999998927116394,-2.5555866362097137
517.189655,,0.0029554005343931985,517.083,0.4779999852180481,-2.5599112119321696
517.655172,,0.006635481297762165,517.548,0.4779999852180481,-2.5598360793069173
518.1206900000001,,0.007421690989165726,518.013,0.45899999141693115,-2.601115261040313
518.5862070000001,,0.005355732095873332,518.479,0.4880000054836273,-2.5377827198744503
519.051724,,0.002063835862630407,518.947,0.4830000102519989,-2.5484915858439106
519.517241,,0.000196913077489997,519.405,0.4659999907016754,-2.5853171580331766
519.982759,,0.0013675251315352086,519.872,0.4659999907016754,-2.5850857579782427
520.448276,,0.004322279610250555,520.338,0.4819999933242798,-2.549983294225242
520.9137929999999,,0.005998526020374374,520.802,0.45500001311302185,-2.6085576113677034
521.37931,,0.004613874252123387,521.265,0.47200000286102295,-2.5712746106447453
521.844828,,0.0012028632851008511,521.735,0.46799999475479126,-2.57975420969506
522.310345,,0.0016242796544786724,522.198,0.4490000009536743,-2.620932222894802
522.7758620000001,,0.0016321047533220502,522.661,0.46399998664855957,-2.58806241999788
523.241379,,0.0018431842154088755,523.131,0.47600001096725464,-2.5617604649746806
523.7068969999999,,0.0071223448292405045,523.596,0.46399998664855957,-2.5877828999151915
524.172414,,0.010500566271770363,524.059,0.47600001096725464,-2.561558451865862
524.637931,,0.00909830293355329,524.525,0.4560000002384186,-2.6050946556694417
525.103448,,0.004260143907386907,524.99,0.46299999952316284,-2.5898529815655595
525.568966,,0.0006626216006725109,525.456,0.38499999046325684,-2.759843787539553
526.034483,,0.000997681358804343,525.92,0.46399998664855957,-2.587833719624971
526.5,,0.002980271593428991,526.386,0.4880000054836273,-2.535691334236224
526.9655170000001,,0.002839283213394456,526.851,0.4729999899864197,-2.5685517954457717
527.4310340000001,,0.0001710665389917758,527.317,0.46299999952316284,-2.5905491087330916
527.8965519999999,,0.0024934701222409667,527.779,0.45500001311302185,-2.608213514369064
528.362069,,0.003763563887679145,528.242,0.4699999988079071,-2.5757862948401753
528.827586,,0.004628818469091905,528.709,0.503000020980835,-2.5041515864054116
529.293103,,0.005646084861088325,529.171,0.48500001430511475,-2.543626936281607
529.7586210000001,,0.005134964678099708,529.639,0.4790000021457672,-2.556949398313334
530.224138,,0.001474199852069463,530.102,0.47600001096725464,-2.563719514893664
530.689655,,0.0038300917350047787,530.568,0.46700000762939453,-2.5835382457017753
531.155172,,0.006858279300715774,531.032,0.47999998927116394,-2.5553969375601455
531.62069,,0.005213310863066467,531.498,0.45899999141693115,-2.601294231229346
532.086207,,0.000664599356282159,531.964,0.47600001096725464,-2.5643629899168534
532.5517239999999,,0.0023432632505931785,532.43,0.4779999852180481,-2.5600680822343245
533.017241,,0.0008258238113844243,532.894,0.4699999988079071,-2.577513787431436
533.482759,,0.003984753901286701,533.36,0.4729999899864197,-2.570948195230562
533.9482760000001,,0.007999458639954283,533.824,0.49000000953674316,-2.533835793332166
534.413793,,0.00823041638688263,534.29,0.48399999737739563,-2.5467884182289517
534.87931,,0.005076775813634292,534.75,0.47200000286102295,-2.572772721272158
535.344828,,0.0011258737359744965,535.22,0.4830000102519989,-2.548613211674679
535.810345,,0.0012129403200257913,535.683,0.5049999952316284,-2.500459193439291
536.275862,,0.0008992558186035303,536.146,0.492000013589859,-2.528534639906872
536.7413789999999,,0.0014683885650441392,536.612,0.5,-2.510843059280651
537.206897,,0.0037416293221156425,537.075,0.4740000069141388,-2.567218815484493
537.672414,,0.0033771796722162142,537.54,0.49000000953674316,-2.5320937365735054
538.137931,,0.0003932568616135053,538.005,0.4869999885559082,-2.5383739532081813
538.6034480000001,,0.005459179279834381,538.471,0.4790000021457672,-2.5555664306126005
539.0689659999999,,0.008569318166203115,538.935,0.4560000002384186,-2.605466188309233
539.5344829999999,,0.008456857041988225,539.401,0.4860000014305115,-2.5399322431325553
540.0,,0.00666231124275705,539.868,0.4779999852180481,-2.557226815773402
540.465517,,0.004988977285011324,540.335,0.49399998784065247,-2.522277381002278
540.931034,,0.0032754844188026084,540.798,0.48399999737739563,-2.544019154398418
541.396552,,0.0007863434667894933,541.26,0.4830000102519989,-2.5462010438060134
541.862069,,0.0011896525936912622,541.728,0.48399999737739563,-2.5440738764076873
542.327586,,0.0001925299753021981,542.191,0.49000000953674316,-2.531099944843826
542.7931030000001,,0.0036619770310952317,542.661,0.4779999852180481,-2.5573852985240504
543.258621,,0.0066087484438307935,543.124,0.492000013589859,-2.527064865759262
543.7241379999999,,0.0052886265928685176,543.59,0.4909999966621399,-2.529457557664184
544.189655,,0.0010189057368893877,544.052,0.492000013589859,-2.5275192180320847
544.655172,,0.0015600437465508594,544.518,0.49000000953674316,-2.5321356885016018
545.12069,,0.00011395382001606788,544.984,0.5139999985694885,-2.480117573325215
545.5862070000001,,0.003906668767528692,545.449,0.503000020980835,-2.5043532665912633
546.051724,,0.0058128828184623215,545.914,0.5009999871253967,-2.508973910436429
546.517241,,0.004026545906629954,546.379,0.492000013589859,-2.528829847540573
546.982759,,0.00010253146014511881,546.846,0.5049999952316284,-2.5007328492257352
547.448276,,0.0037704360011244424,547.312,0.5009999871253967,-2.50964282557296
547.9137929999999,,0.004567314074352075,547.772,0.5080000162124634,-2.494551215136949
548.3793099999999,,0.0018205856043102553,548.235,0.49799999594688416,-2.516455436143384
548.844828,,0.002512473792862123,548.703,0.4959999918937683,-2.520885750734001
549.310345,,0.004814045205701675,549.165,0.5009999871253967,-2.5100187698826133
549.775862,,0.0030020646595328017,549.635,0.49300000071525574,-2.527426653176524
550.241379,,0.0013123613193158279,550.098,0.503000020980835,-2.505572017391207
550.706897,,0.004538290954291003,550.563,0.492000013589859,-2.529424396652136
551.172414,,0.00448579304512058,551.028,0.492000013589859,-2.5292707119913493
551.637931,,0.0016723001744633416,551.494,0.515999972820282,-2.4767932015167764
552.103448,,0.0015862999393506762,551.961,0.46299999952316284,-2.5920412417451364
552.568966,,0.002746022021110054,552.427,0.5080000162124634,-2.493758959820533
553.034483,,0.00087933160584425,552.891,0.5019999742507935,-2.506572187107188
553.5,,0.00236300038719533,553.357,0.5120000243186951,-2.484518343682977
553.965517,,0.004479713116659445,553.817,0.4959999918937683,-2.5191094450145055
554.4310340000001,,0.0049000960847803135,554.282,0.5,-2.5101360432147355
554.896552,,0.004814476687828167,554.75,0.49799999594688416,-2.514251407698366
555.3620689999999,,0.004276944195510863,555.213,0.414000004529953,-2.6970419550565614
555.827586,,0.0015674477350814179,555.676,0.492000013589859,-2.5269257179318085
556.293103,,0.0034146431869006943,556.146,0.5170000195503235,-2.4723160161452507
556.758621,,0.007004940732628523,556.612,0.49300000071525574,-2.5245006672258072
557.224138,,0.005372064000785092,557.075,0.5130000114440918,-2.4808682972961336
557.689655,,0.0003870060622810146,557.541,0.492000013589859,-2.526606002705853
558.155172,,0.005089354325556928,558.006,0.4790000021457672,-2.554960979934453
558.6206900000001,,0.005477719649561017,558.472,0.4950000047683716,-2.520181021124012
559.0862070000001,,0.0033483421724751013,558.931,0.48899999260902405,-2.533374529980756
559.5517239999999,,0.002290870552772272,559.397,0.4959999918937683,-2.518284652770741
560.017241,,0.0032833573539598026,559.865,0.48899999260902405,-2.533729848924046
560.482759,,0.00459297891160818,560.331,0.47600001096725464,-2.5622751450120864
560.948276,,0.00462191084978686,560.791,0.45399999618530273,-2.6104506327818893
561.413793,,0.003223451014174214,561.261,0.4399999976158142,-2.641212780509793
561.87931,,0.0007649716669723459,561.724,0.4790000021457672,-2.556514337413294
562.344828,,0.002237277785893535,562.186,0.4790000021457672,-2.5567812789606212
562.8103450000001,,0.004220110873820904,562.65,0.4779999852180481,-2.559215711867366
563.275862,,0.0031569517067149993,563.12,0.47200000286102295,-2.5725240822309696
563.7413789999999,,0.0006265825604828618,563.586,0.46799999475479126,-2.581448711293301
564.206897,,0.003323744166852104,564.048,0.47999998927116394,-2.555481731094591
564.672414,,0.0012228104746584859,564.514,0.4699999988079071,-2.5774058877003183
565.137931,,0.004472420638047868,564.979,0.49000000953674316,-2.533926753556836
565.603448,,0.008016591675493775,565.446,0.46700000762939453,-2.5840825454154457
566.068966,,0.005316524912548916,565.905,0.47999998927116394,-2.5557586517471194
566.534483,,0.0013088986729686048,566.371,0.4909999966621399,-2.5317433604858905
567.0,,0.005972720048236686,566.836,0.4699999988079071,-2.5773974866747666
567.465517,,0.006125840518173499,567.301,0.47699999809265137,-2.562005580495545
567.931034,,0.004769315800416349,567.765,0.46799999475479126,-2.5814329757166337
568.396552,,0.0057930882852351975,568.234,0.4729999899864197,-2.5703260220161734
568.862069,,0.00907267860302263,568.696,0.4860000014305115,-2.54176309326021
569.327586,,0.011226478902317146,569.166,0.4650000035762787,-2.587254966274262
569.793103,,0.010069830310173925,569.631,0.47600001096725464,-2.563019366019888
570.2586210000001,,0.006825526767252072,570.093,0.47200000286102295,-2.571461526276481
570.724138,,0.004147585257974856,570.559,0.4699999988079071,-2.5755530375638847
571.189655,,0.0033103819771884996,571.024,0.4690000116825104,-2.577481172643801
571.655172,,0.0036031046469970967,571.49,0.47600001096725464,-2.5620033957945694
572.12069,,0.003341061122901926,571.95,0.4790000021457672,-2.5552704492834075
572.586207,,0.0010601002665884761,572.416,0.49900001287460327,-2.511536335430183
573.051724,,0.003174195360800193,572.881,0.4819999933242798,-2.5484529349054497
573.517241,,0.007048001125502732,573.346,0.49900001287460327,-2.5113398915886513
573.982759,,0.0077224522130110735,573.813,0.4880000054836273,-2.5352760606774716
574.4482760000001,,0.005419687823855595,574.279,0.47200000286102295,-2.570153946881186
574.913793,,0.004610651641333447,574.747,0.47200000286102295,-2.57022231645693
575.37931,,0.009877885705789333,575.209,0.47200000286102295,-2.5703378916646757
575.844828,,0.020124680100698008,575.672,0.45100000500679016,-2.6162491983738168
576.310345,,0.028511842492545174,576.135,0.4659999907016754,-2.5837688350698813
576.775862,,0.029528834843370412,576.601,0.3889999985694885,-2.751758826585985
577.241379,,0.025075771441756607,577.071,0.47999998927116394,-2.553763886897797
577.706897,,0.021907966823116902,577.53,0.4819999933242798,-2.5496863229501634
578.172414,,0.023742148692443676,578.001,0.46399998664855957,-2.589188843542542
578.6379310000001,,0.02757112338520189,578.46,0.46299999952316284,-2.5916526612033013
579.1034480000001,,0.02753701369002622,578.931,0.46000000834465027,-2.598463261680973
579.5689659999999,,0.020959764962977464,579.397,0.4779999852180481,-2.5595025379572327
580.034483,,0.010265814343011893,579.861,0.46399998664855957,-2.5902299996229368
580.5,,2.098867388973817e-06,580.327,0.47600001096725464,-2.564276440526855
580.965517,,0.0072257870885142576,580.787,0.4690000116825104,-2.579674761189038
581.431034,,0.011881265187223463,581.257,0.49900001287460327,-2.5144150399920537
581.896552,,0.015651577053634062,581.72,0.47999998927116394,-2.555857112361464
582.362069,,0.019522262153791676,582.183,0.46399998664855957,-2.590709869835139
582.827586,,0.023927073840774173,582.651,0.47600001096725464,-2.56450785584331
583.2931030000001,,0.0295341328946884,583.112,0.46700000762939453,-2.5840067940174234
583.758621,,0.03648259398660479,583.578,0.46399998664855957,-2.5903867322403373
584.2241379999999,,0.042973006981971776,584.042,0.46799999475479126,-2.581474095564923
584.689655,,0.04597185061462969,584.507,0.4650000035762787,-2.587776338013635
585.155172,,0.0438673261195764,584.972,0.47600001096725464,-2.5635491716371464
585.6206900000001,,0.03766789110290272,585.438,0.550000011920929,-2.402045508868173
586.0862070000001,,0.02928161354827891,585.903,0.38199999928474426,-2.7677627720113382
586.551724,,0.0194735095753093,586.368,0.47999998927116394,-2.5539598566314625
587.017241,,0.007956898288238907,586.835,0.4650000035762787,-2.5863541818073355
587.482759,,0.005104289509814805,587.301,0.46399998664855957,-2.5882654766427478
587.948276,,0.018125716542132443,587.761,0.47699999809265137,-2.559702432932859
588.4137929999999,,0.028665433743206348,588.231,0.453000009059906,-2.611784100576967
588.87931,,0.035193826096097953,588.694,0.49000000953674316,-2.531009624311445
589.344828,,0.03818682076902838,589.157,0.4659999907016754,-2.5831792019368627
589.810345,,0.03888155958576534,589.621,0.4790000021457672,-2.554789039877705
590.2758620000001,,0.03729013738970516,590.09,0.47699999809265137,-2.5591313654374797
590.741379,,0.03255831930650191,590.556,0.46399998664855957,-2.5874923145224957
591.2068969999999,,0.025239057838675184,591.021,0.46399998664855957,-2.587583739091143
591.672414,,0.017941463131983124,591.486,0.49000000953674316,-2.531080157216401
592.137931,,0.0130662652211189,591.946,0.4729999899864197,-2.5683034532717492
592.603448,,0.010400934323437291,592.411,0.46700000762939453,-2.581600801779119
593.068966,,0.00761928218111149,592.878,0.4740000069141388,-2.5666082977055873
593.534483,,0.003118032151451356,593.343,0.4659999907016754,-2.5843198925242197
594.0,,0.0022824597211256537,593.813,0.4749999940395355,-2.5650096913975773
594.4655170000001,,0.006685778878206062,594.271,0.4650000035762787,-2.5870995199576297
594.9310340000001,,0.00941825752335568,594.74,0.47200000286102295,-2.5721483140656334
595.3965519999999,,0.01127998851666395,595.203,0.4830000102519989,-2.5484684772419466
595.862069,,0.012957060428897625,595.665,0.4790000021457672,-2.55744462985281
596.327586,,0.014219700632604242,596.135,0.47600001096725464,-2.56420975981837
596.793103,,0.014943064776576401,596.6,0.4830000102519989,-2.54914860926624
597.2586210000001,,0.016103958553291733,597.063,0.492000013589859,-2.5296837092113713
597.724138,,0.018936876410685814,597.529,0.4790000021457672,-2.5580976947142458
598.189655,,0.023200106015826807,597.994,0.4830000102519989,-2.5494203169265
598.655172,,0.026899958166293186,598.46,0.4749999940395355,-2.56683140223497
599.12069,,0.0279552574814722,598.92,0.46799999475479126,-2.582009224405603
599.586207,,0.025972041294420746,599.386,0.4970000088214874,-2.5187031436563454
600.0517239999999,,0.022308938404764587,599.85,0.4620000123977661,-2.594781741513701
600.517241,,0.018492295600685462,600.316,0.47600001096725464,-2.56406364425451
600.982759,,0.014848035296259854,600.783,0.4699999988079071,-2.5768827931862988
601.448276,,0.010868526649459124,601.246,0.47600001096725464,-2.5635302335934544
601.913793,,0.006279645534147611,601.713,0.47600001096725464,-2.5632305766123458
602.37931,,0.0009735714985325797,602.176,0.4880000054836273,-2.5367773756606735
602.844828,,0.005251544589442022,602.646,0.47600001096725464,-2.5626116806058037
603.310345,,0.011331770977341598,603.109,0.47999998927116394,-2.5535977336817495
603.775862,,0.014046289451407163,603.574,0.492000013589859,-2.5271741124044254
604.2413789999999,,0.010912586797335264,604.041,0.49000000953674316,-2.531279878856084
604.706897,,0.0043202988324896165,604.507,0.4830000102519989,-2.5463153447085003
605.172414,,0.0005738103168447901,604.972,0.48500001430511475,-2.5417868067528264
605.637931,,0.0035644559295468217,605.43,0.4020000100135803,-2.7224946699317836
606.1034480000001,,0.010503781280825313,605.902,0.4880000054836273,-2.5350675484408747
606.5689659999999,,0.014974746489566168,606.36,0.46700000762939453,-2.580813542573818
607.0344829999999,,0.013509665840022785,606.832,0.48100000619888306,-2.5503637073920804
607.5,,0.00826102745016544,607.29,0.4659999907016754,-2.5831502369115924
607.965517,,0.003902903736475956,607.761,0.4790000021457672,-2.5549867635488295
608.431034,,0.0033426325856720286,608.223,0.47200000286102295,-2.5704434322683967
608.896552,,0.006374448055130688,608.691,0.4690000116825104,-2.5772261338187383
609.362069,,0.010654565444337443,609.153,0.4880000054836273,-2.5361112280183313
609.827586,,0.012758322196396577,609.617,0.4779999852180481,-2.5582003926908494
610.293103,,0.009606867009244218,610.087,0.47200000286102295,-2.5715884978106045
610.758621,,0.0012666023486504387,610.545,0.4819999933242798,-2.550121941720524
611.2241379999999,,0.007346379007007558,611.016,0.47200000286102295,-2.572221604158436
611.689655,,0.009689307243291123,611.475,0.47699999809265137,-2.561624805331996
612.155172,,0.003980219395375179,611.94,0.4830000102519989,-2.5488228476194474
612.62069,,0.004575917748247496,612.405,0.47600001096725464,-2.5643079210996573
613.0862070000001,,0.008971669041804757,612.872,0.46299999952316284,-2.592822227410852
613.551724,,0.0070443804719209835,613.338,0.4650000035762787,-2.58860835556613
614.017241,,0.0023181446719152737,613.806,0.46399998664855957,-2.5908774851836736
614.4827590000001,,0.0005741200986583662,614.267,0.4650000035762787,-2.588733127766088
614.948276,,2.355769606809065e-05,614.735,0.46299999952316284,-2.593067338169154
615.4137929999999,,0.0023800895721353553,615.198,0.46700000762939453,-2.5842726758249706
615.8793099999999,,0.004182334529650861,615.661,0.45899999141693115,-2.601567252675842
616.344828,,0.003954281732264993,616.131,0.47999998927116394,-2.555630254466425
616.810345,,0.001769939330332469,616.59,0.46700000762939453,-2.583721868836709
617.275862,,0.001029586970681591,617.06,0.45100000500679016,-2.6183116272595073
617.741379,,0.0025374403115801343,617.526,0.46700000762939453,-2.5831557037789703
618.206897,,0.0016210519434644523,617.991,0.4959999918937683,-2.5196570018970257
618.672414,,0.0009706381560432515,618.457,0.4659999907016754,-2.584687429615699
619.137931,,0.0030263816120099166,618.916,0.47999998927116394,-2.553856951744862
619.603448,,0.002709245690341049,619.382,0.46799999475479126,-2.579681826894125
620.068966,,0.00030644357955109314,619.846,0.47699999809265137,-2.559775871267057
620.534483,,0.001744411344677916,620.312,0.46299999952316284,-2.590009485126283
621.0,,0.001006715495666173,620.78,0.45500001311302185,-2.6072110691129318
621.465517,,0.002541217728529236,621.242,0.47099998593330383,-2.572172823589111
621.9310340000001,,0.00670402090219784,621.705,0.46399998664855957,-2.5872967986014497
622.396552,,0.009701075815705403,622.176,0.5289999842643738,-2.4456144502298045
622.862069,,0.011629943946380889,622.636,0.46799999475479126,-2.578499695902941
623.327586,,0.012881211371684586,623.106,0.45899999141693115,-2.598155042805811
623.793103,,0.012272476328418871,623.571,0.46399998664855957,-2.58736940929905
624.258621,,0.008187826807940182,624.035,0.460999995470047,-2.5940700282803237
624.724138,,0.0014830591638548029,624.5,0.4699999988079071,-2.5746788865354424
625.189655,,0.003997656307719282,624.964,0.46399998664855957,-2.5880127365405476
625.655172,,0.004497181839659663,625.43,0.4650000035762787,-2.586133107127009
626.1206900000001,,0.0002329183953721309,625.895,0.4729999899864197,-2.569030678012642
626.5862070000001,,0.006515877659899208,626.36,0.46000000834465027,-2.597697092209779
627.0517239999999,,0.009510074323658827,626.824,0.4620000123977661,-2.593690432071329
627.5172409999999,,0.006931424914493773,627.29,0.49000000953674316,-2.5330339514713267
627.982759,,0.0008510351931536314,627.75,0.46799999475479126,-2.581293188654195
628.448276,,0.0041652817700729055,628.22,0.43700000643730164,-2.6491336636782665
628.913793,,0.00503204596051756,628.683,0.45899999141693115,-2.601470521567258
629.37931,,0.0024579677604656754,629.146,0.45500001311302185,-2.6104079021173012
629.844828,,0.0002178713672446699,629.617,0.45899999141693115,-2.6018640573711247
630.3103450000001,,7.596953474450468e-05,630.079,0.46799999475479126,-2.5823686335791716
630.7758620000001,,0.0030458709523643102,630.545,0.47200000286102295,-2.5737035920619054
631.2413789999999,,0.006619938581604034,631.01,0.46399998664855957,-2.5911172769314312
631.706897,,0.00784971103604889,631.475,0.4560000002384186,-2.608466142733773
632.172414,,0.0062065864379725515,631.935,0.4690000116825104,-2.580000899596329
632.637931,,0.0036966220432648558,632.4,0.4749999940395355,-2.566727422008357
633.103448,,0.0030224669143284017,632.865,0.4129999876022339,-2.701549926456705
633.568966,,0.005500114228496031,633.331,0.4560000002384186,-2.607571192183274
634.034483,,0.010072998434897262,633.802,0.46299999952316284,-2.5919893558470206
634.5,,0.014035187043513772,634.265,0.46399998664855957,-2.5894540997131346
634.9655170000001,,0.01509646019074512,634.728,0.47999998927116394,-2.554224398535723
635.431034,,0.012978033570927576,635.19,0.4659999907016754,-2.5843508584635893
635.8965519999999,,0.009152452594299722,635.658,0.4390000104904175,-2.642809061642421
636.362069,,0.005438210488051291,636.12,0.45100000500679016,-2.616322123943767
636.827586,,0.00281577726234881,636.586,0.46700000762939453,-2.581153553199779
637.293103,,0.0010845131726290778,637.056,0.46399998664855957,-2.587421705724866
637.7586210000001,,0.00041302167165006484,637.515,0.46700000762939453,-2.5806688222492706
638.224138,,0.0015829734790015495,637.987,0.3610000014305115,-2.811448954215908
638.689655,,0.0015636640130793538,638.445,0.47699999809265137,-2.558636289573055
639.155172,,0.0003550883610900227,638.913,0.453000009059906,-2.6109031508936673
639.62069,,0.00022263087312618228,639.379,0.46399998664855957,-2.5869855885394095
640.086207,,0.0016793267454479584,639.846,0.4650000035762787,-2.584921571244537
640.551724,,0.005183648719019082,640.305,0.4699999988079071,-2.5742065790319693
641.017241,,0.006808594396957285,640.775,0.4339999854564667,-2.6528750266890593
641.482759,,0.003999827736127775,641.238,0.46000000834465027,-2.59651958557645
641.9482760000001,,0.001876345023190665,641.706,0.42800000309944153,-2.6665697602058165
642.413793,,0.0065364208640331335,642.168,0.4659999907016754,-2.584148092779517
642.87931,,0.006694595750071983,642.632,0.46299999952316284,-2.5910723641056945
643.344828,,0.0030652190785078796,643.101,0.4560000002384186,-2.6067199473101663
643.810345,,0.00019361646505881733,643.56,0.45399999618530273,-2.6114708102062227
644.275862,,0.0007552230010153327,644.031,0.4690000116825104,-2.5791685387339918
644.7413789999999,,0.005609478349237556,644.497,0.5460000038146973,-2.4117599984617817
645.206897,,0.009774105779421782,644.962,0.4869999885559082,-2.540604543152545
645.672414,,0.008543505558912312,645.42,0.48100000619888306,-2.5539285706950547
646.1379310000001,,0.001958970133232194,645.887,0.45899999141693115,-2.602052748940069
646.6034480000001,,0.004649574994245292,646.353,0.4779999852180481,-2.56078838057789
647.0689659999999,,0.005746472970011964,646.82,0.578000009059906,-2.342983094820887
647.534483,,0.0013681524052873463,647.286,0.46299999952316284,-2.593513328092817
648.0,,0.0031645311793062755,647.747,0.45899999141693115,-2.6021423503235277
648.465517,,0.0035534467426088607,648.216,0.4569999873638153,-2.606348018164839
648.931034,,0.0010043083898041887,648.679,0.47200000286102295,-2.573455228006266
649.396552,,0.0005142160422564307,649.142,0.46399998664855957,-2.590616377748442
649.862069,,6.615343264074836e-05,649.608,0.47600001096725464,-2.564157580789035
650.327586,,6.658872056307056e-05,650.073,0.46700000762939453,-2.58341332068095
650.7931030000001,,0.0031714953115993677,650.539,0.5019999742507935,-2.5067818626128613
651.258621,,0.007356569663615204,651.005,0.4620000123977661,-2.593533698379459
651.7241379999999,,0.008463854993639896,651.471,0.4569999873638153,-2.6040309811119755
652.189655,,0.00494460612825834,651.936,0.4569999873638153,-2.6036463265761642
652.655172,,0.0001565718818317356,652.401,0.46700000762939453,-2.581498414693895
653.12069,,0.002189104278016837,652.861,0.4490000009536743,-2.620387232470294
653.5862070000001,,0.000500127711189743,653.327,0.45899999141693115,-2.5983188127995462
654.051724,,0.004997515202331746,653.795,0.46000000834465027,-2.5959117632525066
654.517241,,0.006847116425969432,654.257,0.4860000014305115,-2.539098412718638
654.982759,,0.004625492888312239,654.72,0.46299999952316284,-2.5891033096316254
655.448276,,0.001151802043831094,655.19,0.46399998664855957,-2.5868885793488845
655.9137929999999,,7.409812857034458e-05,655.651,0.45100000500679016,-2.615244453396666
656.37931,,0.001940122209008378,656.121,0.46700000762939453,-2.580488123818703
656.844828,,0.004129880531139809,656.587,0.47699999809265137,-2.558868454597771
657.310345,,0.004104590713753738,657.05,0.4129999876022339,-2.6985287706195917
657.7758620000001,,0.001799390698044483,657.516,0.46000000834465027,-2.59641302294424
658.241379,,0.0011767864934653606,657.98,0.46399998664855957,-2.5880238012172008
658.7068969999999,,0.003480945947080718,658.446,0.4690000116825104,-2.577488902079213
659.172414,,0.004302714639538593,658.905,0.46299999952316284,-2.5909408170528616
659.637931,,0.002845994414223239,659.371,0.45500001311302185,-2.6087598704216455
660.103448,,0.0006562114346861257,659.836,0.4699999988079071,-2.5764678210615553
660.568966,,0.003834282472143541,660.302,0.4880000054836273,-2.537624638275702
661.034483,,0.003932207016318093,660.765,0.47999998927116394,-2.555398801748702
661.5,,0.0007060682368085716,661.234,0.4860000014305115,-2.54263337267492
661.965517,,0.003649251096632226,661.698,0.4569999873638153,-2.6060733150810043
662.4310340000001,,0.006975260629236227,662.161,0.4869999885559082,-2.540918023090552
662.8965519999999,,0.008163137568647637,662.631,0.46399998664855957,-2.5911699564359405
663.362069,,0.006448127543837494,663.094,0.45500001311302185,-2.6108558133644095
663.827586,,0.00179437579692701,663.56,0.45100000500679016,-2.6195822524607473
664.293103,,0.003812577938951127,664.02,0.46000000834465027,-2.599920015386935
664.7586210000001,,0.0071445953780929295,664.486,0.45899999141693115,-2.6019797819001758
665.224138,,0.006534049880064424,664.95,0.46299999952316284,-2.593085412388018
665.689655,,0.0031028623396693747,665.415,0.46399998664855957,-2.5906718218822604
666.155172,,0.000849667188150739,665.88,0.46399998664855957,-2.590388988110963
666.62069,,0.0034830294705081666,666.346,0.46399998664855957,-2.59006719526477
667.086207,,0.0034959701944599136,666.81,0.46000000834465027,-2.5984311738900603
667.5517239999999,,0.0005111956587832261,667.276,0.46000000834465027,-2.598062940845225
668.017241,,0.003727717142403246,667.746,0.46399998664855957,-2.588973972244835
668.482759,,0.005997723700056002,668.208,0.4650000035762787,-2.5864261415048424
668.948276,,0.004739089162542961,668.672,0.4569999873638153,-2.603502967078348
669.413793,,0.002022079076409943,669.135,0.46299999952316284,-2.590106425358173
669.87931,,0.0014000367909353926,669.6,0.45899999141693115,-2.5985341792658536
670.3448279999999,,0.0038819381162127583,670.071,0.453000009059906,-2.6113658530172184
670.810345,,0.006799366005616097,670.537,0.46000000834465027,-2.5959292581995186
671.275862,,0.006909285757110556,671.001,0.4560000002384186,-2.6045174503200603
671.7413789999999,,0.003960968581685371,671.46,0.46000000834465027,-2.5957396827655113
672.206897,,0.0006701460331617431,671.925,0.46399998664855957,-2.5870268165497987
672.672414,,0.0003785896701714405,672.39,0.4650000035762787,-2.58491410710148
673.137931,,0.000745450357129892,672.857,0.46399998664855957,-2.5872206839241407
673.6034480000001,,0.0016442817481931798,673.323,0.46000000834465027,-2.5961209443422217
674.068966,,0.00016061297173032682,673.791,0.45399999618530273,-2.6094307188838224
674.5344829999999,,0.0032522723393226104,674.254,0.4519999921321869,-2.6140708013501497
