Trial: ,1
Threshold: ,0.0
Maximum EMG: ,0.46873140627833465
Success: ,True

EMG Time,Raw EMG,Filtered EMG,Force Time,Raw Force (V),Filtered Force (N)
0.0,samples,2.3343602746759996e-11,0.468,0.5540000200271606,-2.391880850992993
0.46551699999999996,time,2.3391848569870926e-11,0.934,0.5419999957084656,-2.418201022328217
0.9310339999999999,value,2.335880509631162e-11,1.399,0.5519999861717224,-2.396622206833172
1.396552,,2.3241079410902358e-11,1.865,0.5440000295639038,-2.4142839472648205
1.862069,,2.3035433889874718e-11,2.332,0.5540000200271606,-2.3927478697360614
2.327586,,2.2738804447028183e-11,2.79,0.5680000185966492,-2.362506699291494
2.793103,,2.2348318949373847e-11,3.258,0.5450000166893005,-2.412876727050244
3.258621,,2.1861315743948173e-11,3.721,0.5709999799728394,-2.3564861857063932
3.724138,,2.1275362234564948e-11,4.191,0.546999990940094,-2.409013149791045
4.189654999999999,,2.0588273444451147e-11,4.654,0.5429999828338623,-2.417945320785204
4.655172,,1.979813049799632e-11,5.121,0.5429999828338623,-2.418134790558684
5.12069,,1.8903298952249844e-11,5.583,0.5709999799728394,-2.3572875470864636
5.586207,,1.790244690634013e-11,6.049,0.5709999799728394,-2.357401928403395
6.051723999999999,,1.679456281467939e-11,6.513,0.5640000104904175,-2.3727221525392865
6.517241,,1.5578972927671632e-11,6.978,0.5540000200271606,-2.3945318955686403
6.982759,,1.425535828167466e-11,7.443,0.5540000200271606,-2.394508366020292
7.448276,,1.2823771158194096e-11,7.909,0.546999990940094,-2.4096895855348546
7.913793000000001,,1.1284650930723165e-11,8.372,0.5509999990463257,-2.400861954190656
8.379309999999998,,9.63883921630105e-12,8.838,0.5540000200271606,-2.394172633325295
8.844828000000001,,7.887594247759328e-12,9.306,0.5730000138282776,-2.352588775308064
9.310345,,6.032604381774496e-12,9.769,0.5540000200271606,-2.3937627288562635
9.775862,,4.076000657258934e-12,10.232,0.6190000176429749,-2.2519052536587907
10.241379,,2.0203683183162502e-12,10.695,0.531000018119812,-2.443363380395027
10.706897,,1.3124278402690852e-13,11.165,0.5370000004768372,-2.4300209923995513
11.172414,,2.3753089968092285e-12,11.628,0.5680000185966492,-2.3622140991508833
11.637931,,4.707824961731359e-12,12.093,0.5669999718666077,-2.3641330991161142
12.103447999999998,,7.124297087311442e-12,12.556,0.5659999847412109,-2.366068589587077
12.568966000000001,,9.619738479273065e-12,13.022,0.47999998927116394,-2.553215248915678
13.034483,,1.2188665410212196e-11,13.488,0.5460000038146973,-2.4092420241081
13.5,,1.4825095407603643e-11,13.954,0.5519999861717224,-2.3960273744074407
13.965517,,1.7522547036853883e-11,14.421,0.5419999957084656,-2.4177137531223845
14.431034,,2.02740414533785e-11,14.886,0.5640000104904175,-2.3697289720319876
14.896552,,2.3072105794572178e-11,15.35,0.5929999947547913,-2.3065398165825224
15.362069,,2.5908778479042193e-11,15.816,0.5649999976158142,-2.3675790092643525
15.827586000000002,,2.8775616476588e-11,16.276,0.5659999847412109,-2.3654821716549805
16.293103,,3.1663704608127137e-11,16.746,0.5400000214576721,-2.4222520365279583
16.758621,,3.4563666930089285e-11,17.209,0.5540000200271606,-2.3919162000372634
17.224138,,3.7465680252725496e-11,17.672,0.593999981880188,-2.304969917442138
17.689655,,4.035948983630944e-11,18.136,0.6119999885559082,-2.2659799785718535
18.155172,,4.3234427303344364e-11,18.606,0.5669999718666077,-2.364263719636591
18.62069,,4.6079430798637186e-11,19.071,0.5540000200271606,-2.392843500364215
19.086207,,4.888306742246556e-11,19.535,0.5680000185966492,-2.3626061455080896
19.551724,,5.163355795505125e-11,20.0,0.5519999861717224,-2.397726694784443
20.017241000000002,,5.4318803883173043e-11,20.465,0.5419999957084656,-2.419766219942431
20.482758999999998,,5.69264167320153e-11,20.931,0.5669999718666077,-2.3655365766524366
20.948276,,5.944374969726536e-11,21.396,0.5509999990463257,-2.4006072436633548
21.413793000000002,,6.185793156405939e-11,21.861,0.5419999957084656,-2.4203970034311
21.87931,,6.415590289064677e-11,22.321,0.5419999957084656,-2.420543471724696
22.344828,,6.632445442561516e-11,22.787,0.5450000166893005,-2.414113991902101
22.810344999999998,,6.835026771821228e-11,23.254,0.5720000267028809,-2.355352918199281
23.275862,,7.021995787173628e-11,23.717,0.515999972820282,-2.4773736588762305
23.741379,,7.192011838016745e-11,24.18,0.5630000233650208,-2.3749470246182023
24.206897,,7.343736797820542e-11,24.65,0.5410000085830688,-2.422801355639436
24.672414,,7.475839942468356e-11,25.121,0.515999972820282,-2.477148097994097
25.137931,,7.587003012898532e-11,25.576,0.5410000085830688,-2.4225228061668744
25.603448,,7.675925451961536e-11,26.041,0.5540000200271606,-2.394005687024012
26.068966,,7.74132980435135e-11,26.505,0.5659999847412109,-2.3676360113946444
26.534483,,7.781967267407575e-11,26.971,0.5680000185966492,-2.3630271810726478
27.0,,7.796623379519868e-11,27.435,0.5419999957084656,-2.4194027376336846
27.465517,,7.784123831802914e-11,27.9,0.5690000057220459,-2.3603003492065637
27.931034,,7.743340387651791e-11,28.367,0.5379999876022339,-2.427558656475884
28.396552,,7.673196893738403e-11,28.833,0.5540000200271606,-2.3924281669594367
28.862069,,7.572675364973809e-11,29.297,0.5649999976158142,-2.368206970545917
29.327586,,7.440822124942893e-11,29.76,0.5509999990463257,-2.3984753451415206
29.793103000000002,,7.276753982321439e-11,30.228,0.5419999957084656,-2.4178816442457203
30.258620999999998,,7.079664422815728e-11,30.691,0.5429999828338623,-2.415539607788773
30.724138,,6.848829795225773e-11,31.161,0.5460000038146973,-2.4088836836160112
31.189655000000002,,6.583615469330142e-11,31.624,0.5059999823570251,-2.495957844585508
31.655172000000004,,6.283481942427536e-11,32.089,0.5419999957084656,-2.417505936355357
32.12069,,5.947990870552902e-11,32.552,0.5540000200271606,-2.3913930232188294
32.586207,,5.576810999618567e-11,33.018,0.4779999852180481,-2.5570524300381767
33.051724,,5.169723971018701e-11,33.486,0.5460000038146973,-2.4090363613639862
33.517241000000006,,4.726629975583224e-11,33.945,0.5659999847412109,-2.365640295972403
33.982759,,4.2475532291799875e-11,34.417,0.5669999718666077,-2.3636759893055626
34.448276,,3.732647242746589e-11,34.875,0.5450000166893005,-2.4118515123668294
34.913793,,3.18219985909034e-11,35.34,0.5649999976158142,-2.3685480116321784
35.37931,,2.5966380284315928e-11,35.806,0.5360000133514404,-2.432014471236932
35.844828,,1.9765322943864336e-11,36.276,0.550000011920929,-2.401807125433723
36.310345,,1.3226009618944497e-11,36.739,0.5460000038146973,-2.41081477229177
36.775862,,6.357139185002697e-12,37.202,0.550000011920929,-2.402383402442664
37.241378999999995,,8.31039196016963e-13,37.665,0.5649999976158142,-2.369968169061798
37.706897000000005,,8.326695652472326e-12,38.135,0.5540000200271606,-2.3941704554595473
38.172414,,1.611639349986302e-11,38.598,0.5419999957084656,-2.4205173069201478
38.637931,,2.4185067737319018e-11,39.064,0.5669999718666077,-2.366213897543896
39.103448,,3.2516008419028157e-11,39.528,0.5410000085830688,-2.4229759685590495
39.568965999999996,,4.109084917040686e-11,39.994,0.5540000200271606,-2.3947218703058746
40.034483,,4.9889561112133464e-11,40.461,0.5490000247955322,-2.405632464989375
40.5,,5.88904524472526e-11,40.926,0.5619999766349792,-2.37727551945126
40.965517,,6.807017395739666e-11,41.392,0.5540000200271606,-2.394618710290708
41.431034,,7.740373064373537e-11,41.85,0.5659999847412109,-2.368340103344338
41.896552,,8.686449973653863e-11,42.317,0.5410000085830688,-2.4226265611894564
42.362069000000005,,9.642425528420846e-11,42.783,0.5529999732971191,-2.3962641501745074
42.827586000000004,,1.0605319951829139e-10,43.25,0.5379999876022339,-2.4286930398458293
43.293103,,1.157200011753189e-10,43.712,0.5410000085830688,-2.421881919357482
43.758621,,1.2539184093933795e-10,44.18,0.5419999957084656,-2.4194122744265822
44.224138,,1.350344641506917e-10,44.643,0.4129999876022339,-2.7001621732687884
44.689655,,1.4461224090699817e-10,45.109,0.5460000038146973,-2.4101121931287186
45.155172,,1.5408823366136692e-10,45.572,0.503000020980835,-2.5035174752366225
45.620689999999996,,1.6342427240070844e-10,46.038,0.5669999718666077,-2.363826366944292
46.086206999999995,,1.725810374635528e-10,46.503,0.5429999828338623,-2.415881485696543
46.551724,,1.8151815003213125e-10,46.968,0.45399999618530273,-2.609582095269287
47.017241,,1.9019427030762334e-10,47.433,0.5429999828338623,-2.415524315416097
47.482759,,1.985672033504716e-10,47.898,0.5509999990463257,-2.3979807949430603
47.948276,,2.0659401253956484e-10,48.365,0.5640000104904175,-2.3695887025188447
48.413793,,2.142311405749408e-10,48.831,0.5419999957084656,-2.4174957104611856
48.879310000000004,,2.2143453791851837e-10,49.291,0.5519999861717224,-2.3957332383207577
49.344828,,2.281597985363036e-10,49.761,0.5379999876022339,-2.426305201911901
49.810345,,2.34362302773592e-10,50.224,0.5410000085830688,-2.4198851969956165
50.275862,,2.3999736716198893e-10,50.687,0.5440000295639038,-2.413507072439412
50.741379,,2.4502040092367756e-10,51.155,0.550000011920929,-2.400630172465773
51.206897,,2.4938706890436105e-10,51.617,0.5540000200271606,-2.3921416929068045
51.672414,,2.5305346063179525e-10,52.083,0.5630000233650208,-2.372784306512132
52.137931,,2.5597626516190426e-10,52.546,0.5419999957084656,-2.418803697538995
52.603448,,2.58112951339247e-10,53.012,0.5540000200271606,-2.3929376393331494
53.068966,,2.594219530631858e-10,53.476,0.5389999747276306,-2.42589776752998
53.534483,,2.5986285911561746e-10,53.942,0.546999990940094,-2.4087436454626157
54.0,,2.593966070706879e-10,54.406,0.5460000038146973,-2.411184453824194
54.465517,,2.579856807716517e-10,54.872,0.546999990940094,-2.409247587897847
54.931034,,2.5559431082508775e-10,55.34,0.5410000085830688,-2.422534048599188
55.396552,,2.5218867752818487e-10,55.805,0.5540000200271606,-2.394392938684014
55.862069,,2.4773711561090523e-10,56.266,0.5540000200271606,-2.3945355374994737
56.327586,,2.4221032014166643e-10,56.736,0.5339999794960022,-2.4382085407141076
56.793102999999995,,2.355815529129052e-10,57.198,0.5419999957084656,-2.4208343243342507
57.258621000000005,,2.278268485916511e-10,57.661,0.5419999957084656,-2.420842890643213
57.724138,,2.1892521989020226e-10,58.132,0.5540000200271606,-2.394660473384497
58.189655,,2.0885886098331719e-10,58.594,0.5460000038146973,-2.4120046887000055
58.655172,,1.976133483711773e-10,59.06,0.5490000247955322,-2.4053395684227317
59.120689999999996,,1.851778383618959e-10,59.525,0.5419999957084656,-2.420420661983611
59.586207,,1.7154526032371568e-10,59.991,0.5540000200271606,-2.394071596752487
60.051724,,1.567125048354104e-10,60.45,0.5419999957084656,-2.4199801327086234
60.517241,,1.4068060584395362e-10,60.916,0.5770000219345093,-2.343468105686419
60.982758999999994,,1.2345491592139886e-10,61.382,0.5210000276565552,-2.465196511938963
61.448276,,1.0504527369829449e-10,61.847,0.574999988079071,-2.347265128599191
61.913793,,8.546616253899286e-11,62.31,0.5540000200271606,-2.3927312860464474
62.379310000000004,,6.473685951506386e-11,62.779,0.546999990940094,-2.4077035237168247
62.84482800000001,,4.2881573726842455e-11,63.247,0.5540000200271606,-2.3921900780446603
63.310345000000005,,1.9929573020077917e-11,63.71,0.5419999957084656,-2.4180942735470174
63.775862000000004,,4.084701855144524e-12,64.173,0.5540000200271606,-2.391740994366669
64.241379,,2.912153659243133e-11,64.635,0.5669999718666077,-2.3632450632080375
64.706897,,5.513585712613243e-11,65.101,0.5709999799728394,-2.3543970155302425
65.172414,,8.207715880867898e-11,65.571,0.546999990940094,-2.406595378101625
65.637931,,1.0988945188486967e-10,66.036,0.515999972820282,-2.474092791794851
66.103448,,1.3851122416127132e-10,66.495,0.44999998807907104,-2.617895553920418
66.56896599999999,,1.678754217464024e-10,66.96,0.5669999718666077,-2.3630589419832817
67.03448300000001,,1.9790944871077863e-10,67.432,0.5540000200271606,-2.391495220345103
67.5,,2.2853518648513524e-10,67.89,0.5339999794960022,-2.435226262181229
67.965517,,2.5966903378013084e-10,68.357,0.5669999718666077,-2.3635286840014977
68.431034,,2.9122196777152517e-10,68.823,0.5540000200271606,-2.3920824081052237
68.896552,,3.230996272511603e-10,69.291,0.5540000200271606,-2.3923405885935214
69.362069,,3.552024183960288e-10,69.754,0.5419999957084656,-2.418762481126857
69.827586,,3.8742564375526907e-10,70.217,0.5519999861717224,-2.3972662270226883
70.293103,,4.196596549980799e-10,70.687,0.5690000057220459,-2.3605227465823058
70.75862099999999,,4.517900299043101e-10,71.15,0.5699999928474426,-2.3586318514000815
71.22413800000001,,4.836977740138766e-10,71.613,0.5440000295639038,-2.4155504151708973
71.689655,,5.152595472812505e-10,72.079,0.5540000200271606,-2.394016710798138
72.15517200000001,,5.463479160070805e-10,72.545,0.5400000214576721,-2.4247427374752997
72.62069,,5.768316302406819e-10,73.011,0.5669999718666077,-2.3661098347281766
73.086207,,6.065759267647008e-10,73.476,0.5460000038146973,-2.4120116829849403
73.551724,,6.354428576868933e-10,73.941,0.5669999718666077,-2.366365742917187
74.017241,,6.632916445737652e-10,74.406,0.5540000200271606,-2.3947458563815376
74.482759,,6.899790579669654e-10,74.871,0.5690000057220459,-2.3620742291593864
74.94827599999999,,7.153598220259853e-10,75.335,0.5640000104904175,-2.372925388436446
75.41379300000001,,7.392870439400865e-10,75.801,0.5450000166893005,-2.414228954706652
75.87931,,7.616126676486769e-10,76.261,0.546999990940094,-2.409735658530335
76.344828,,7.821879513028121e-10,76.731,0.5460000038146973,-2.4117371213312047
76.810345,,8.008639677913839e-10,77.195,0.5460000038146973,-2.411523902821853
77.275862,,8.174921275441342e-10,77.657,0.5379999876022339,-2.428710072339412
77.741379,,8.319247227102093e-10,78.121,0.5419999957084656,-2.4197296577130785
78.206897,,8.440154916958585e-10,78.591,0.5669999718666077,-2.3649819689059854
78.67241399999999,,8.536202029284212e-10,79.056,0.550000011920929,-2.4017289443906544
79.137931,,8.605972565962949e-10,79.52,0.5659999847412109,-2.3665802408951597
79.603448,,8.648083029965106e-10,79.986,0.550000011920929,-2.4011560447026707
80.068966,,8.661188760032519e-10,80.45,0.5540000200271606,-2.392175016427101
80.53448300000001,,8.643990400525549e-10,80.916,0.5419999957084656,-2.4180765323335853
81.0,,8.595240489209447e-10,81.38,0.5540000200271606,-2.391721523492965
81.465517,,8.513750144593496e-10,81.845,0.5540000200271606,-2.3915473461005203
81.931034,,8.398395833287467e-10,82.306,0.5540000200271606,-2.3914149429977765
82.396552,,8.248126196711015e-10,82.777,0.5669999718666077,-2.363005579476412
82.86206899999999,,8.061968915387649e-10,83.239,0.5419999957084656,-2.41743266529553
83.327586,,7.83903758798086e-10,83.702,0.5529999732971191,-2.3934781394759326
83.79310299999999,,7.578538601190891e-10,84.17,0.5519999861717224,-2.3957168947676313
84.258621,,7.279777965631835e-10,84.632,0.5699999928474426,-2.356608812188405
84.72413800000001,,6.942168091855514e-10,85.098,0.5429999828338623,-2.4155843960366163
85.189655,,6.56523447978622e-10,85.561,0.5400000214576721,-2.422313258999241
85.65517200000001,,6.14862229398433e-10,86.027,0.5789999961853027,-2.3375744877049986
86.12069,,5.692102796372555e-10,86.493,0.5649999976158142,-2.368332032871815
86.586207,,5.195579607341547e-10,86.958,0.5389999747276306,-2.425254489054846
87.051724,,4.659094765507214e-10,87.425,0.5419999957084656,-2.4190104822555742
87.517241,,4.082834555825912e-10,87.89,0.5519999861717224,-2.397522403177858
87.98275899999999,,3.467135075290939e-10,88.35,0.546999990940094,-2.408711620013976
88.448276,,2.8124875050399427e-10,88.816,0.5419999957084656,-2.4198900557558565
88.913793,,2.1195430574030504e-10,89.284,0.5419999957084656,-2.4201565450343514
89.37931,,1.389117566220993e-10,89.746,0.5540000200271606,-2.3942526115223703
89.844828,,6.221956886661657e-11,90.217,0.5929999947547913,-2.3094904685141704
90.310345,,1.800653131876973e-11,90.68,0.5299999713897705,-2.446909198132899
90.775862,,1.016332242675097e-10,91.143,0.5419999957084656,-2.420884319586285
91.241379,,1.8850931221108085e-10,91.605,0.5540000200271606,-2.3948115168382134
91.706897,,2.78465486064052e-10,92.071,0.5730000138282776,-2.3534369973282976
92.17241399999999,,3.7131414668927336e-10,92.535,0.5540000200271606,-2.3947984797152806
92.63793100000001,,4.668492836331017e-10,93.001,0.5759999752044678,-2.346783461803107
93.103448,,5.648464142448651e-10,93.468,0.5419999957084656,-2.4207230613165147
93.568966,,6.65062586005404e-10,93.934,0.5680000185966492,-2.3638981591243335
94.03448300000001,,7.672364447862383e-10,94.398,0.5690000057220459,-2.36149868468395
94.5,,8.710883716434538e-10,94.864,0.6790000200271606,-2.121589162379987
94.965517,,9.763206906185991e-10,95.329,0.5680000185966492,-2.363129315651886
95.431034,,1.0826179498725746e-09,95.795,0.5460000038146973,-2.4107489192152434
95.896552,,1.1896472783175736e-09,96.257,0.5630000233650208,-2.3733921579760993
96.36206899999999,,1.2970588197365512e-09,96.72,0.546999990940094,-2.4079315697881087
96.827586,,1.4044862461894366e-09,97.191,0.5379999876022339,-2.4272309737915916
97.293103,,1.5115473523004139e-09,97.653,0.5440000295639038,-2.4138708574290964
97.758621,,1.6178447318011836e-09,98.124,0.5460000038146973,-2.4092542751853894
98.224138,,1.7229665374713149e-09,98.587,0.5509999990463257,-2.398137898429993
98.689655,,1.8264873253688344e-09,99.045,0.5329999923706055,-2.437173370625723
99.155172,,1.9279689839823472e-09,99.51,0.5699999928474426,-2.3564312322605887
99.62069,,2.0269617486605753e-09,99.976,0.48399999737739563,-2.5437154879631545
100.086207,,2.123005301386623e-09,100.443,0.5630000233650208,-2.3715784518947736
100.551724,,2.215629955663003e-09,100.909,0.5540000200271606,-2.3912178905210277
101.017241,,2.3043579259599996e-09,101.376,0.5509999990463257,-2.3978385859439286
101.482759,,2.3887046808549015e-09,101.841,0.5669999718666077,-2.3631154186071988
101.948276,,2.4681803786536698e-09,102.302,0.5519999861717224,-2.395976379701014
102.413793,,2.542291383940435e-09,102.765,0.574999988079071,-2.346089186317098
102.87931,,2.610541863144639e-09,103.235,0.5519999861717224,-2.3964536151080393
103.344828,,2.672435456851497e-09,103.698,0.5460000038146973,-2.4098077106812257
103.810345,,2.727477026209716e-09,104.161,0.5540000200271606,-2.3926796638514345
104.275862,,2.775174470412029e-09,104.631,0.5299999713897705,-2.44527888273292
104.741379,,2.8150406118401587e-09,105.097,0.546999990940094,-2.4085549494630616
105.206897,,2.846595145077472e-09,105.559,0.5419999957084656,-2.419753626924996
105.672414,,2.8693666456009734e-09,106.025,0.5529999732971191,-2.3960769215068836
106.13793100000001,,2.882894633570694e-09,106.49,0.5419999957084656,-2.420304719920475
106.603448,,2.886731687740258e-09,106.957,0.5379999876022339,-2.4292488785215824
107.068966,,2.8804456041188633e-09,107.416,0.5630000233650208,-2.3749720481086567
107.534483,,2.8636215936235254e-09,107.882,0.5460000038146973,-2.4121523827262124
108.0,,2.835864512572626e-09,108.347,0.5419999957084656,-2.4209600280193047
108.46551699999999,,2.7968011194892082e-09,108.813,0.5540000200271606,-2.3948564742878107
108.931034,,2.7460823513066067e-09,109.276,0.5699999928474426,-2.35998381679368
109.396552,,2.6833856117015215e-09,109.746,0.5460000038146973,-2.412202475142097
109.862069,,2.608417063922259e-09,110.209,0.5400000214576721,-2.4251536309747634
110.32758600000001,,2.5209139201341954e-09,110.672,0.5450000166893005,-2.4140920648468156
110.793103,,2.4206467189724003e-09,111.14,0.5540000200271606,-2.3942729990732423
111.258621,,2.307421582674491e-09,111.602,0.5400000214576721,-2.4245260629798175
111.724138,,2.1810824448669957e-09,112.067,0.546999990940094,-2.408998310630085
112.189655,,2.041513239797571e-09,112.532,0.5720000267028809,-2.354233196681537
112.655172,,1.88864004354519e-09,112.997,0.5540000200271606,-2.3931366646367045
113.12069,,1.7224331575026659e-09,113.461,0.5649999976158142,-2.368855169007844
113.586207,,1.5429091242124675e-09,113.927,0.5540000200271606,-2.3925092310327063
114.051724,,1.350132665449524e-09,114.391,0.5680000185966492,-2.361711708230177
114.51724100000001,,1.1442185322853572e-09,114.857,0.5770000219345093,-2.3418304023949488
114.982759,,9.253332567382577e-10,115.322,0.5630000233650208,-2.3720889089038613
115.448276,,6.936967945160318e-10,115.787,0.5429999828338623,-2.4154583668362375
115.913793,,4.495840482928315e-10,116.25,0.5540000200271606,-2.3913355210057166
116.37931,,1.933262609313799e-10,116.72,0.546999990940094,-2.4064794413168014
116.84482799999999,,7.468773193185646e-11,117.18,0.5419999957084656,-2.417320394067559
117.310345,,3.540104004767705e-10,117.65,0.5540000200271606,-2.391180442546466
117.77586199999999,,6.441345809195196e-10,118.121,0.5370000004768372,-2.4282775280484943
118.241379,,9.444927076921845e-10,118.576,0.5640000104904175,-2.3695682766631743
118.70689700000001,,1.2544562277453627e-09,119.041,0.5450000166893005,-2.411127483787247
119.172414,,1.5733352069266777e-09,119.505,0.5529999732971191,-2.3939090107025285
119.63793100000001,,1.9003781381334417e-09,119.971,0.5540000200271606,-2.3919803793002017
120.103448,,2.2347719606373933e-09,120.436,0.550000011920929,-2.400977009824431
120.568966,,2.575642299632642e-09,120.902,0.5730000138282776,-2.3511732321809307
121.034483,,2.9220539346639323e-09,121.369,0.5540000200271606,-2.3928862741785695
121.5,,3.273011505150452e-09,121.835,0.5540000200271606,-2.3932092835973586
121.96551699999999,,3.62746046073015e-09,122.298,0.5630000233650208,-2.3739192378537064
122.431034,,3.9842882636105625e-09,122.76,0.5989999771118164,-2.2957900275226724
122.896552,,4.342325849524299e-09,123.23,0.5419999957084656,-2.4202498285573153
123.362069,,4.700349353250577e-09,123.692,0.5519999861717224,-2.3987079906189446
123.827586,,5.0570821039786965e-09,124.157,0.5669999718666077,-2.3662338433882026
124.293103,,5.41119689505543e-09,124.627,0.5379999876022339,-2.429574787770324
124.758621,,5.761318531876494e-09,125.085,0.5419999957084656,-2.420970857228775
125.22413800000001,,6.10602666085332e-09,125.556,0.5540000200271606,-2.394885058675814
125.68965500000002,,6.44385888151111e-09,126.021,0.5440000295639038,-2.4166747961735267
126.15517200000001,,6.773314142853857e-09,126.48,0.5540000200271606,-2.394836580265205
126.62069000000001,,7.09285642416783e-09,126.946,0.5419999957084656,-2.420875135892013
127.086207,,7.400918699428661e-09,127.414,0.546999990940094,-2.4098262461778863
127.55172400000001,,7.69590718343033e-09,127.88,0.5540000200271606,-2.394374021295416
128.017241,,7.97620585666892e-09,128.347,0.5419999957084656,-2.420276012952394
128.48275900000002,,8.240181264892357e-09,128.805,0.5540000200271606,-2.393857233611607
128.948276,,8.486187588071802e-09,129.273,0.5320000052452087,-2.4414877651433695
129.413793,,8.712571972363607e-09,129.735,0.5519999861717224,-2.3975992054292985
129.87931,,8.917680117415649e-09,130.206,0.5389999747276306,-2.4255993929938438
130.344828,,9.099862110131566e-09,130.668,0.5540000200271606,-2.3925999219534133
130.81034499999998,,9.25747849474416e-09,131.132,0.5649999976158142,-2.3683267297347124
131.275862,,9.388906567768716e-09,131.602,0.5410000085830688,-2.420326588754506
131.741379,,9.492546885111881e-09,132.06,0.5540000200271606,-2.391745823934484
132.206897,,9.566829967306068e-09,132.527,0.5440000295639038,-2.413311256044515
132.67241399999997,,9.610223187527193e-09,132.993,0.550000011920929,-2.4000622730049637
133.13793099999998,,9.621237825739542e-09,133.458,0.550000011920929,-2.3999343799295825
133.60344800000001,,9.598436271000101e-09,133.923,0.5419999957084656,-2.41728890601204
134.06896600000002,,9.54043935265067e-09,134.388,0.5339999794960022,-2.4346994296718942
134.53448300000002,,9.445933779834357e-09,134.854,0.5460000038146973,-2.4085938004491605
135.0,,9.313679667498901e-09,135.32,0.5460000038146973,-2.4086876355026017
135.465517,,9.142518125797904e-09,135.786,0.5640000104904175,-2.3696181728711374
135.931034,,8.931378888577902e-09,136.247,0.5540000200271606,-2.3915985954543086
136.396552,,8.679287955449973e-09,136.717,0.5419999957084656,-2.4179787608199184
136.862069,,8.38537522079478e-09,137.177,0.5490000247955322,-2.403000492385196
137.327586,,8.048882061945558e-09,137.646,0.5350000262260437,-2.43380221862164
137.793103,,7.669168857740307e-09,138.112,0.5479999780654907,-2.405800163087007
138.258621,,7.2457224076385076e-09,138.57,0.546999990940094,-2.4083090679516754
138.724138,,6.778163220664847e-09,139.036,0.5419999957084656,-2.419532718029344
139.189655,,6.2662526425789474e-09,139.502,0.5419999957084656,-2.4198536698607604
139.655172,,5.709899788881903e-09,139.967,0.5460000038146973,-2.411441005905066
140.12069,,5.109168250563673e-09,140.431,0.5350000262260437,-2.43568007030487
140.586207,,4.464282538875995e-09,140.897,0.5509999990463257,-2.401059527706295
141.05172399999998,,3.7756342348896074e-09,141.362,0.5419999957084656,-2.4208615462022047
141.51724099999998,,3.0437878091679327e-09,141.828,0.5720000267028809,-2.355646088483806
141.982759,,2.2694860765679736e-09,142.291,0.5699999928474426,-2.360092092693537
142.44827600000002,,1.453655250968509e-09,142.76,0.5649999976158142,-2.371015328622494
142.913793,,5.974095646314146e-10,143.221,0.5540000200271606,-2.3949512194208036
143.37931,,2.9794458307059756e-10,143.69,0.5419999957084656,-2.421008180229331
143.844828,,1.230904982672185e-09,144.154,0.5920000076293945,-2.3119333699960087
144.310345,,2.1997705122057426e-09,144.616,0.5440000295639038,-2.4163141710643092
144.77586200000002,,3.2026386097675033e-09,145.082,0.5339999794960022,-2.437861296855316
145.241379,,4.237403354899438e-09,145.546,0.5669999718666077,-2.3656890495421323
145.706897,,5.3017541919185425e-09,146.011,0.5669999718666077,-2.3653820536006305
146.172414,,6.3931753274679635e-09,146.476,0.5379999876022339,-2.428234794413279
146.637931,,7.508945833555198e-09,146.942,0.5540000200271606,-2.3930378388006006
147.103448,,8.646140486178423e-09,147.407,0.550000011920929,-2.401413672902337
147.568966,,9.80163136832022e-09,147.872,0.5540000200271606,-2.3923699215214134
148.034483,,1.0972090264606496e-08,148.34,0.550000011920929,-2.4007749123886213
148.5,,1.2153991873285671e-08,148.805,0.5699999928474426,-2.356920852592127
148.965517,,1.3343617859378135e-08,149.265,0.5490000247955322,-2.402427983273158
149.43103399999998,,1.4537061770877922e-08,149.735,0.5630000233650208,-2.37172667703593
149.89655199999999,,1.573023483775748e-08,150.198,0.5440000295639038,-2.412971292527701
150.362069,,1.691887267123295e-08,150.661,0.5540000200271606,-2.3910904616568245
150.82758600000003,,1.8098542878292525e-08,151.129,0.5730000138282776,-2.3496596685907405
151.293103,,1.926465360387637e-08,151.591,0.5360000133514404,-2.4302920914000286
151.758621,,2.0412463010325156e-08,152.056,0.5649999976158142,-2.367192489543258
152.224138,,2.1537089700789058e-08,152.52,0.5649999976158142,-2.367329749490161
152.68965500000002,,2.2633524090213624e-08,152.986,0.5529999732971191,-2.393662594967141
153.155172,,2.369664072429779e-08,153.45,0.47600001096725464,-2.561655579377429
153.62069,,2.472121154345752e-08,153.916,0.5540000200271606,-2.392000662868858
154.086207,,2.5701920085332397e-08,154.384,0.5540000200271606,-2.392313170681017
154.551724,,2.6633376615748108e-08,154.849,0.5370000004768372,-2.4296849110949643
155.017241,,2.751013417430311e-08,155.317,0.5540000200271606,-2.3929948027146453
155.482759,,2.832670551689033e-08,155.775,0.5540000200271606,-2.39334321120167
155.948276,,2.9077580933504154e-08,156.246,0.5419999957084656,-2.419826194561873
156.413793,,2.9757246915628106e-08,156.709,0.5440000295639038,-2.415788761986842
156.87931,,3.036020564336044e-08,157.177,0.5540000200271606,-2.394293213587444
157.34482799999998,,3.088099525822445e-08,157.639,0.5630000233650208,-2.3749377753016288
157.81034499999998,,3.131421088333929e-08,158.105,0.5929999947547913,-2.3097834346874895
158.275862,,3.16545263483081e-08,158.568,0.5440000295639038,-2.4166882641261687
158.741379,,3.189671657182693e-08,159.034,0.5630000233650208,-2.3753873852204466
159.20689700000003,,3.203568055064403e-08,159.5,0.5540000200271606,-2.395028592546323
159.672414,,3.2066464899119385e-08,159.966,0.550000011920929,-2.403715557733474
160.137931,,3.198428787926429e-08,160.425,0.5669999718666077,-2.3665908345385627
160.60344800000001,,3.178456385679593e-08,160.891,0.6119999885559082,-2.268404999620526
161.06896600000002,,3.1462928114439616e-08,161.358,0.5770000219345093,-2.344455460819835
161.534483,,3.1015261949468146e-08,161.823,0.5429999828338623,-2.418279243276246
162.0,,3.0437717978301405e-08,162.291,0.5419999957084656,-2.420169067575255
162.465517,,2.9726745566918374e-08,162.754,0.5460000038146973,-2.411136806955396
162.931034,,2.8879116301876326e-08,163.217,0.5540000200271606,-2.3933706080705055
163.396552,,2.7891949412907515e-08,163.68,0.5659999847412109,-2.3668803548454407
163.862069,,2.6762737054391157e-08,164.15,0.5519999861717224,-2.3970356118268077
164.327586,,2.5489369349497973e-08,164.613,0.5419999957084656,-2.418488024434846
164.793103,,2.4070159097495733e-08,165.079,0.5630000233650208,-2.3724244668778245
165.258621,,2.2503866041607093e-08,165.544,0.5389999747276306,-2.4244318034977375
165.72413799999998,,2.078972059194584e-08,166.01,0.5419999957084656,-2.4176558892949456
166.189655,,1.8927446895444716e-08,166.477,0.5540000200271606,-2.3913198591914955
166.655172,,1.6917285142347434e-08,166.935,0.5540000200271606,-2.3911805961988675
167.12069,,1.4760012996789471e-08,167.402,0.5540000200271606,-2.3910980873364465
167.58620699999997,,1.2456966037256494e-08,167.868,0.5389999747276306,-2.4237547626812734
168.051724,,1.0010057091305855e-08,168.335,0.5690000057220459,-2.3584318935695188
168.517241,,7.421794347884504e-09,168.801,0.5540000200271606,-2.3912062142305324
168.98275900000002,,4.695298129894959e-09,169.261,0.5730000138282776,-2.3499609996375947
169.44827600000002,,1.834316209368126e-09,169.731,0.5519999861717224,-2.3959115420325032
169.913793,,1.1567624522844603e-09,170.195,0.550000011920929,-2.400511647652043
170.37931,,4.2728956559288e-09,170.657,0.5540000200271606,-2.392076799516841
170.844828,,7.508377724289065e-09,171.121,0.5519999861717224,-2.3967421594362954
171.310345,,1.0856831184029278e-08,171.591,0.5669999718666077,-2.3643889388408317
171.775862,,1.431120048301083e-08,172.056,0.5540000200271606,-2.3930460091516426
172.241379,,1.7863747853013012e-08,172.521,0.5509999990463257,-2.399915068587055
172.706897,,2.150605142531998e-08,172.98,0.5680000185966492,-2.363199330423665
173.172414,,2.52290057031864e-08,173.446,0.527999997138977,-2.4506454275864975
173.637931,,2.9022824491285738e-08,173.912,0.5540000200271606,-2.394270975093776
174.103448,,3.287704637781117e-08,174.377,0.5649999976158142,-2.370538195492785
174.568966,,3.678054285993283e-08,174.842,0.5419999957084656,-2.420833853422753
175.034483,,4.072152919781092e-08,175.314,0.5659999847412109,-2.3686820762729033
175.5,,4.4687578076318635e-08,175.773,0.5540000200271606,-2.3949063939169
175.96551699999998,,4.8665636147040384e-08,176.236,0.5709999799728394,-2.3578922517880327
176.43103399999998,,5.26420435159784e-08,176.705,0.5339999794960022,-2.4384670403389563
176.896552,,5.6602556234727955e-08,177.166,0.6399999856948853,-2.2074372626954886
177.36206900000002,,6.053237184467109e-08,177.635,0.5419999957084656,-2.4207958028563357
177.827586,,6.44161580149971e-08,178.1,0.574999988079071,-2.3487010764098724
178.293103,,6.823808430609349e-08,178.564,0.5519999861717224,-2.398567819632169
178.758621,,7.198185708007362e-08,179.029,0.5070000290870667,-2.4963305975495165
179.224138,,7.563075756993094e-08,179.495,0.5400000214576721,-2.424134810007115
179.68965500000002,,7.916768310804738e-08,179.96,0.5180000066757202,-2.4717499752051393
180.155172,,8.257519150355505e-08,180.425,0.550000011920929,-2.401712456701802
180.62069,,8.58355485463733e-08,180.891,0.5640000104904175,-2.3708936637081206
181.086207,,8.89307786036412e-08,181.35,0.5830000042915344,-2.3291926797571025
181.551724,,9.184271826176368e-08,181.816,0.550000011920929,-2.4008012598459327
182.01724099999998,,9.45530729544136e-08,182.284,0.546999990940094,-2.4070797342503902
182.482759,,9.704347650361312e-08,182.746,0.5540000200271606,-2.3916091449252876
182.948276,,9.929555348748781e-08,183.217,0.5360000133514404,-2.4306489913658242
183.413793,,1.0129098433448023e-07,183.679,0.5460000038146973,-2.4087362347930665
183.87931,,1.0301157302976446e-07,184.143,0.5540000200271606,-2.3912336532345275
184.34482799999998,,1.0443931730535763e-07,184.605,0.546999990940094,-2.4064654110408576
184.81034499999998,,1.0555648117102296e-07,185.071,0.48399999737739563,-2.5437575076696226
185.27586200000002,,1.0634566962854353e-07,185.535,0.5540000200271606,-2.3913449933212134
185.74137900000002,,1.0678990539736584e-07,186.001,0.5540000200271606,-2.3914891035361565
186.206897,,1.0687270746501478e-07,186.466,0.5649999976158142,-2.367712979608466
186.672414,,1.0657817126111882e-07,186.931,0.5490000247955322,-2.4027989618449177
187.137931,,1.058910502394104e-07,187.399,0.5630000233650208,-2.3725571813324975
187.60344800000001,,1.0479683863773508e-07,187.864,0.5419999957084656,-2.4185919536172413
188.06896600000002,,1.0328185517197273e-07,188.328,0.5540000200271606,-2.3927465658941
188.534483,,1.0133332740590293e-07,188.794,0.5009999871253967,-2.5085207240977434
189.0,,9.893947652549724e-08,189.262,0.5460000038146973,-2.410786016404295
189.465517,,9.608960223295327e-08,189.724,0.550000011920929,-2.4023648293375732
189.931034,,9.277416746306393e-08,190.187,0.5540000200271606,-2.3939226155969116
190.39655199999999,,8.89848826123036e-08,190.65,0.5519999861717224,-2.398523032569731
190.862069,,8.471478895937845e-08,191.121,0.546999990940094,-2.409622865802102
191.327586,,7.995834094499604e-08,191.583,0.5419999957084656,-2.4206805489839365
191.793103,,7.471148696832596e-08,192.049,0.5370000004768372,-2.431691755231192
192.25862099999998,,6.897174834811747e-08,192.513,0.5379999876022339,-2.429581619258978
192.72413799999998,,6.273829608777779e-08,192.978,0.5720000267028809,-2.3555241166361007
193.189655,,5.601202507596457e-08,193.443,0.578000009059906,-2.3424155072233748
193.655172,,4.8795625347473567e-08,193.909,0.5419999957084656,-2.4207580430305176
194.12069000000002,,4.109365002347574e-08,194.376,0.5680000185966492,-2.3639759810560093
194.586207,,3.291257954554124e-08,194.841,0.5649999976158142,-2.370330902893129
195.051724,,2.426088181444577e-08,195.302,0.5669999718666077,-2.36575413886858
195.517241,,1.5149067842551015e-08,195.772,0.5490000247955322,-2.404719119424418
195.98275900000002,,5.589742527645597e-09,196.232,0.5419999957084656,-2.4196968155982566
196.448276,,4.40234984341313e-09,196.702,0.5419999957084656,-2.419410779753988
196.913793,,1.4810285751047134e-08,197.165,0.546999990940094,-2.4082273330492843
197.37931,,2.5614928645747083e-08,197.628,0.5370000004768372,-2.429728361441224
197.844828,,3.6794901578893767e-08,198.093,0.5419999957084656,-2.418563335175798
198.310345,,4.832656663677157e-08,198.556,0.5540000200271606,-2.3921693081800885
198.775862,,6.018401154488857e-08,199.022,0.5389999747276306,-2.4246277345339493
199.241379,,7.233904380001613e-08,199.487,0.5709999799728394,-2.3547245176498324
199.706897,,8.476119267596643e-08,199.953,0.5690000057220459,-2.358934776327499
200.172414,,9.741771943600673e-08,200.418,0.5680000185966492,-2.361009471200242
200.63793099999998,,1.1027363606993599e-07,200.883,0.5450000166893005,-2.411060847004553
201.103448,,1.2329173285720123e-07,201.35,0.5640000104904175,-2.369657241631002
201.568966,,1.364326150389889e-07,201.816,0.5360000133514404,-2.4306985625427853
202.034483,,1.4965474886197957e-07,202.276,0.5669999718666077,-2.3632466522224065
202.5,,1.6291451723439688e-07,202.746,0.5619999766349792,-2.374269457452001
202.965517,,1.7616628521111353e-07,203.206,0.5460000038146973,-2.4092964227042635
203.431034,,1.8936247549890685e-07,203.676,0.5410000085830688,-2.4203927179650258
203.896552,,2.0245365414549541e-07,204.139,0.5540000200271606,-2.3923015321314676
204.36206900000002,,2.1538862654675735e-07,204.601,0.5540000200271606,-2.392553365411124
204.827586,,2.2811454387556015e-07,205.067,0.5669999718666077,-2.3644950824976907
205.293103,,2.4057702000295407e-07,205.531,0.5540000200271606,-2.3930852939812226
205.758621,,2.5272025894813966e-07,205.997,0.5690000057220459,-2.3606690613337764
206.224138,,2.6448719285766637e-07,206.462,0.5669999718666077,-2.365277255257374
206.689655,,2.7581963047681044e-07,206.928,0.47099998593330383,-2.5746598072648084
207.155172,,2.866584160370843e-07,207.395,0.5669999718666077,-2.365718131609579
207.62069,,2.9694359844342046e-07,207.86,0.5389999747276306,-2.4268978181202416
208.086207,,3.066146106028335e-07,208.325,0.6320000290870667,-2.2244220004492905
208.551724,,3.156104586933847e-07,208.791,0.5339999794960022,-2.4380244742816797
209.01724099999998,,3.238699211281564e-07,209.254,0.5540000200271606,-2.39450120765363
209.482759,,3.313317569237964e-07,209.717,0.593999981880188,-2.307359403325753
209.948276,,3.379349231371278e-07,210.18,0.5540000200271606,-2.39446282082283
210.413793,,3.436188009864685e-07,210.65,0.5540000200271606,-2.394376303184976
210.87930999999998,,3.4832343022679216e-07,211.117,0.5540000200271606,-2.3942495900674166
211.344828,,3.519897512998375e-07,211.579,0.5479999780654907,-2.407159083844316
211.810345,,3.545598547318789e-07,212.045,0.5699999928474426,-2.359035657177262
212.27586200000002,,3.5597723720326744e-07,212.51,0.5669999718666077,-2.3653534978271793
212.741379,,3.5618706366520023e-07,212.976,0.5419999957084656,-2.419583600087461
213.206897,,3.551364348306491e-07,213.435,0.5339999794960022,-2.4367674050676227
213.672414,,3.527746593181586e-07,213.901,0.5370000004768372,-2.4299849732393617
214.137931,,3.490535296794889e-07,214.365,0.5130000114440918,-2.4820330936499007
214.60344800000001,,3.439276014950213e-07,214.831,0.5419999957084656,-2.4186273383397827
215.068966,,3.3735447467466965e-07,215.295,0.5809999704360962,-2.3334548155815726
215.534483,,3.29295076056937e-07,215.765,0.5669999718666077,-2.363774508154289
216.0,,3.1971394235494725e-07,216.228,0.5699999928474426,-2.357085859912342
216.465517,,3.085795024559623e-07,216.691,0.5389999747276306,-2.4245050869240563
216.93103399999998,,2.9586435804029657e-07,217.161,0.5540000200271606,-2.3917440499291014
217.39655199999999,,2.8154556144686877e-07,217.624,0.5529999732971191,-2.3938813983687175
217.862069,,2.656048896761153e-07,218.089,0.5529999732971191,-2.393880339486244
218.327586,,2.480291133868493e-07,218.552,0.5540000200271606,-2.3917404358891683
218.793103,,2.2881025971211104e-07,219.018,0.5659999847412109,-2.36567357885792
219.25862099999998,,2.079458676903413e-07,219.483,0.5410000085830688,-2.420251869797177
219.724138,,1.854392350825476e-07,219.949,0.5630000233650208,-2.3724654430673646
220.18965500000002,,1.6129965532374228e-07,220.414,0.5720000267028809,-2.3530280453881387
220.65517200000002,,1.3554264333803604e-07,220.88,0.5320000052452087,-2.440365657709915
221.12069,,1.0819014893158775e-07,221.347,0.5540000200271606,-2.3926430165280284
221.586207,,7.92707564663559e-08,221.805,0.5440000295639038,-2.4146469460686033
222.051724,,4.8819869510478154e-08,222.273,0.5720000267028809,-2.353864812532385
222.517241,,1.687987915832687e-08,222.735,0.5659999847412109,-2.3671520299157103
222.98275900000002,,1.6499685284950583e-08,223.206,0.5540000200271606,-2.393499693902866
223.448276,,5.126202455311021e-08,223.668,0.5529999732971191,-2.3958657350159114
223.913793,,8.73429578900146e-08,224.136,0.5419999957084656,-2.4199965448091634
224.37931,,1.2467083301318936e-07,224.598,0.5540000200271606,-2.3939923739224342
224.844828,,1.631664588188425e-07,225.064,0.5360000133514404,-2.43331794201574
225.31034499999998,,2.0274306205034723e-07,225.529,0.5540000200271606,-2.3941794802522454
225.775862,,2.4330626911955467e-07,225.994,0.5429999828338623,-2.4181872388892023
226.241379,,2.847541142320183e-07,226.461,0.531000018119812,-2.444338184273761
226.706897,,3.269770749231735e-07,226.927,0.5540000200271606,-2.3942015397456116
227.172414,,3.6985813606262694e-07,227.392,0.550000011920929,-2.402854101528089
227.63793099999998,,4.1327288332790305e-07,227.85,0.5429999828338623,-2.41801031808093
228.103448,,4.570896270872031e-07,228.317,0.5630000233650208,-2.3743135701171436
228.56896600000002,,5.011695575629281e-07,228.783,0.5419999957084656,-2.4199160133933657
229.03448300000002,,5.453669320738744e-07,229.25,0.5460000038146973,-2.4110315660271056
229.5,,5.895292950741373e-07,229.713,0.4819999933242798,-2.550281381458151
229.965517,,6.334977316208726e-07,230.176,0.5699999928474426,-2.358368770079174
230.431034,,6.771071548112216e-07,230.646,0.546999990940094,-2.408282486779689
230.896552,,7.201866276309676e-07,231.112,0.5669999718666077,-2.3645151091310743
231.362069,,7.625597195539554e-07,231.571,0.5669999718666077,-2.364326773238657
231.827586,,8.040448981220879e-07,232.036,0.5630000233650208,-2.3728641580022103
232.293103,,8.444559556209618e-07,232.502,0.5360000133514404,-2.4315276010906746
232.758621,,8.836024708460866e-07,232.968,0.5709999799728394,-2.355136848019971
233.224138,,9.212903058293448e-07,233.432,0.5450000166893005,-2.4116691443058835
233.689655,,9.573221372651167e-07,233.898,0.5669999718666077,-2.363655104531717
234.155172,,9.914980222405599e-07,234.365,0.546999990940094,-2.407175178125903
234.62069,,1.0236159977351915e-06,234.831,0.492000013589859,-2.5269816993732497
235.086207,,1.0534727132114588e-06,235.294,0.5400000214576721,-2.4224229990389015
235.55172399999998,,1.080864095470746e-06,235.756,0.5690000057220459,-2.3592922278226505
236.01724099999998,,1.105586044798613e-06,236.224,0.5540000200271606,-2.3920520172334783
236.482759,,1.127435161269382e-06,236.687,0.550000011920929,-2.4008742315970513
236.94827600000002,,1.146209499923897e-06,237.15,0.5709999799728394,-2.3552544184745234
237.413793,,1.1617093533758202e-06,237.62,0.5529999732971191,-2.3946215824599095
237.87931,,1.1737380602416874e-06,238.086,0.5649999976158142,-2.3686443878874615
238.344828,,1.18210283762859e-06,238.549,0.5429999828338623,-2.416751875198144
238.810345,,1.1866156357513357e-06,239.014,0.5649999976158142,-2.3690042280482113
239.27586200000002,,1.1870940125887854e-06,239.48,0.5529999732971191,-2.3953307280299767
239.741379,,1.1833620263273768e-06,239.946,0.5400000214576721,-2.423830721127821
240.206897,,1.175251143179182e-06,240.406,0.5460000038146973,-2.4109270448782874
240.672414,,1.1626011580028577e-06,240.871,0.5540000200271606,-2.393651610752072
241.137931,,1.1452611249991438e-06,241.336,0.5680000185966492,-2.3632849251982764
241.603448,,1.1230902955988372e-06,241.802,0.5210000276565552,-2.4657928958828212
242.068966,,1.0959590605110572e-06,242.265,0.5540000200271606,-2.3939838732922576
242.534483,,1.0637498927538399e-06,242.735,0.5519999861717224,-2.3983999016173767
243.0,,1.026358288348345e-06,243.198,0.5630000233650208,-2.3744633388127343
243.465517,,9.836937012229636e-07,243.661,0.5360000133514404,-2.4332850478390697
243.93103399999998,,9.356804687450928e-07,244.129,0.5419999957084656,-2.4201817888557615
244.39655199999999,,8.822587241770432e-07,244.591,0.5540000200271606,-2.3939781243165292
244.862069,,8.233852922391952e-07,245.057,0.5669999718666077,-2.3655686255202526
245.327586,,7.590345638588922e-07,245.524,0.5360000133514404,-2.432994684444222
245.793103,,6.891993460883853e-07,245.99,0.5540000200271606,-2.393646140582831
246.258621,,6.138916830901721e-07,246.451,0.5640000104904175,-2.371709622701612
246.724138,,5.331436440140546e-07,246.916,0.5540000200271606,-2.3933327384593563
247.18965500000002,,4.470080735279044e-07,247.383,0.5360000133514404,-2.4323770872921298
247.655172,,3.555593007142082e-07,247.849,0.5709999799728394,-2.3559502887475965
248.12069,,2.5889380200766775e-07,248.315,0.546999990940094,-2.408065421848831
248.586207,,1.5713081382616456e-07,248.781,0.5540000200271606,-2.3926491983008504
249.051724,,5.0412890538933045e-08,249.243,0.5540000200271606,-2.3924953358041803
249.517241,,6.109359657751765e-08,249.705,0.5540000200271606,-2.3923574892858417
249.982759,,1.7719802372270505e-07,250.176,0.5680000185966492,-2.36173822447992
250.44827600000002,,2.976851465827889e-07,250.638,0.5540000200271606,-2.3921438772678902
250.913793,,4.223148042007474e-07,251.104,0.5519999861717224,-2.396431545652624
251.37931000000003,,5.508216988650217e-07,251.567,0.546999990940094,-2.407283176744996
251.844828,,6.829152560842045e-07,252.033,0.5540000200271606,-2.3920202721297366
252.31034499999998,,8.182795686055765e-07,252.498,0.5540000200271606,-2.392037371652806
252.77586200000002,,9.565734283066768e-07,252.964,0.5669999718666077,-2.3637605612332484
253.241379,,1.0974304496412686e-06,253.429,0.5540000200271606,-2.3921551956380487
253.706897,,1.2404592881537362e-06,253.895,0.5419999957084656,-2.418396418952393
254.172414,,1.3852439573888694e-06,254.361,0.5299999713897705,-2.444660759529052
254.63793099999998,,1.531344247316976e-06,254.82,0.5669999718666077,-2.3641907681632737
255.10344800000001,,1.6782962471671869e-06,255.287,0.5429999828338623,-2.416633038638792
255.56896600000002,,1.8256129753146241e-06,255.757,0.5540000200271606,-2.392832649428871
256.03448299999997,,1.972785118599805e-06,256.217,0.5519999861717224,-2.397360208687103
256.5,,2.1192818831713364e-06,256.68,0.5540000200271606,-2.393173223436219
256.965517,,2.264551958635763e-06,257.151,0.5540000200271606,-2.3933387989744053
257.431034,,2.4080245969716395e-06,257.613,0.5419999957084656,-2.4196387778634385
257.896552,,2.549110807318773e-06,258.079,0.5540000200271606,-2.3936373235148865
258.362069,,2.6872046673885687e-06,258.545,0.5540000200271606,-2.393761618594113
258.827586,,2.8216847518579676e-06,259.01,0.5419999957084656,-2.4200080743059287
259.29310300000003,,2.951915677708165e-06,259.476,0.5419999957084656,-2.4200865009988126
259.758621,,3.0772497660508155e-06,259.941,0.5709999799728394,-2.3569573788042626
260.224138,,3.1970288195494954e-06,260.406,0.5669999718666077,-2.36569442971304
260.689655,,3.3105860140936573e-06,260.872,0.5389999747276306,-2.4266893441585116
261.155172,,3.4172479029171114e-06,261.336,0.5460000038146973,-2.4114030727936435
261.62068999999997,,3.5163365308742086e-06,261.795,0.5640000104904175,-2.372124347856432
262.086207,,3.607171656095522e-06,262.265,0.550000011920929,-2.4025364154493225
262.551724,,3.689073075742119e-06,262.727,0.5669999718666077,-2.3653869923128616
263.017241,,3.7613630520647865e-06,263.191,0.5540000200271606,-2.393576630504691
263.482759,,3.823368834453247e-06,263.661,0.5630000233650208,-2.373819820277874
263.94827599999996,,3.874425272631912e-06,264.121,0.5540000200271606,-2.393266964491226
264.413793,,3.913877515624686e-06,264.591,0.5419999957084656,-2.419243533507721
264.87931,,3.9410837905734025e-06,265.056,0.5379999876022339,-2.4277899588048766
265.34482799999995,,3.955418254954382e-06,265.52,0.5419999957084656,-2.418911491781332
265.810345,,3.956273915197214e-06,265.986,0.5519999861717224,-2.3969700218275842
266.27586199999996,,3.943065604171045e-06,266.45,0.5419999957084656,-2.418614568544567
266.741379,,3.91523300946845e-06,266.915,0.5680000185966492,-2.3618445586791577
267.206897,,3.8722437438873804e-06,267.379,0.5339999794960022,-2.4358138956697997
267.672414,,3.8135964489899224e-06,267.845,0.5460000038146973,-2.4095890082930933
268.137931,,3.7388239221047355e-06,268.306,0.5419999957084656,-2.418248863968394
268.603448,,3.6474962566404926e-06,268.776,0.546999990940094,-2.407328436559783
269.06896600000005,,3.539223985092587e-06,269.239,0.5730000138282776,-2.350683914695511
269.53448299999997,,3.413661213657222e-06,269.702,0.5540000200271606,-2.3921053674493082
270.0,,3.2705087369181386e-06,270.165,0.5419999957084656,-2.4183025988355586
270.465517,,3.1095171206441066e-06,270.635,0.5669999718666077,-2.3639147452510834
270.931034,,2.9304897403323683e-06,271.101,0.546999990940094,-2.4075882509224957
271.396552,,2.7332857627569565e-06,271.563,0.5540000200271606,-2.392457607522785
271.86206899999996,,2.517823057433683e-06,272.029,0.46000000834465027,-2.5973883685810044
272.327586,,2.284081024598144e-06,272.494,0.5419999957084656,-2.4188923794712225
272.793103,,2.0321033260117915e-06,272.96,0.5450000166893005,-2.412519140916308
273.258621,,1.7620005046664398e-06,273.424,0.5289999842643738,-2.4475436059298077
273.724138,,1.4739524792519752e-06,273.89,0.5669999718666077,-2.364919023019914
274.18965499999996,,1.1682108990879548e-06,274.355,0.5540000200271606,-2.393397641469943
274.655172,,8.451013450995529e-07,274.821,0.546999990940094,-2.408791982103567
275.12069,,5.050253623443077e-07,275.283,0.5249999761581421,-2.4568501353503036
275.586207,,1.4846230957056177e-07,275.746,0.5669999718666077,-2.3654552218180034
276.051724,,2.24028988686409e-07,276.213,0.5630000233650208,-2.374254304110008
276.517241,,6.118088018867505e-07,276.676,0.625,-2.2392347402078445
276.98275900000004,,1.0141552794304613e-06,277.143,0.5490000247955322,-2.4048383937932027
277.448276,,1.4302634768582754e-06,277.605,0.492000013589859,-2.529019784299286
277.913793,,1.85924463615575e-06,278.071,0.5400000214576721,-2.4244179849246694
278.37931,,2.3001257336996427e-06,278.535,0.5540000200271606,-2.3938653640455683
278.844828,,2.751849309016447e-06,279.001,0.5389999747276306,-2.426469355570622
279.31034500000004,,3.213273587090857e-06,279.468,0.5540000200271606,-2.3936918249532564
279.77586199999996,,3.6831729064657825e-06,279.934,0.5709999799728394,-2.356537805597605
280.241379,,4.160238464814309e-06,280.399,0.5370000004768372,-2.430478741129843
280.706897,,4.643079393036901e-06,280.865,0.5419999957084656,-2.4194413445069096
281.172414,,5.130224168243603e-06,281.329,0.5669999718666077,-2.3648243083592506
281.637931,,5.620122375220538e-06,281.795,0.5410000085830688,-2.4213155608270047
282.10344799999996,,6.111146825152488e-06,282.258,0.5440000295639038,-2.414628376411814
282.568966,,6.601596039478874e-06,282.72,0.5540000200271606,-2.3926977453164446
283.034483,,7.089697105799222e-06,283.191,0.5669999718666077,-2.364241843508055
283.5,,7.573608911716836e-06,283.653,0.6000000238418579,-2.292225939284754
283.965517,,8.051425761416672e-06,284.125,0.5669999718666077,-2.36401697550115
284.431034,,8.5211813786164e-06,284.58,0.5669999718666077,-2.3639320518576006
284.89655200000004,,8.980853298309665e-06,285.046,0.5379999876022339,-2.427051202541299
285.362069,,9.428367648439348e-06,285.513,0.5669999718666077,-2.3638344348370324
285.827586,,9.861604321297927e-06,285.978,0.5080000162124634,-2.492365956982583
286.293103,,1.0278402533054224e-05,286.444,0.5419999957084656,-2.4183117610621148
286.758621,,1.067656676835335e-05,286.909,0.5490000247955322,-2.4031084939331615
287.22413800000004,,1.1053873105432306e-05,287.376,0.5540000200271606,-2.3922875272136968
287.689655,,1.1408075915640681e-05,287.835,0.5529999732971191,-2.3945608225336197
288.155172,,1.173691492965749e-05,288.302,0.48100000619888306,-2.551538578214224
288.62069,,1.2038122661055294e-05,288.765,0.5669999718666077,-2.364307863896356
289.086207,,1.2309432176185384e-05,289.235,0.5419999957084656,-2.4189193764890247
289.55172400000004,,1.254858519764722e-05,289.697,0.5540000200271606,-2.392927604221079
290.01724099999996,,1.2753340526866282e-05,290.166,0.5450000166893005,-2.412689619825436
290.482759,,1.2921482769542018e-05,290.628,0.5630000233650208,-2.373625089839532
290.948276,,1.3050831345946759e-05,291.094,0.5419999957084656,-2.4195201178107295
291.413793,,1.3139249766263e-05,291.556,0.5490000247955322,-2.4044008805399484
291.87931,,1.3184655149346194e-05,292.021,0.5419999957084656,-2.419767120774854
292.344828,,1.3185027961499171e-05,292.488,0.5419999957084656,-2.4198636223988355
292.81034500000004,,1.3138421950048973e-05,292.953,0.574999988079071,-2.3480421912663934
293.275862,,1.3042974244733876e-05,293.421,0.5699999928474426,-2.358983563756201
293.74137900000005,,1.2896915598144531e-05,293.887,0.5440000295639038,-2.415649401834724
294.206897,,1.2698580734725702e-05,294.347,0.550000011920929,-2.4025720165711624
294.672414,,1.2446418776141215e-05,294.813,0.5540000200271606,-2.3938259194803275
295.13793100000004,,1.213900370914206e-05,295.276,0.5270000100135803,-2.452593513208941
295.603448,,1.1775044860463788e-05,295.746,0.5669999718666077,-2.365369367726763
296.068966,,1.1353397341722334e-05,296.209,0.5669999718666077,-2.3652704755518488
296.534483,,1.0873072425785083e-05,296.672,0.5389999747276306,-2.4261561964400995
297.0,,1.0333247814674552e-05,297.135,0.546999990940094,-2.408597694059927
297.46551700000003,,9.733277757723705e-06,297.605,0.5540000200271606,-2.393209291821876
297.931034,,9.072702977452864e-06,298.071,0.5400000214576721,-2.4235683433906745
298.396552,,8.351260359486829e-06,298.535,0.5540000200271606,-2.392925631899163
298.862069,,7.568892361785364e-06,299.001,0.546999990940094,-2.40803935087689
299.327586,,6.725756097529085e-06,299.466,0.550000011920929,-2.401375412090791
299.79310300000003,,5.822232045194168e-06,299.932,0.5339999794960022,-2.43611912600083
300.258621,,4.858932338671409e-06,300.391,0.5410000085830688,-2.420770860788453
300.724138,,3.836708589745993e-06,300.857,0.5929999947547913,-2.307402510860004
301.189655,,2.756659194861866e-06,301.321,0.5379999876022339,-2.427169868760652
301.65517200000005,,1.620136077856545e-06,301.786,0.5699999928474426,-2.3574170927873435
302.12069,,4.287508202760909e-07,302.254,0.5640000104904175,-2.3704762222967077
302.586207,,8.156198690269577e-07,302.717,0.5429999828338623,-2.416238691858065
303.05172400000004,,2.1108293930406626e-06,303.18,0.5289999842643738,-2.446774713939225
303.517241,,3.454457262061671e-06,303.65,0.5929999947547913,-2.307398687373485
303.982759,,4.843805892418825e-06,304.116,0.5659999847412109,-2.3662987974287715
304.448276,,6.275898254550932e-06,304.579,0.640999972820282,-2.2029915954164925
304.913793,,7.747476415500666e-06,305.045,0.5509999990463257,-2.399172842010135
305.37931000000003,,9.255001019644542e-06,305.51,0.5460000038146973,-2.410179291011541
305.844828,,1.0794651750027093e-05,305.976,0.5419999957084656,-2.4190160155554516
306.310345,,1.236232881100178e-05,306.435,0.5400000214576721,-2.4235008776172613
306.775862,,1.3953655470998605e-05,306.901,0.5669999718666077,-2.3648063738724887
307.241379,,1.55639817021361e-05,307.366,0.5460000038146973,-2.4106836654892945
307.70689699999997,,1.7188388951071423e-05,307.832,0.5450000166893005,-2.412981312476487
308.172414,,1.882169607293533e-05,308.295,0.5379999876022339,-2.428341192891781
308.637931,,2.0458466457428306e-05,308.764,0.5540000200271606,-2.393578896698638
309.103448,,2.2093016373160345e-05,309.228,0.5120000243186951,-2.4851625624262237
309.568966,,2.3719424553100782e-05,309.691,0.5460000038146973,-2.411151304700919
310.034483,,2.5331543040568163e-05,310.161,0.6100000143051147,-2.2717591624509876
310.5,,2.692300931153585e-05,310.624,0.5419999957084656,-2.4199243196765683
310.96551700000003,,2.848725968516081e-05,311.089,0.5540000200271606,-2.3937735369723527
311.431034,,3.0017544030365124e-05,311.552,0.5649999976158142,-2.369778408566582
311.896552,,3.150694177201793e-05,312.018,0.5389999747276306,-2.426370967586125
312.362069,,3.294837919578609e-05,312.483,0.5630000233650208,-2.37401049745414
312.827586,,3.4334648046052124e-05,312.949,0.527999997138977,-2.4501725612102128
313.29310300000003,,3.565842540644641e-05,313.413,0.531000018119812,-2.4435314977553326
313.758621,,3.691229484751711e-05,313.879,0.5680000185966492,-2.362805091842419
314.224138,,3.808876882087558e-05,314.343,0.5360000133514404,-2.43239685586133
314.689655,,3.91803122738189e-05,314.809,0.5490000247955322,-2.403944769192541
315.155172,,4.017936745295759e-05,315.276,0.5680000185966492,-2.362419902960573
315.62068999999997,,4.10783798597784e-05,315.738,0.5529999732971191,-2.3949715554286795
316.086207,,4.1869825315364114e-05,316.206,0.5509999990463257,-2.3992071242916353
316.551724,,4.2546238085690644e-05,316.668,0.5450000166893005,-2.412168016964643
317.017241,,4.310024001304204e-05,317.132,0.5630000233650208,-2.372855397789579
317.482759,,4.3524570593144814e-05,317.601,0.5669999718666077,-2.3640603974096703
317.94827599999996,,4.38121179316425e-05,318.06,0.5669999718666077,-2.363998316430127
318.413793,,4.395595050752875e-05,318.525,0.5440000295639038,-2.4140658248756215
318.87931000000003,,4.3949349665153794e-05,318.991,0.5320000052452087,-2.440191619727282
319.344828,,4.378584275043521e-05,319.458,0.5669999718666077,-2.363945057768208
319.810345,,4.34592368009625e-05,319.923,0.5509999990463257,-2.398832735833771
320.275862,,4.2963652693808663e-05,320.387,0.550000011920929,-2.4010631259598507
320.741379,,4.2293559649074557e-05,320.853,0.5649999976158142,-2.3684561724492057
321.20689699999997,,4.144380998151781e-05,321.318,0.5789999961853027,-2.338045885955744
321.672414,,4.0409673987082716e-05,321.783,0.546999990940094,-2.4078686406725223
322.137931,,3.918687484577629e-05,322.246,0.5379999876022339,-2.4275956095716684
322.603448,,3.777162341715478e-05,322.717,0.546999990940094,-2.4081172553397137
323.068966,,3.616065279972173e-05,323.18,0.5419999957084656,-2.4191463904936845
323.53448299999997,,3.4351252520818834e-05,323.642,0.5529999732971191,-2.3953192732106174
324.0,,3.23413022191435e-05,324.108,0.5669999718666077,-2.364953416933045
324.465517,,3.0129304677878134e-05,324.572,0.5400000214576721,-2.4239049177949696
324.931034,,2.7714418062594657e-05,325.038,0.5360000133514404,-2.4327373060550794
325.396552,,2.5096487214630302e-05,325.505,0.5419999957084656,-2.41976976026316
325.86206899999996,,2.2276073847546217e-05,325.971,0.5440000295639038,-2.4154997142333308
326.327586,,1.925448549160509e-05,326.436,0.5289999842643738,-2.448247128756847
326.793103,,1.6033803028966084e-05,326.901,0.5669999718666077,-2.3655038357909115
327.258621,,1.2616906660520957e-05,327.361,0.5509999990463257,-2.4003828140847587
327.724138,,9.007500144011306e-06,327.827,0.550000011920929,-2.4025564180198775
328.189655,,5.210133142298774e-06,328.295,0.5339999794960022,-2.43738475728559
328.655172,,1.2302215204329018e-06,328.757,0.550000011920929,-2.402472099547833
329.12068999999997,,2.9259345695006593e-06,329.225,0.5630000233650208,-2.374072258750068
329.586207,,7.251134975842512e-06,329.687,0.5680000185966492,-2.3630797737950795
330.051724,,1.1737266365686604e-05,330.15,0.515999972820282,-2.4762519592407672
330.517241,,1.6375291730458053e-05,330.62,0.5130000114440918,-2.482657141403981
330.982759,,2.115524273230872e-05,331.086,0.5440000295639038,-2.414979696240524
331.44827599999996,,2.60662150414096e-05,331.549,0.5540000200271606,-2.3930482074937847
331.913793,,3.10963668100458e-05,332.014,0.5680000185966492,-2.362399497660007
332.37931,,3.62329204245464e-05,332.48,0.5450000166893005,-2.4123624088691957
332.844828,,4.1462167670495e-05,332.945,0.550000011920929,-2.401329755911228
333.310345,,4.676947844035634e-05,333.41,0.5249999761581421,-2.455668323486273
333.77586199999996,,5.213931310561164e-05,333.875,0.5709999799728394,-2.3553383983919667
334.241379,,5.7555238667712716e-05,334.339,0.5460000038146973,-2.409711011187156
334.706897,,6.29999487936397e-05,334.805,0.5699999928474426,-2.357351060268984
335.17241399999995,,6.845528783257598e-05,335.269,0.5440000295639038,-2.41394716094978
335.637931,,7.390227890019937e-05,335.731,0.5410000085830688,-2.4204605088573286
336.103448,,7.932115610633227e-05,336.199,0.5690000057220459,-2.3594628208570914
336.56896600000005,,8.469140099020359e-05,336.661,0.5789999961853027,-2.3377069647505717
337.034483,,8.999178321535965e-05,337.128,0.5680000185966492,-2.361727521232019
337.5,,9.520040556333271e-05,337.591,0.5360000133514404,-2.431524128451743
337.965517,,0.00010029475325154958,338.057,0.5460000038146973,-2.4098409923433217
338.431034,,0.00010525174758665724,338.525,0.5419999957084656,-2.4186799384404645
338.89655200000004,,0.00011004780394947908,338.99,0.5419999957084656,-2.418821703595056
339.36206899999996,,0.00011465889409221896,339.455,0.5360000133514404,-2.4320488147058144
339.827586,,0.0001190606127123296,339.92,0.5690000057220459,-2.3603171293631497
340.293103,,0.00012322824825068782,340.387,0.5540000200271606,-2.393163224887143
340.758621,,0.000127136857844407,340.845,0.546999990940094,-2.4085778622478875
341.224138,,0.00013076134634680607,341.318,0.546999990940094,-2.408734992241375
341.68965499999996,,0.0001340765493087849,341.776,0.5630000233650208,-2.374021657032598
342.155172,,0.0001370573197971737,342.247,0.5410000085830688,-2.4220802697022803
342.62069,,0.00013967861890657832,342.709,0.546999990940094,-2.409116127078271
343.086207,,0.000141915609801886,343.177,0.5630000233650208,-2.3743410967006913
343.551724,,0.000143743755108983,343.638,0.5540000200271606,-2.394004657890078
344.01724099999996,,0.00014513891745142362,344.104,0.5419999957084656,-2.420174698975952
344.48275900000004,,0.0001460774629108435,344.567,0.5770000219345093,-2.3439173986257185
344.948276,,0.0001465363671688927,345.033,0.5419999957084656,-2.4201342869807054
345.413793,,0.00014649332406844567,345.498,0.5669999718666077,-2.365601788403143
345.87931,,0.00014592685631189373,345.964,0.5379999876022339,-2.428687814629928
346.344828,,0.00014481642799451917,346.429,0.5680000185966492,-2.363207730893424
346.81034500000004,,0.0001431425586513606,346.895,0.5419999957084656,-2.419709703645862
347.275862,,0.00014088693847669087,347.355,0.5630000233650208,-2.3737968336648247
347.741379,,0.0001380325443563195,347.82,0.5339999794960022,-2.4368033977939914
348.206897,,0.00013456375633448593,348.291,0.5419999957084656,-2.4191924131204554
348.672414,,0.0001304664741192134,348.753,0.5699999928474426,-2.358006319873107
349.13793100000004,,0.0001257282332127338,349.217,0.550000011920929,-2.4013979808216614
349.60344799999996,,0.00012033832023705999,349.68,0.5669999718666077,-2.3641879107924106
350.068966,,0.00011428788700906335,350.15,0.5630000233650208,-2.3727426918009287
350.534483,,0.00010757006290460155,350.613,0.5540000200271606,-2.3922093609587507
351.0,,0.00010018006503742784,351.079,0.5440000295639038,-2.4138783785307867
351.465517,,9.211530576588899e-05,351.545,0.5669999718666077,-2.363679880868093
351.93103399999995,,8.337549702887705e-05,352.011,0.5109999775886536,-2.485625773657079
352.396552,,7.396275100223266e-05,352.476,0.5440000295639038,-2.413706219298741
352.862069,,6.388167655789506e-05,352.942,0.5419999957084656,-2.4180749237376107
353.32758600000005,,5.313947100064743e-05,353.402,0.5419999957084656,-2.4181210012129433
353.793103,,4.174600655140421e-05,353.867,0.5519999861717224,-2.396414042485348
354.258621,,2.9713911041717023e-05,354.332,0.5339999794960022,-2.435740432360098
354.72413800000004,,1.7058642281623094e-05,354.798,0.5389999747276306,-2.424986233861529
355.189655,,3.7985555622072832e-06,355.265,0.5389999747276306,-2.4251496208179293
355.655172,,1.0045036244624116e-05,355.727,0.5299999713897705,-2.4449403207046547
356.12069,,2.4447810523575924e-05,356.195,0.5419999957084656,-2.418993270945883
356.586207,,3.938239121990819e-05,356.657,0.5379999876022339,-2.427912287591572
357.05172400000004,,5.4818314131985936e-05,357.121,0.5419999957084656,-2.419403103864044
357.517241,,7.072200170515493e-05,357.59,0.5540000200271606,-2.3934589042101617
357.982759,,8.705674782806851e-05,358.056,0.5460000038146973,-2.4110752381300964
358.448276,,0.00010378271311871956,358.521,0.5669999718666077,-2.365491905724691
358.913793,,0.00012085693117123731,358.986,0.5260000228881836,-2.4549604626521404
359.37931000000003,,0.00013823332621594917,359.446,0.5540000200271606,-2.394074074963273
359.844828,,0.00015586274262424643,359.912,0.5540000200271606,-2.39415747622263
360.310345,,0.00017369298666640426,360.377,0.5400000214576721,-2.424706481624317
360.775862,,0.00019166888090466799,360.843,0.5680000185966492,-2.363715021896894
361.241379,,0.00020973233157561851,361.306,0.5460000038146973,-2.411617920083554
361.706897,,0.00022782240928506371,361.777,0.574999988079071,-2.3483720068171743
362.172414,,0.0002458754433054746,362.239,0.5389999747276306,-2.4267024762970113
362.63793100000004,,0.0002638251297303094,362.702,0.5540000200271606,-2.3938894717544685
363.103448,,0.0002816026537014678,363.165,0.5540000200271606,-2.393728277629997
363.568966,,0.0002991368258856201,363.635,0.5450000166893005,-2.413151799981687
364.034483,,0.00031635423333231465,364.101,0.5360000133514404,-2.432558456453875
364.5,,0.0003331794048016182,364.564,0.5379999876022339,-2.4279899340589983
364.96551700000003,,0.00034953499060166887,365.03,0.5519999861717224,-2.397273950305447
365.431034,,0.000365341956926977,365.495,0.5540000200271606,-2.39270422754659
365.896552,,0.00038051979463669624,365.961,0.5540000200271606,-2.392500798591527
366.362069,,0.00039498674235849044,366.421,0.5220000147819519,-2.4620301055659515
366.827586,,0.000408660023748152,366.886,0.5540000200271606,-2.3921483704432123
367.29310300000003,,0.00042145609867790565,367.351,0.5370000004768372,-2.4290480319468006
367.758621,,0.0004332909280674857,367.817,0.550000011920929,-2.400619891225047
368.224138,,0.00044408025201174894,368.28,0.6060000061988831,-2.278543829810031
368.689655,,0.0004537398807969258,368.749,0.546999990940094,-2.407047583160984
369.155172,,0.00046218599833479227,369.213,0.5540000200271606,-2.391797920299706
369.62068999999997,,0.00046933547748024174,369.676,0.5789999961853027,-2.3373708199226892
370.086207,,0.00047510620663312385,370.146,0.5410000085830688,-2.4202353718293805
370.55172400000004,,0.00047941742696000847,370.609,0.5789999961853027,-2.337557620040693
371.017241,,0.0004821900795059297,371.075,0.5849999785423279,-2.3246276364331795
371.482759,,0.0004833471614003883,371.538,0.5540000200271606,-2.392334035327052
371.948276,,0.00048281409029617085,372.004,0.550000011920929,-2.4012396708940793
372.413793,,0.00048051907611411983,372.468,0.5400000214576721,-2.4232350487618795
372.87931000000003,,0.0004763934991021098,372.934,0.5350000262260437,-2.4343493071959714
373.344828,,0.00047037229315241016,373.399,0.5669999718666077,-2.364858789479267
373.810345,,0.00046239433325860797,373.864,0.5460000038146973,-2.4108338808421106
374.275862,,0.0004524028259316043,374.332,0.5540000200271606,-2.3936185986638128
374.741379,,0.000440345701334156,374.791,0.5410000085830688,-2.4221389946508887
375.20689699999997,,0.00042617600583531406,375.261,0.5419999957084656,-2.4201362599457235
375.672414,,0.00040985229363018895,375.724,0.5339999794960022,-2.437713949800272
376.137931,,0.00039133901601705974,376.192,0.5400000214576721,-2.4247582041768796
376.603448,,0.0003706069068732363,376.654,0.5669999718666077,-2.3660141938566794
377.068966,,0.0003476333628235861,377.124,0.5460000038146973,-2.4118046811363776
377.53448299999997,,0.0003224028165515632,377.587,0.5509999990463257,-2.400908387138742
378.0,,0.0002949071016622257,378.045,0.5519999861717224,-2.3986845402601555
378.465517,,0.00026514580747041936,378.51,0.550000011920929,-2.4029552443138114
378.931034,,0.00023312662205533728,378.975,0.5519999861717224,-2.3984724287619805
379.396552,,0.00019886566189534927,379.44,0.5299999713897705,-2.4462420210083544
379.862069,,0.00016238778637463048,379.905,0.5450000166893005,-2.413371458726019
380.327586,,0.0001237268954360046,380.372,0.5339999794960022,-2.4371216236286513
380.79310300000003,,8.292620864284357e-05,380.838,0.5630000233650208,-2.3737073130521056
381.258621,,4.003852390711938e-05,381.306,0.5669999718666077,-2.3647472091048436
381.724138,,4.873545858942915e-06,381.769,0.5669999718666077,-2.364496196523225
382.189655,,5.1737359903439546e-05,382.232,0.5709999799728394,-2.3555328475223853
382.655172,,0.00010047006233007546,382.702,0.5419999957084656,-2.4184754551955567
383.12068999999997,,0.0001509784220304429,383.165,0.5389999747276306,-2.4247925374819794
383.586207,,0.00020315870152827178,383.628,0.5540000200271606,-2.391920574368887
384.051724,,0.00025689655637603335,384.093,0.5389999747276306,-2.4244412042701806
384.517241,,0.00031206696670218245,384.556,0.5370000004768372,-2.428677855615099
384.982759,,0.0003685342024575536,385.022,0.5709999799728394,-2.354525777117907
385.44827599999996,,0.0004261518238518258,385.488,0.5419999957084656,-2.4176732761458073
385.913793,,0.0004847627184054087,385.953,0.5669999718666077,-2.363220075646898
386.37931,,0.0005441991759684763,386.418,0.5450000166893005,-2.41120964166209
386.84482799999995,,0.000604283002977088,386.883,0.5669999718666077,-2.36338384566884
387.310345,,0.000664825677126319,387.35,0.4399999976158142,-2.6402208442883666
387.775862,,0.0007256285435420376,387.816,0.5630000233650208,-2.372437555707929
388.241379,,0.0007864830534264435,388.276,0.5460000038146973,-2.4096996850147816
388.70689699999997,,0.0008471710460377614,388.746,0.515999972820282,-2.4753107242238026
389.172414,,0.0009074650747416031,389.206,0.5540000200271606,-2.3927928268794307
389.637931,,0.0009671287777404592,389.676,0.5669999718666077,-2.3647511480431
390.103448,,0.0010259172939486997,390.139,0.5419999957084656,-2.419498155467196
390.56896600000005,,0.0010835777243336938,390.602,0.550000011920929,-2.4023415334772134
391.03448299999997,,0.001139849638889532,391.067,0.550000011920929,-2.402597350504316
391.5,,0.0011944656292482974,391.531,0.5699999928474426,-2.3592546414460456
391.965517,,0.0012471519067646624,391.997,0.5540000200271606,-2.394309667728791
392.431034,,0.0012976289457332863,392.462,0.593999981880188,-2.3073199501820527
392.896552,,0.0013456121712165563,392.928,0.5659999847412109,-2.3684319004933005
393.36206899999996,,0.0013908126907736145,393.395,0.5460000038146973,-2.4120652027946523
393.827586,,0.0014329380691887835,393.86,0.5659999847412109,-2.3685019701543277
394.293103,,0.0014716931450962424,394.325,0.5659999847412109,-2.368460127688384
394.75862099999995,,0.0015067808881905076,394.79,0.5419999957084656,-2.420655472245232
395.224138,,0.0015379032955065623,395.25,0.5669999718666077,-2.366049851848366
395.68965499999996,,0.0015647623250516507,395.72,0.5540000200271606,-2.3941894892246123
396.155172,,0.0015870608648603567,396.184,0.5460000038146973,-2.4113985341128275
396.62069,,0.001604503735312271,396.646,0.5389999747276306,-2.4263989504879593
397.086207,,0.0016167987223138416,397.112,0.550000011920929,-2.402161496619382
397.551724,,0.0016236576387450956,397.578,0.5630000233650208,-2.3735527029536416
398.017241,,0.00162479741140915,398.043,0.5379999876022339,-2.427727296786012
398.48275900000004,,0.0016199411905138909,398.51,0.4690000116825104,-2.5777680570192065
398.94827599999996,,0.0016088194783931288,398.976,0.5419999957084656,-2.4184570601426945
399.413793,,0.001591171273859221,399.435,0.5649999976158142,-2.3681013251392473
399.87931,,0.0015667452285081122,399.901,0.546999990940094,-2.407098811857091
400.344828,,0.0015353008114150383,400.366,0.5820000171661377,-2.3306627720986914
400.810345,,0.0014966094784340978,400.831,0.5540000200271606,-2.3915219404524968
401.27586199999996,,0.0014504558414413873,401.302,0.5680000185966492,-2.3609227984795114
401.741379,,0.0013966388321888827,401.764,0.5490000247955322,-2.4022675912427474
402.206897,,0.001334972856274134,402.232,0.5519999861717224,-2.3957328747452378
402.672414,,0.00126528893437951,402.694,0.578000009059906,-2.339139733064295
403.137931,,0.0011874358271460916,403.158,0.5419999957084656,-2.417671867557115
403.60344799999996,,0.0011012811356716568,403.62,0.5419999957084656,-2.4178195652197254
404.068966,,0.0010067123674239215,404.086,0.5329999923706055,-2.4376186116553415
404.534483,,0.0009036379643043327,404.556,0.5389999747276306,-2.424775972795335
405.0,,0.0007919882993898247,405.021,0.5509999990463257,-2.398892150795127
405.465517,,0.0006717166421799799,405.48,0.5630000233650208,-2.3730303989060144
405.931034,,0.0005428000665033666,405.946,0.531000018119812,-2.4430426018193003
406.39655200000004,,0.00040524026838069496,406.413,0.5490000247955322,-2.4041271529450614
406.862069,,0.0002590643083552632,406.879,0.5540000200271606,-2.393529507979719
407.327586,,0.00010432534449708104,407.344,0.5640000104904175,-2.372024020469964
407.793103,,5.889663357100913e-05,407.809,0.5389999747276306,-2.4267478933293662
408.258621,,0.0002304942100959116,408.272,0.5450000166893005,-2.4139025708352873
408.72413800000004,,0.00041033223389155664,408.735,0.5419999957084656,-2.420627429981462
409.18965499999996,,0.0005982476341359198,409.206,0.5540000200271606,-2.3946283582017207
409.655172,,0.000794048945775888,409.668,0.5519999861717224,-2.399081317491276
410.12069,,0.000997515554325218,410.132,0.5540000200271606,-2.3947669339986257
410.586207,,0.0012083975337358653,410.601,0.5540000200271606,-2.3947556898673787
411.05172400000004,,0.001426416765257396,411.06,0.5659999847412109,-2.3685463300633147
411.51724099999996,,0.001651268100150297,411.525,0.5669999718666077,-2.3662489978774546
411.982759,,0.0018826181749557946,411.991,0.5929999947547913,-2.309435038878253
412.448276,,0.0021201025251189618,412.458,0.5669999718666077,-2.3658652451850104
412.913793,,0.0023633264379650876,412.923,0.5619999766349792,-2.3765052761545715
413.37931,,0.002611872565294634,413.388,0.5320000052452087,-2.441582140097583
413.844828,,0.0028653065238508557,413.854,0.5400000214576721,-2.423850928241862
414.31034500000004,,0.003123167282238748,414.32,0.5460000038146973,-2.410467262408833
414.775862,,0.0033849498456816796,414.786,0.5379999876022339,-2.4275843892375293
415.241379,,0.0036501133797988655,415.247,0.5519999861717224,-2.3967805977095886
415.706897,,0.003918125767234085,415.717,0.550000011920929,-2.400853669766466
416.172414,,0.004188485221616931,416.18,0.550000011920929,-2.400596754347091
416.63793100000004,,0.004460648989591534,416.642,0.5410000085830688,-2.4199832211744075
417.103448,,0.004733935416782221,417.108,0.5440000295639038,-2.4132686272721013
417.568966,,0.0050075961167273374,417.572,0.5540000200271606,-2.3913518428532954
418.034483,,0.005281078894856676,418.038,0.5540000200271606,-2.3912735179258378
418.5,,0.005554093349891956,418.505,0.5540000200271606,-2.391249513178076
418.96551700000003,,0.005826127112984765,418.971,0.5540000200271606,-2.3912806677220755
419.43103399999995,,0.006095929881457617,419.435,0.5659999847412109,-2.3652221745326827
419.896552,,0.006362101647917696,419.901,0.5429999828338623,-2.4154678394389903
420.362069,,0.006624628200274802,420.365,0.5529999732971191,-2.3938659168928593
420.827586,,0.006884901972081363,420.831,0.5789999961853027,-2.3374472970696623
421.293103,,0.007142587051990901,421.291,0.5659999847412109,-2.3660299904305275
421.758621,,0.007393081499823953,421.76,0.5630000233650208,-2.372852096071834
422.22413800000004,,0.007631945495325096,422.221,0.5400000214576721,-2.423265320215918
422.689655,,0.007863657981428846,422.69,0.5649999976158142,-2.36911259860585
423.15517200000005,,0.008099502698329259,423.154,0.5440000295639038,-2.4151770414776306
423.62069,,0.008337882442077175,423.616,0.5540000200271606,-2.393693351970335
424.086207,,0.00855296925432777,424.082,0.5680000185966492,-2.3634753391884957
424.55172400000004,,0.008726136098458268,424.546,0.5540000200271606,-2.3942305554182233
425.017241,,0.008894374057844963,425.012,0.5789999961853027,-2.3399814531578254
425.482759,,0.009124289143510439,425.476,0.5419999957084656,-2.420764753930864
425.948276,,0.009391808411022483,425.941,0.5540000200271606,-2.3947456649045664
426.413793,,0.009539699105164333,426.409,0.5669999718666077,-2.3664956239219515
426.87931000000003,,0.009491042803084545,426.875,0.597000002861023,-2.3011523083776844
427.344828,,0.009506863473060638,427.34,0.546999990940094,-2.4100439484699674
427.810345,,0.00995260941197013,427.806,0.5410000085830688,-2.4230205151917916
428.275862,,0.010581997653424886,428.269,0.5419999957084656,-2.420696193327481
428.741379,,0.010446302600207083,428.73,0.5419999957084656,-2.420504571469435
429.20689699999997,,0.009298275898343387,429.199,0.503000020980835,-2.5052407982130935
429.672414,,0.008910414659650612,429.661,0.546999990940094,-2.4091174351173095
430.137931,,0.011243959352040353,430.129,0.5379999876022339,-2.42843772800056
430.603448,,0.01413329001285166,430.592,0.5460000038146973,-2.41070421096474
431.068966,,0.010877178024394953,431.057,0.550000011920929,-2.401677479508958
431.534483,,0.0026209635882684917,431.524,0.5640000104904175,-2.3708652424256424
432.0,,0.02108863749732167,431.99,0.5460000038146973,-2.4097798540312727
432.46551700000003,,0.03405480484635149,432.454,0.5370000004768372,-2.429106348994501
432.931034,,0.03695617314581061,432.919,0.5440000295639038,-2.4136031818543024
433.396552,,0.03473556702238476,433.384,0.5419999957084656,-2.4177443941295236
433.862069,,0.03434367719258839,433.85,0.5630000233650208,-2.371819058672797
434.327586,,0.03743220767134819,434.314,0.5709999799728394,-2.3542632455086263
434.79310300000003,,0.04168946752437515,434.78,0.5199999809265137,-2.465298762246971
435.258621,,0.046047555933948194,435.243,0.550000011920929,-2.39991836465203
435.724138,,0.051328950319458604,435.706,0.546999990940094,-2.406488898247985
436.189655,,0.056635088871780336,436.176,0.5669999718666077,-2.3630041541064033
436.655172,,0.05839104385967467,436.639,0.5389999747276306,-2.4241454969529705
437.12068999999997,,0.05413320614038804,437.105,0.5540000200271606,-2.391652149323054
437.586207,,0.04544098974106771,437.568,0.5429999828338623,-2.4158458738938458
438.051724,,0.035760329992179186,438.034,0.5649999976158142,-2.36817903727894
438.517241,,0.026268526402063185,438.498,0.5299999713897705,-2.444722490168291
438.982759,,0.015078074414204256,438.964,0.546999990940094,-2.407995198486554
439.448276,,9.179868531975226e-05,439.428,0.550000011920929,-2.4017788014864783
439.913793,,0.018215324164146087,439.894,0.5460000038146973,-2.4108128624629397
440.37931000000003,,0.036474790873142926,440.358,0.5540000200271606,-2.393693244608127
440.844828,,0.05005782884390932,440.823,0.5370000004768372,-2.4310208333599825
441.310345,,0.0553555892667221,441.287,0.546999990940094,-2.409497251894817
441.775862,,0.0515868605592637,441.757,0.5379999876022339,-2.4293324645451917
442.241379,,0.04106720510370397,442.217,0.5540000200271606,-2.3946587023839974
442.70689699999997,,0.027775795453938188,442.68,0.5540000200271606,-2.394794570583385
443.172414,,0.015437907035244234,443.15,0.5429999828338623,-2.4188424664421215
443.637931,,0.00632874415759536,443.613,0.5460000038146973,-2.412333631351719
444.103448,,0.0007758406176187132,444.079,0.5699999928474426,-2.3600163527468485
444.568966,,0.0030356900925445005,444.545,0.5460000038146973,-2.4122175194240563
445.03448299999997,,0.008523193373351796,445.011,0.5419999957084656,-2.42079204408694
445.5,,0.018809699948094526,445.476,0.5799999833106995,-2.337813585473319
445.965517,,0.034154471904592525,445.935,0.5540000200271606,-2.394223599546608
446.431034,,0.05083937985002071,446.402,0.5230000019073486,-2.461489869214719
446.896552,,0.0632396207195841,446.867,0.5640000104904175,-2.3718652750169955
447.36206899999996,,0.06783972733571714,447.332,0.5669999718666077,-2.365009412395999
447.827586,,0.06504535477872926,447.797,0.550000011920929,-2.4017154288620755
448.29310300000003,,0.0565002920025821,448.265,0.5630000233650208,-2.3730614841812487
448.758621,,0.0416111184541386,448.727,0.5419999957084656,-2.4184914879329305
449.224138,,0.01877494964383268,449.195,0.5410000085830688,-2.4203686165196268
449.689655,,0.009845902500054892,449.657,0.5419999957084656,-2.4179183622609433
450.155172,,0.037191218980157155,450.125,0.5649999976158142,-2.3675755495298048
450.62068999999997,,0.05646349522328004,450.587,0.5460000038146973,-2.408780439936209
451.086207,,0.06632728678345995,451.053,0.5389999747276306,-2.423892355281389
451.551724,,0.07019281640011572,451.518,0.5669999718666077,-2.3628066735932163
452.017241,,0.07193749197243682,451.984,0.5920000076293945,-2.308313335672576
452.482759,,0.0735691539011119,452.45,0.5540000200271606,-2.3911316855885096
452.94827599999996,,0.07549983886519104,452.916,0.5540000200271606,-2.3912184116577517
453.413793,,0.07707447456685257,453.377,0.5759999752044678,-2.3434298935390707
453.87931,,0.07738686358885549,453.842,0.5379999876022339,-2.4264109917677326
454.344828,,0.07720509775973433,454.306,0.5389999747276306,-2.4244710124938305
454.810345,,0.0796262706390233,454.776,0.5419999957084656,-2.4182134332655028
455.27586199999996,,0.08680259361556839,455.239,0.5680000185966492,-2.3618777691337383
455.741379,,0.09545354994073682,455.701,0.5360000133514404,-2.4319249498723754
456.206897,,0.09724751122005151,456.169,0.5540000200271606,-2.393051163741008
456.672414,,0.08534127161540059,456.631,0.5669999718666077,-2.3650715612740574
457.137931,,0.06076793946196222,457.097,0.5419999957084656,-2.4198704788808505
457.603448,,0.031784024267704165,457.567,0.5789999961853027,-2.339573011332938
458.06896600000005,,0.006820451747108143,458.025,0.5239999890327454,-2.459681609831376
458.53448299999997,,0.011631032584458495,458.491,0.5540000200271606,-2.394567320796895
459.0,,0.026626438902452487,458.956,0.5509999990463257,-2.4013032619653516
459.465517,,0.041673965603668664,459.424,0.546999990940094,-2.4101658220108186
459.931034,,0.056920960208933905,459.89,0.5669999718666077,-2.3666838846841123
460.39655200000004,,0.06990797228668619,460.354,0.5419999957084656,-2.4211808711292404
460.86206899999996,,0.07880221766531052,460.82,0.5540000200271606,-2.3950067480106885
461.327586,,0.08387315965731082,461.28,0.5690000057220459,-2.3622360451307354
461.793103,,0.08592056357865523,461.75,0.5669999718666077,-2.366443452767186
462.258621,,0.08462655049195311,462.213,0.5519999861717224,-2.398918633592612
462.724138,,0.0794679131901557,462.676,0.5540000200271606,-2.394308775361797
463.18965499999996,,0.07123975418957144,463.147,0.5419999957084656,-2.420160144127509
463.655172,,0.06101983669819002,463.609,0.5720000267028809,-2.354476774955864
464.12069,,0.04810733579428874,464.075,0.5339999794960022,-2.4369199698206723
464.58620699999994,,0.030952243283365183,464.539,0.5460000038146973,-2.4104199167554743
465.051724,,0.010324892974828909,465.004,0.5249999761581421,-2.4558162665161105
465.517241,,0.010111441403434049,465.469,0.5669999718666077,-2.363969129364657
465.98275900000004,,0.02669126308409601,465.935,0.5540000200271606,-2.3919686115147907
466.448276,,0.037660140794327425,466.402,0.5540000200271606,-2.391676381660656
466.913793,,0.04211298031455959,466.86,0.5299999713897705,-2.4437121678771505
467.37931,,0.03923198971455913,467.325,0.550000011920929,-2.3999358586735737
467.844828,,0.029552202446222784,467.791,0.6660000085830688,-2.147061862960234
468.31034500000004,,0.015176717672406581,468.261,0.5759999752044678,-2.3430440192885316
468.77586199999996,,0.0025293370164270893,468.724,0.5699999928474426,-2.3560785065749865
469.241379,,0.023985967487432022,469.187,0.5709999799728394,-2.3539250229238315
469.706897,,0.048639393681059594,469.65,0.5379999876022339,-2.4259085474469746
470.172414,,0.07231483685173444,470.121,0.5419999957084656,-2.4173440295879605
470.63793100000004,,0.08945345115293317,470.583,0.5419999957084656,-2.417552498225075
471.10344799999996,,0.09787319501929938,471.049,0.5429999828338623,-2.4156346905529444
471.568966,,0.09885827771840605,471.513,0.5460000038146973,-2.409404142675223
472.034483,,0.09103989982752475,471.979,0.5400000214576721,-2.4228169805851243
472.5,,0.06642336820278408,472.446,0.5389999747276306,-2.4253621683080073
472.965517,,0.016991845267593435,472.905,0.5379999876022339,-2.4279216927862657
473.43103399999995,,0.052403655467090304,473.372,0.5460000038146973,-2.4108760214504286
473.89655200000004,,0.11988265258495741,473.838,0.5509999990463257,-2.400356710460854
474.362069,,0.1594196810217876,474.306,0.5540000200271606,-2.3941728990022297
474.827586,,0.16004411619662523,474.769,0.5669999718666077,-2.3661694245460785
475.293103,,0.13192533529092262,475.232,0.5720000267028809,-2.355550799421305
475.758621,,0.09411356134149179,475.695,0.5630000233650208,-2.3753801722268983
476.22413800000004,,0.05895322738705497,476.165,0.5709999799728394,-2.358112260877958
476.689655,,0.02869056365331359,476.628,0.6579999923706055,-2.168663497520366
477.155172,,0.0022173839206517682,477.093,0.5339999794960022,-2.4388380421297953
477.62069,,0.02014085204637968,477.556,0.5419999957084656,-2.421361040748972
478.086207,,0.037788231681029655,478.021,0.546999990940094,-2.410353444677121
478.55172400000004,,0.051218089547916845,478.488,0.5389999747276306,-2.427604837348422
479.01724099999996,,0.060392407874982824,478.954,0.5640000104904175,-2.372902192966495
479.482759,,0.06397391589670785,479.421,0.5540000200271606,-2.3944002740190475
479.948276,,0.06194345897552215,479.887,0.5419999957084656,-2.4202124728474765
480.413793,,0.05765770326374555,480.35,0.550000011920929,-2.402418860230906
480.87931000000003,,0.055581889924927366,480.816,0.5669999718666077,-2.3649954571218634
481.344828,,0.05772621052441742,481.276,0.5379999876022339,-2.4277792623504153
481.810345,,0.06356075632878025,481.746,0.5419999957084656,-2.418669965018011
482.275862,,0.0720872422641789,482.206,0.5049999952316284,-2.4989008027963386
482.74137900000005,,0.08176598697263106,482.676,0.5429999828338623,-2.4157607009929762
483.206897,,0.08908559648745434,483.139,0.5789999961853027,-2.3370149328605776
483.672414,,0.09003396735286469,483.602,0.5339999794960022,-2.4347853459535926
484.13793100000004,,0.08402885330772909,484.067,0.5389999747276306,-2.4236780245817005
484.603448,,0.07477223499373717,484.531,0.5669999718666077,-2.36252331448009
485.068966,,0.06561312262017345,484.997,0.5379999876022339,-2.4256173221979505
485.534483,,0.05472613243745503,485.461,0.5419999957084656,-2.4168849808683732
486.0,,0.037013000189242834,485.927,0.5360000133514404,-2.4300093973579275
486.46551700000003,,0.01105788164796432,486.391,0.5170000195503235,-2.471525634562436
486.931034,,0.01867917633899107,486.857,0.5630000233650208,-2.3714954110383384
487.396552,,0.04835213685891061,487.321,0.5519999861717224,-2.3957072354838327
487.862069,,0.08016274135553475,487.786,0.5540000200271606,-2.3916475024840516
488.327586,,0.11707332683420256,488.25,0.5419999957084656,-2.41813139714634
488.79310300000003,,0.1534328307979591,488.72,0.5419999957084656,-2.4185039883991735
489.258621,,0.1762443706033199,489.18,0.5379999876022339,-2.4276127356293893
489.724138,,0.17755084175456964,489.65,0.5540000200271606,-2.3931578124698065
490.189655,,0.1620793993116354,490.121,0.5419999957084656,-2.4197019876009582
490.655172,,0.14073452361888802,490.576,0.550000011920929,-2.4026576518120724
491.12069,,0.12019219257921386,491.042,0.5540000200271606,-2.3943005576761327
491.586207,,0.10196578200040764,491.506,0.5540000200271606,-2.394619438553733
492.05172400000004,,0.08787157889099614,491.972,0.5429999828338623,-2.418855236625511
492.517241,,0.08016855062676019,492.439,0.5640000104904175,-2.373317499296669
492.982759,,0.07617802514696505,492.905,0.5659999847412109,-2.369110368191383
493.448276,,0.06810772168150855,493.369,0.5220000147819519,-2.4650528387037234
493.913793,,0.05115579908918038,493.834,0.5699999928474426,-2.360489692699777
494.37931000000003,,0.029432698416551887,494.295,0.5440000295639038,-2.417075531893778
494.844828,,0.011201480486782444,494.764,0.546999990940094,-2.410411515760823
495.310345,,0.0003760266112244658,495.232,0.574999988079071,-2.3492156856745696
495.775862,,0.00907078835871501,495.694,0.5429999828338623,-2.4186786520233556
496.241379,,0.018964283960291005,496.158,0.5759999752044678,-2.3464770260007612
496.70689699999997,,0.029098479662282073,496.62,0.550000011920929,-2.4027723992614463
497.172414,,0.035400224162003356,497.086,0.5440000295639038,-2.4154627753869273
497.637931,,0.03575348525057377,497.556,0.5540000200271606,-2.3932749768318713
498.103448,,0.03203675555003474,498.015,0.5540000200271606,-2.3928658357901753
498.568966,,0.02854638105929664,498.48,0.5419999957084656,-2.4186053017954894
499.03448299999997,,0.02945011033013169,498.946,0.5460000038146973,-2.409503846235982
499.5,,0.0361813014010357,499.413,0.546999990940094,-2.406967835777349
499.96551700000003,,0.045343556063827783,499.879,0.5299999713897705,-2.443688133226803
500.431034,,0.050208822836090135,500.343,0.5339999794960022,-2.434707578225778
500.89655200000004,,0.046823514993534744,500.809,0.5630000233650208,-2.371319291637831
501.362069,,0.03854607840545962,501.276,0.5450000166893005,-2.410391684856096
501.827586,,0.032618323278273235,501.739,0.5619999766349792,-2.373279644578127
502.293103,,0.032553123817060214,502.202,0.5490000247955322,-2.401597327579801
502.758621,,0.03580047543720942,502.672,0.5460000038146973,-2.408199471714617
503.224138,,0.03843100217765531,503.132,0.550000011920929,-2.3996200768026132
503.68965499999996,,0.039596086829841205,503.601,0.6100000143051147,-2.2691000705248383
504.15517200000005,,0.04080388178765092,504.06,0.5419999957084656,-2.417503867809198
504.62068999999997,,0.042990542442879184,504.532,0.5419999957084656,-2.417809851194085
505.08620699999994,,0.04591457768864134,504.99,0.5669999718666077,-2.3636916155386785
505.55172400000004,,0.04927637326882684,505.461,0.550000011920929,-2.4011073460305914
506.017241,,0.05255935698763694,505.92,0.546999990940094,-2.4080417374958376
506.48275899999993,,0.05415110126813781,506.391,0.5450000166893005,-2.412805412678671
506.948276,,0.052391482586689964,506.85,0.531000018119812,-2.4437090397423207
507.413793,,0.0475758881108527,507.322,0.5669999718666077,-2.3656640660518304
507.87931,,0.04160097337790295,507.78,0.5419999957084656,-2.4204879039798723
508.344828,,0.03580643076949262,508.25,0.531000018119812,-2.444771555784385
508.810345,,0.03060368238060851,508.712,0.5419999957084656,-2.4210768256317783
509.27586199999996,,0.026876695051698214,509.18,0.5519999861717224,-2.399503778413256
509.74137900000005,,0.025727427623602483,509.642,0.5669999718666077,-2.3669730480682074
510.20689699999997,,0.02659658859688664,510.108,0.5410000085830688,-2.4236974239662383
510.67241399999995,,0.02762268511161561,510.572,0.5529999732971191,-2.3975617795408484
511.13793100000004,,0.028614383464644903,511.038,0.5730000138282776,-2.3539245397460005
511.603448,,0.032017628351179425,511.503,0.550000011920929,-2.403898351670801
512.0689659999999,,0.03978472305146722,511.968,0.5400000214576721,-2.4254834262602887
512.534483,,0.050334326035447526,512.436,0.5379999876022339,-2.4295800179568507
513.0,,0.06004552475182442,512.902,0.5540000200271606,-2.3944092104939037
513.465517,,0.06767403190821618,513.361,0.5419999957084656,-2.420198222232457
513.931034,,0.07598793083739903,513.827,0.5419999957084656,-2.419811782669036
514.396552,,0.0879391841359213,514.295,0.5389999747276306,-2.42594170769263
514.862069,,0.10134747449797865,514.757,0.5419999957084656,-2.418992373640878
515.327586,,0.10838760588175238,515.225,0.550000011920929,-2.401154853294716
515.793103,,0.1007573223217748,515.688,0.5649999976158142,-2.3680836568208123
516.258621,,0.07471109656644435,516.151,0.5299999713897705,-2.4439736038834465
516.724138,,0.031018143876429413,516.621,0.5389999747276306,-2.4240435076445586
517.189655,,0.027787110819342795,517.087,0.5429999828338623,-2.415057325947202
517.655172,,0.09702344775380904,517.55,0.5630000233650208,-2.3712709825967924
518.1206900000001,,0.16626518346186098,518.015,0.5299999713897705,-2.4430178973301113
518.5862070000001,,0.21963345656600633,518.476,0.5479999780654907,-2.403723356097028
519.051724,,0.2442116342261986,518.942,0.5540000200271606,-2.390644641629901
519.517241,,0.23953575331685642,519.409,0.5460000038146973,-2.408139158525001
519.982759,,0.21700302093060986,519.875,0.492000013589859,-2.525922832029771
520.448276,,0.18928854606252848,520.335,0.5460000038146973,-2.4084808811605156
520.9137929999999,,0.1621632228526904,520.801,0.5540000200271606,-2.3913178357123694
521.37931,,0.13638014293544323,521.269,0.5460000038146973,-2.4090651059014827
521.844828,,0.11275445497649209,521.731,0.5400000214576721,-2.4224974677357367
522.310345,,0.09194522773141972,522.199,0.5419999957084656,-2.4185325818362386
522.7758620000001,,0.07225199190196578,522.661,0.5460000038146973,-2.4102302081867446
523.241379,,0.052088660219167554,523.132,0.5429999828338623,-2.417185649217389
523.7068969999999,,0.033934164277212776,523.594,0.5540000200271606,-2.3936341376824934
524.172414,,0.022468846202080846,524.06,0.5680000185966492,-2.3635278064559038
524.637931,,0.018331266146656672,524.525,0.574999988079071,-2.348640257430609
525.103448,,0.015715952115647837,524.99,0.5709999799728394,-2.3576745257825773
525.568966,,0.007500388203932586,525.455,0.5820000171661377,-2.333975863459722
526.034483,,0.007229031745298982,525.921,0.5929999947547913,-2.310215737172843
526.5,,0.021716384159812047,526.38,0.5720000267028809,-2.3561044329663323
526.9655170000001,,0.02870205019965442,526.846,0.5799999833106995,-2.338741173161686
527.4310340000001,,0.028415283958978344,527.321,0.5360000133514404,-2.4345954646821975
527.8965519999999,,0.027488128616540305,527.779,0.5419999957084656,-2.421447257273084
528.362069,,0.03031378502520968,528.247,0.5669999718666077,-2.3668373339408046
528.827586,,0.03460890342026336,528.709,0.6069999933242798,-2.2794829976587088
529.293103,,0.03650482645926544,529.173,0.5929999947547913,-2.309716053461655
529.7586210000001,,0.03676595431477972,529.635,0.5929999947547913,-2.3093965024483523
530.224138,,0.0393382834443757,530.101,0.5889999866485596,-2.3177503962407644
530.689655,,0.04549707067652982,530.571,0.597000002861023,-2.2999305594004342
531.155172,,0.052175507561959565,531.037,0.597000002861023,-2.2995220396062015
531.62069,,0.05567412179235058,531.495,0.6079999804496765,-2.275142907618863
532.086207,,0.05513728808773651,531.96,0.574999988079071,-2.346631882413516
532.5517239999999,,0.05235920951206566,532.425,0.5950000286102295,-2.3026733122474474
533.017241,,0.04951416546643201,532.891,0.5889999866485596,-2.315392720625257
533.482759,,0.04759500429596439,533.358,0.6200000047683716,-2.247545119851071
533.9482760000001,,0.04642163405084067,533.824,0.6060000061988831,-2.2777887394097784
534.413793,,0.04524228471592461,534.291,0.6179999709129333,-2.251447261082086
534.87931,,0.04315506126658598,534.754,0.6539999842643738,-2.1728831274962355
535.344828,,0.039955587568796795,535.217,0.6050000190734863,-2.2795727332483366
535.810345,,0.03721703135820724,535.687,0.6610000133514404,-2.15757513054324
536.275862,,0.03722337842738347,536.15,0.6159999966621399,-2.2556916832218823
536.7413789999999,,0.03945155134125516,536.613,0.6370000243186951,-2.210085984758929
537.206897,,0.039389103048093184,537.078,0.6359999775886536,-2.212475310478611
537.672414,,0.03314423007164287,537.545,0.6309999823570251,-2.223637277913834
538.137931,,0.022997156384183325,538.011,0.628000020980835,-2.23049235559705
538.6034480000001,,0.016310532486517048,538.476,0.640999972820282,-2.2025301874225103
539.0689659999999,,0.018430882551963484,538.941,0.6480000019073486,-2.1876693747281424
539.5344829999999,,0.02777154263778401,539.406,0.652999997138977,-2.1771832833761824
540.0,,0.03798935878915672,539.872,0.6449999809265137,-2.19502462439317
540.465517,,0.04391080623568241,540.336,0.6639999747276306,-2.15403486322373
540.931034,,0.04522819740448915,540.801,0.6539999842643738,-2.1762058272817764
541.396552,,0.04562108656715271,541.262,0.6600000262260437,-2.1634866381704665
541.862069,,0.048930295540976415,541.731,0.6729999780654907,-2.1354745557655415
542.327586,,0.055526223664420525,542.195,0.6819999814033508,-2.116124374054553
542.7931030000001,,0.061639319199190926,542.657,0.6959999799728394,-2.0858198783566793
543.258621,,0.06225463460079495,543.125,0.6660000085830688,-2.15130891767357
543.7241379999999,,0.054991396548786445,543.587,0.6830000281333923,-2.1143313538517283
544.189655,,0.04119278146674333,544.052,0.7300000190734863,-2.0119217770736118
544.655172,,0.023267179898530603,544.517,0.7170000076293945,-2.0401574372911377
545.12069,,0.0018386432989002579,544.983,0.6869999766349792,-2.105359647785975
545.5862070000001,,0.02299866189731128,545.45,0.6869999766349792,-2.1051383789962035
546.051724,,0.047542845414103245,545.916,0.7239999771118164,-2.0242502081978584
546.517241,,0.06399663185026382,546.38,0.6700000166893005,-2.141570694380635
546.982759,,0.06634570895597514,546.846,0.6589999794960022,-2.165173000030034
547.448276,,0.05617096007677849,547.309,0.6980000138282776,-2.079818368941313
547.9137929999999,,0.041202780703583214,547.772,0.7080000042915344,-2.057630969987559
548.3793099999999,,0.028718353669667792,548.24,0.6949999928474426,-2.085550376086738
548.844828,,0.02147278015044354,548.702,0.6830000281333923,-2.111301861513347
549.310345,,0.018989967917214506,549.165,0.671999990940094,-2.1348986278731408
549.775862,,0.02051184796721442,549.635,0.7020000219345093,-2.0692057034166385
550.241379,,0.025948959544061456,550.101,0.6830000281333923,-2.1103112286180483
550.706897,,0.03534379982227175,550.563,0.6949999928474426,-2.08393185903976
551.172414,,0.04898175088561746,551.029,0.6880000233650208,-2.0990068068754852
551.637931,,0.06751289169611928,551.495,0.6790000200271606,-2.11850451159176
552.103448,,0.08979834360491573,551.961,0.6679999828338623,-2.1424286488509785
552.568966,,0.11022697202895239,552.421,0.7059999704360962,-2.05966868230907
553.034483,,0.12065759916997079,552.887,0.6700000166893005,-2.138196510956771
553.5,,0.11682768823241424,553.354,0.6660000085830688,-2.14707284007511
553.965517,,0.10181392138544436,553.82,0.6710000038146973,-2.136401762029694
554.4310340000001,,0.08240677165604801,554.28,0.6840000152587891,-2.108354227996125
554.896552,,0.0637032957853756,554.75,0.6520000100135803,-2.178389808997411
555.3620689999999,,0.04802387512411846,555.213,0.6570000052452087,-2.1678498334170477
555.827586,,0.03643100855978437,555.676,0.6990000009536743,-2.076722624946984
556.293103,,0.028378386626457613,556.146,0.6579999923706055,-2.1664332386087626
556.758621,,0.02068452099851333,556.609,0.6539999842643738,-2.175532376141772
557.224138,,0.009736692808034778,557.074,0.7089999914169312,-2.0560775146188988
557.689655,,0.004507054541029901,557.538,0.6470000147819519,-2.191498492572185
558.155172,,0.01799000728739232,558.004,0.6700000166893005,-2.141698402363379
558.6206900000001,,0.026567460803063013,558.469,0.675000011920929,-2.131068769835565
559.0862070000001,,0.030089493111782866,558.935,0.6330000162124634,-2.2227825011169617
559.5517239999999,,0.032331601167952695,559.395,0.7039999961853027,-2.068249583602997
560.017241,,0.03698663811881249,559.86,0.6480000019073486,-2.1903404298379465
560.482759,,0.04388406809447995,560.328,0.6579999923706055,-2.168573992958615
560.948276,,0.04939823086178844,560.794,0.6359999775886536,-2.216458641184865
561.413793,,0.050298315619862304,561.261,0.6489999890327454,-2.1880269109948767
561.87931,,0.0466273965382994,561.724,0.6209999918937683,-2.2488603229786914
562.344828,,0.041099600733303654,562.192,0.6309999823570251,-2.226851660172899
562.8103450000001,,0.03644973629764083,562.654,0.6119999885559082,-2.2679778936964134
563.275862,,0.03333891635134217,563.124,0.6100000143051147,-2.272030067682107
563.7413789999999,,0.030320740171540857,563.587,0.6190000176429749,-2.2520898214311753
564.206897,,0.02572271817935109,564.045,0.6010000109672546,-2.2909559562480113
564.672414,,0.01960370832671958,564.51,0.6259999871253967,-2.236133616887444
565.137931,,0.013874037102063207,564.976,0.5849999785423279,-2.3251063048573335
565.603448,,0.010801187500361376,565.443,0.6129999756813049,-2.2637673435612338
566.068966,,0.011527040491959744,565.908,0.5839999914169312,-2.3266366102804366
566.534483,,0.015294354370590797,566.372,0.6019999980926514,-2.287143837594762
567.0,,0.019410228212786356,566.838,0.5659999847412109,-2.365340990702237
567.465517,,0.020603649653761914,567.306,0.550000011920929,-2.4000156327238753
567.931034,,0.01758979706838002,567.769,0.5649999976158142,-2.3672085743152227
568.396552,,0.01230849278452739,568.232,0.5680000185966492,-2.360604204775681
568.862069,,0.007853237448100995,568.702,0.593999981880188,-2.303950212266723
569.327586,,0.005205148946512029,569.165,0.5669999718666077,-2.36282249856177
569.793103,,0.00268209704739566,569.628,0.5460000038146973,-2.4086791707720017
570.2586210000001,,0.0015490628563629102,570.093,0.5809999704360962,-2.332584482333805
570.724138,,0.007329665294282518,570.556,0.5419999957084656,-2.4177566580382575
571.189655,,0.013008623533355777,571.022,0.5630000233650208,-2.372250159494771
571.655172,,0.017194659087806426,571.488,0.5630000233650208,-2.372527373262438
572.12069,,0.019463724436675225,571.954,0.5370000004768372,-2.4294725554847836
572.586207,,0.01984670871877422,572.421,0.5630000233650208,-2.3731417559948693
573.051724,,0.01836886413944324,572.886,0.5669999718666077,-2.3647447834372914
573.517241,,0.0151108081043174,573.35,0.5509999990463257,-2.399913788220079
573.982759,,0.010233931603257636,573.816,0.5299999713897705,-2.4459607371754832
574.4482760000001,,0.0038169729324271057,574.276,0.5669999718666077,-2.3656220572944413
574.913793,,0.004070942876436715,574.746,0.5329999923706055,-2.4399351417975654
575.37931,,0.013298979841812199,575.21,0.5379999876022339,-2.429242254204706
575.844828,,0.02417637886972928,575.672,0.5009999871253967,-2.510009438460536
576.310345,,0.03774916510667016,576.14,0.5120000243186951,-2.4861550273809705
576.775862,,0.05468244077105221,576.603,0.515999972820282,-2.4775023836939756
577.241379,,0.07369099371561291,577.068,0.5130000114440918,-2.4840494688307713
577.706897,,0.09181014891567292,577.535,0.5199999809265137,-2.4687596666507305
578.172414,,0.10681556196411778,578.001,0.5370000004768372,-2.43163386531962
578.6379310000001,,0.11947223855700104,578.466,0.5270000100135803,-2.453284778822943
579.1034480000001,,0.13280464115133822,578.932,0.5170000195503235,-2.4748936332652374
579.5689659999999,,0.1477654499755731,579.391,0.5239999890327454,-2.4594296729873943
580.034483,,0.1589862015926896,579.857,0.5260000228881836,-2.454829624830985
580.5,,0.1562954195840297,580.324,0.5130000114440918,-2.482887849809573
580.965517,,0.1321675950787564,580.79,0.5230000019073486,-2.460823997400414
581.431034,,0.0871683871823736,581.251,0.5130000114440918,-2.4823284677747752
581.896552,,0.026585567603668724,581.721,0.515999972820282,-2.4755146181374803
582.362069,,0.0474888797769829,582.184,0.5139999985694885,-2.4796062830031027
582.827586,,0.13697281035848713,582.646,0.5230000019073486,-2.4597529194979275
583.2931030000001,,0.23724089434646844,583.112,0.4970000088214874,-2.5161796312757905
583.758621,,0.3268931079867311,583.577,0.5130000114440918,-2.481137144113371
584.2241379999999,,0.37410949680457944,584.043,0.49300000071525574,-2.5245654579754317
584.689655,,0.3587774177975123,584.51,0.4970000088214874,-2.515749728013368
585.155172,,0.2891937267136276,584.976,0.5139999985694885,-2.4786574982257408
585.6206900000001,,0.19552352602717446,585.435,0.4830000102519989,-2.546187129146282
586.0862070000001,,0.10690904651612873,585.901,0.5049999952316284,-2.4982951188323588
586.551724,,0.03524811823746762,586.365,0.5009999871253967,-2.507092623486983
587.017241,,0.021621761989120792,586.83,0.5080000162124634,-2.4919659329101838
587.482759,,0.06682330824124025,587.298,0.5109999775886536,-2.4855903466971645
587.948276,,0.09851935405441181,587.76,0.4970000088214874,-2.516282574165409
588.4137929999999,,0.11464403503616488,588.228,0.4959999918937683,-2.518677588013187
588.87931,,0.11727733070996096,588.691,0.503000020980835,-2.503661638927689
589.344828,,0.10929888062872914,589.161,0.4909999966621399,-2.5300510428764156
589.810345,,0.08932853096638448,589.624,0.49000000953674316,-2.532478830991373
590.2758620000001,,0.05377469059648,590.09,0.4959999918937683,-2.51965226463451
590.741379,,0.004855434944895633,590.553,0.49000000953674316,-2.5329580325405185
591.2068969999999,,0.04481819612844714,591.018,0.49000000953674316,-2.533173716694804
591.672414,,0.07747803537221015,591.484,0.5019999742507935,-2.507221040361922
592.137931,,0.08135294311278352,591.95,0.45100000500679016,-2.61849351269024
592.603448,,0.05758903260154253,592.41,0.4860000014305115,-2.5423691411657496
593.068966,,0.017352756698744594,592.876,0.5070000290870667,-2.496708488069935
593.534483,,0.026559998072627797,593.343,0.515999972820282,-2.477150594752458
594.0,,0.06552792769396387,593.808,0.5019999742507935,-2.5076588396990336
594.4655170000001,,0.09561863547068859,594.276,0.503000020980835,-2.5054452875306983
594.9310340000001,,0.11619102866571328,594.738,0.49900001287460327,-2.5140851238584534
595.3965519999999,,0.12941511987481685,595.206,0.48100000619888306,-2.553189442147085
595.862069,,0.13946610279770508,595.668,0.4819999933242798,-2.5508675539588874
596.327586,,0.14973644499568328,596.136,0.4830000102519989,-2.548518889908332
596.793103,,0.15988306578884484,596.598,0.4950000047683716,-2.5221837550949866
597.2586210000001,,0.16558358494911946,597.064,0.4880000054836273,-2.53722739294823
597.724138,,0.16028863486908693,597.531,0.4909999966621399,-2.5304755296874815
598.189655,,0.1362920366358926,597.99,0.49000000953674316,-2.532435931521112
598.655172,,0.08626576931928631,598.461,0.49000000953674316,-2.53222207536484
599.12069,,0.008815023227600007,598.92,0.5260000228881836,-2.453586951244498
599.586207,,0.08467571092984492,599.387,0.492000013589859,-2.527472775306638
600.0517239999999,,0.1713920200265883,599.853,0.5070000290870667,-2.494625998422053
600.517241,,0.23001004782561793,600.318,0.503000020980835,-2.5031998102596096
600.982759,,0.25438762832063844,600.783,0.48500001430511475,-2.542305046950154
601.448276,,0.25421383969504124,601.246,0.5210000276565552,-2.463796549905089
601.913793,,0.24258887557908657,601.717,0.4970000088214874,-2.5160417841034675
602.37931,,0.224161159712105,602.18,0.49900001287460327,-2.51167781144099
602.844828,,0.1949178793995335,602.642,0.5379999876022339,-2.4267389898453224
603.310345,,0.1510577095528968,603.108,0.49900001287460327,-2.5117677373837344
603.775862,,0.09623410992828671,603.572,0.5099999904632568,-2.4878954360980465
604.2413789999999,,0.04071746075851931,604.038,0.4869999885559082,-2.5381260700862613
604.706897,,0.005057141694974739,604.502,0.49000000953674316,-2.531737290057349
605.172414,,0.03629917494356449,604.968,0.5090000033378601,-2.4905109296847856
605.637931,,0.05524504123367178,605.436,0.49900001287460327,-2.51248021249642
606.1034480000001,,0.06811468982470582,605.895,0.503000020980835,-2.5039574954253054
606.5689659999999,,0.08000087521359704,606.361,0.4869999885559082,-2.539011360770301
607.0344829999999,,0.0913639547505436,606.827,0.503000020980835,-2.504346085959632
607.5,,0.09896360542807521,607.295,0.5120000243186951,-2.4849228973162703
607.965517,,0.10006828224563742,607.757,0.48399999737739563,-2.5460956584069256
608.431034,,0.09542415547445579,608.22,0.5070000290870667,-2.4961384845263135
608.896552,,0.08818796760867792,608.691,0.46799999475479126,-2.5812350149897667
609.362069,,0.08087870442422251,609.154,0.5049999952316284,-2.50072810310725
609.827586,,0.0742537235444599,609.616,0.4869999885559082,-2.540017708399724
610.293103,,0.06862950699878326,610.082,0.5049999952316284,-2.500844387031542
610.758621,,0.06454598172282441,610.546,0.48399999737739563,-2.5466059356979067
611.2241379999999,,0.06147981570479226,611.011,0.5220000147819519,-2.4637944248200383
611.689655,,0.05736461377206107,611.476,0.5049999952316284,-2.5007762700965483
612.155172,,0.050542624366961324,611.941,0.49900001287460327,-2.513762496098307
612.62069,,0.04152168880802975,612.406,0.4880000054836273,-2.537615298727943
613.0862070000001,,0.03227470777419513,612.871,0.49000000953674316,-2.5331231074354554
613.551724,,0.024400361463343873,613.336,0.49399998784065247,-2.5242555433676133
614.017241,,0.017938816786120113,613.802,0.4830000102519989,-2.5480543418478656
614.4827590000001,,0.011177818069852026,614.265,0.49000000953674316,-2.5326295972264807
614.948276,,0.0018509726341611027,614.735,0.4749999940395355,-2.56513281499991
615.4137929999999,,0.010481030614274857,615.198,0.5139999985694885,-2.479991595658575
615.8793099999999,,0.02323471557431215,615.661,0.47600001096725464,-2.562613711028201
616.344828,,0.03256330039037693,616.129,0.4880000054836273,-2.536316111775874
616.810345,,0.03616928212922694,616.591,0.5210000276565552,-2.464283603261831
617.275862,,0.034236668917951296,617.057,0.492000013589859,-2.5273471728642787
617.741379,,0.028564337877897097,617.521,0.47999998927116394,-2.5533974303572737
618.206897,,0.021743408906978345,617.987,0.4869999885559082,-2.538080386695329
618.672414,,0.016430775151874577,618.454,0.5040000081062317,-2.5010052035943944
619.137931,,0.013710856980050541,618.919,0.46399998664855957,-2.588142282384109
619.603448,,0.011812516206373832,619.384,0.4699999988079071,-2.57509154998025
620.068966,,0.00781469374949859,619.849,0.47999998927116394,-2.55335568903165
620.534483,,0.0014505199827609708,620.31,0.46299999952316284,-2.5904706099418835
621.0,,0.003898492448371927,620.78,0.47699999809265137,-2.560072120463373
621.465517,,0.005183327752561118,621.243,0.4779999852180481,-2.558017024162233
621.9310340000001,,0.003744627475986929,621.705,0.48500001430511475,-2.542906288758928
622.396552,,0.003661582950581486,622.176,0.4860000014305115,-2.5408789897241926
622.862069,,0.006347929742083757,622.638,0.4779999852180481,-2.5584660925205016
623.327586,,0.008899148408268638,623.104,0.4729999899864197,-2.569519125149607
623.793103,,0.008485205744609507,623.567,0.49000000953674316,-2.532638796912808
624.258621,,0.006273603695992631,624.033,0.47999998927116394,-2.554573865842791
624.724138,,0.005143213516095674,624.498,0.49000000953674316,-2.5329230306112094
625.189655,,0.004875023464348523,624.964,0.46799999475479126,-2.580972439071716
625.655172,,0.002197232937239289,625.429,0.46299999952316284,-2.591965470455466
626.1206900000001,,0.004403260559971546,625.895,0.48500001430511475,-2.5441130607531277
626.5862070000001,,0.012066363885046059,626.362,0.4880000054836273,-2.5376302887361106
627.0517239999999,,0.01657221840142956,626.82,0.4650000035762787,-2.5877662673831745
627.5172409999999,,0.016681155732226775,627.291,0.45899999141693115,-2.600839596453529
627.982759,,0.01449323693483527,627.753,0.47699999809265137,-2.561600334090636
628.448276,,0.012382202500727642,628.221,0.4819999933242798,-2.5506590057550356
628.913793,,0.011069349818061583,628.683,0.46700000762939453,-2.583267673701664
629.37931,,0.010647512680608893,629.146,0.4699999988079071,-2.576640679753528
629.844828,,0.01171153118409091,629.616,0.46399998664855957,-2.5896048726699012
630.3103450000001,,0.01434107119776434,630.075,0.46799999475479126,-2.5807694930625464
630.7758620000001,,0.017035583356509745,630.546,0.4860000014305115,-2.541423483168283
631.2413789999999,,0.018176981208462298,631.012,0.47999998927116394,-2.5543590128233205
631.706897,,0.018302165756461507,631.476,0.47200000286102295,-2.5716499740821646
632.172414,,0.01962778735392418,631.935,0.4790000021457672,-2.5562639387074877
632.637931,,0.022948016131614315,632.402,0.4659999907016754,-2.584457854176266
633.103448,,0.025829058248078365,632.867,0.47200000286102295,-2.571268396789002
633.568966,,0.024718491234397264,633.332,0.4749999940395355,-2.5646293374985594
634.034483,,0.01870828766905996,633.798,0.4909999966621399,-2.529684625354183
634.5,,0.010392268818597469,634.261,0.47999998927116394,-2.553582209739531
634.9655170000001,,0.0028978664552011114,634.731,0.47699999809265137,-2.5600712723546235
635.431034,,0.0029205185617440866,635.195,0.46700000762939453,-2.581833240344471
635.8965519999999,,0.007946539574899247,635.658,0.45899999141693115,-2.599261357347288
636.362069,,0.012820641940431383,636.121,0.4699999988079071,-2.575318469316525
636.827586,,0.017749046715683375,636.591,0.46799999475479126,-2.5797201766876485
637.293103,,0.023427641954752138,637.056,0.4699999988079071,-2.5754275213671423
637.7586210000001,,0.030546161126703122,637.52,0.47600001096725464,-2.562438034117305
638.224138,,0.038519708001654454,637.986,0.49300000071525574,-2.525497819967843
638.689655,,0.04571399158639418,638.451,0.4790000021457672,-2.556106362252848
639.155172,,0.050350534738206346,638.916,0.4690000116825104,-2.5780078609664634
639.62069,,0.050132174329173704,639.376,0.47200000286102295,-2.5715914702722404
640.086207,,0.04201079384114925,639.842,0.492000013589859,-2.5281384911972844
640.551724,,0.024244443256900176,640.31,0.4790000021457672,-2.556577247189577
641.017241,,0.001164356188479529,640.771,0.46799999475479126,-2.5806518021607805
641.482759,,0.028969993571951434,641.239,0.48100000619888306,-2.552429059804404
641.9482760000001,,0.053768086495916106,641.702,0.4819999933242798,-2.5503373464967996
642.413793,,0.07250987211994131,642.17,0.46399998664855957,-2.589624802204191
642.87931,,0.0844743066576531,642.631,0.4880000054836273,-2.537392101640274
643.344828,,0.08951895520551963,643.097,0.4690000116825104,-2.5788229680289305
643.810345,,0.08712099065678587,643.56,0.49399998784065247,-2.5243739983770817
644.275862,,0.07748559587145573,644.025,0.44699999690055847,-2.6267685252865194
644.7413789999999,,0.06291568352798813,644.491,0.47999998927116394,-2.554853089870701
645.206897,,0.04721241377357055,644.956,0.48500001430511475,-2.5439222203192142
645.672414,,0.03375487390015679,645.421,0.4909999966621399,-2.530795811394167
646.1379310000001,,0.024137219410242754,645.887,0.4779999852180481,-2.5590486463957998
646.6034480000001,,0.017704274980087427,646.354,0.49000000953674316,-2.532822665348451
647.0689659999999,,0.011954246640138692,646.82,0.4869999885559082,-2.5392666369610857
647.534483,,0.004362270893024649,647.284,0.5049999952316284,-2.49995162053483
648.0,,0.005430451845089663,647.746,0.49000000953674316,-2.5325276153833363
648.465517,,0.015528640636983157,648.213,0.5019999742507935,-2.506279134384736
648.931034,,0.02380849519770106,648.675,0.49000000953674316,-2.532320427927611
649.396552,,0.029240309468370584,649.146,0.48899999260902405,-2.534402520398065
649.862069,,0.031251932937870444,649.609,0.4740000069141388,-2.5669950150430525
650.327586,,0.029220336844283965,650.075,0.5019999742507935,-2.505917793689588
650.7931030000001,,0.023877081325894323,650.539,0.5049999952316284,-2.499320191082421
651.258621,,0.018708486637658294,651.004,0.4909999966621399,-2.5297745745164293
651.7241379999999,,0.01803347887402442,651.468,0.49000000953674316,-2.5319231791923236
652.189655,,0.022652049253203833,651.934,0.5210000276565552,-2.464372154028794
652.655172,,0.02852007701289563,652.398,0.4950000047683716,-2.5210209348192607
653.12069,,0.03108664134287861,652.864,0.5109999775886536,-2.486182960012814
653.5862070000001,,0.030220569610501905,653.328,0.5210000276565552,-2.464432120313667
654.051724,,0.029299743571964864,653.794,0.5139999985694885,-2.4797321122015274
654.517241,,0.03007394933829187,654.261,0.5189999938011169,-2.4689002458795013
654.982759,,0.03085051864691157,654.724,0.5260000228881836,-2.4537208700126603
655.448276,,0.030163768988332843,655.192,0.48500001430511475,-2.5431248296709232
655.9137929999999,,0.02955710134385795,655.654,0.4959999918937683,-2.5192459548731514
656.37931,,0.03091309173147012,656.124,0.5070000290870667,-2.4953714016189243
656.844828,,0.03279736748325446,656.587,0.515999972820282,-2.475855288000681
657.310345,,0.03178447058238562,657.045,0.5120000243186951,-2.4846591130859013
657.7758620000001,,0.02677777213186689,657.51,0.5249999761581421,-2.4564209556761414
658.241379,,0.019970342027524575,657.976,0.5419999957084656,-2.419459725826939
658.7068969999999,,0.01331660517117742,658.443,0.5099999904632568,-2.489241628239085
659.172414,,0.005735083462173625,658.909,0.5189999938011169,-2.469687128159399
659.637931,,0.00469170404039067,659.376,0.5130000114440918,-2.482799593795804
660.103448,,0.01614637879536305,659.842,0.531000018119812,-2.44361053006714
660.568966,,0.0230053006659474,660.303,0.5149999856948853,-2.4784808792051627
661.034483,,0.021769150424855832,660.766,0.5239999890327454,-2.4588702112995757
661.5,,0.01535292446519223,661.236,0.515999972820282,-2.4762824169482114
661.965517,,0.009307874614150025,661.698,0.5109999775886536,-2.4871454541596103
662.4310340000001,,0.0050406505105272306,662.166,0.515999972820282,-2.4762102643043855
662.8965519999999,,0.0004647779056694693,662.628,0.5239999890327454,-2.4587285715892455
663.362069,,0.00883381807509312,663.093,0.515999972820282,-2.476096348158794
663.827586,,0.01781034449935299,663.556,0.5320000052452087,-2.4411692918020473
664.293103,,0.02572735623124885,664.022,0.5090000033378601,-2.491204634800934
664.7586210000001,,0.035356323883288826,664.487,0.5379999876022339,-2.4279475466325344
665.224138,,0.050570957224628274,664.953,0.515999972820282,-2.4758009367819986
665.689655,,0.07052025991038371,665.417,0.5339999794960022,-2.4365099179473297
666.155172,,0.08954062534658883,665.882,0.5220000147819519,-2.4625820942919296
666.62069,,0.10220666449232284,666.346,0.5419999957084656,-2.418943197418238
667.086207,,0.10631103365413273,666.812,0.5389999747276306,-2.4254202305258485
667.5517239999999,,0.10102750361933462,667.28,0.5680000185966492,-2.3621882005829478
668.017241,,0.0844223421582442,667.742,0.5370000004768372,-2.429684117852528
668.482759,,0.054272034004765345,668.206,0.5299999713897705,-2.44490330837187
668.948276,,0.011174751955186605,668.676,0.5379999876022339,-2.427455104610438
669.413793,,0.03952072781066757,669.139,0.5400000214576721,-2.423091543286519
669.87931,,0.08852654023437594,669.602,0.5299999713897705,-2.444884873594596
670.3448279999999,,0.12548672465748661,670.067,0.5540000200271606,-2.3926165105989825
670.810345,,0.1432584369244543,670.532,0.5299999713897705,-2.4449352808591107
671.275862,,0.1421133709213596,670.997,0.5379999876022339,-2.427548280122667
671.7413789999999,,0.12977794241971977,671.465,0.5490000247955322,-2.403635140456993
672.206897,,0.11522914880896609,671.93,0.5320000052452087,-2.440732394033334
672.672414,,0.10143374789144578,672.395,0.5460000038146973,-2.410297992761086
673.137931,,0.0843494722900232,672.86,0.5770000219345093,-2.3428303058037487
673.6034480000001,,0.05864401408281662,673.324,0.5400000214576721,-2.423511857910744
674.068966,,0.024184154975679124,673.79,0.5249999761581421,-2.4562633590833354
674.5344829999999,,0.012384599977648725,674.254,0.5339999794960022,-2.436726399725037
675.0,,0.04243265629359748,674.716,0.5339999794960022,-2.4367944696035266
675.465517,,0.06216703299544265,675.18,0.5410000085830688,-2.421606874847468
675.931034,,0.073320320965789,675.65,0.5249999761581421,-2.4565215183352334
676.396552,,0.07536289680419268,676.116,0.5519999861717224,-2.397745655297189
676.862069,,0.0597065877250842,676.579,0.4650000035762787,-2.5873268014830306
677.327586,,0.01802226937898814,677.045,0.5410000085830688,-2.4217792925933384
