Trial: ,29
Threshold: ,0.0
Maximum EMG: ,0.05161265219074939
Success: ,True

EMG Time,Raw EMG,Filtered EMG,Force Time,Raw Force (V),Filtered Force (N)
0.0,samples,2.9841000884954187e-07,0.472,0.6320000290870667,-2.2235275548364988
0.46551699999999996,time,3.130185808992777e-07,0.934,0.6079999804496765,-2.275906088054881
0.9310339999999999,value,3.271424052139953e-07,1.398,0.578000009059906,-2.3413438933529473
1.396552,,3.407102067622538e-07,1.861,0.6370000243186951,-2.212867289377868
1.862069,,3.536496140850822e-07,2.327,0.6209999918937683,-2.2477711471785935
2.327586,,3.6588736988930544e-07,2.79,0.5960000157356262,-2.302262513317881
2.793103,,3.77349553893164e-07,3.256,0.6060000061988831,-2.2804807894980064
3.258621,,3.879618176591112e-07,3.72,0.6269999742507935,-2.2347125232666456
3.724138,,3.9764963109449807e-07,4.186,0.6209999918937683,-2.2477452759312477
4.189654999999999,,4.0633854024547906e-07,4.651,0.609000027179718,-2.2738281346433924
4.655172,,4.139544359530387e-07,5.116,0.6330000162124634,-2.221459365939128
5.12069,,4.204238328827076e-07,5.583,0.6019999980926514,-2.2888978150852917
5.586207,,4.256741583814691e-07,6.048,0.6579999923706055,-2.166777477921843
6.051723999999999,,4.2963405055672807e-07,6.516,0.6660000085830688,-2.1492174671440942
6.517241,,4.3223366491321285e-07,6.979,0.6320000290870667,-2.2231489609275146
6.982759,,4.3340498882449413e-07,7.447,0.6069999933242798,-2.277466843260885
7.448276,,4.3308216305664434e-07,7.908,0.6200000047683716,-2.248995972551293
7.913793000000001,,4.312018095026317e-07,8.379,0.6190000176429749,-2.2510308836356905
8.379309999999998,,4.277033642275683e-07,8.835,0.6190000176429749,-2.2508962784004236
8.844828000000001,,4.225294148671405e-07,9.3,0.640999972820282,-2.2028446197787455
9.310345,,4.1562604136467294e-07,9.765,0.6240000128746033,-2.239776828331211
9.775862,,4.069431589765639e-07,10.231,0.6330000162124634,-2.220084705200378
10.241379,,3.9643486242152205e-07,10.698,0.6060000061988831,-2.2788480647958766
10.706897,,3.840597699963894e-07,11.163,0.6069999933242798,-2.2766365860559117
11.172414,,3.697813664306148e-07,11.627,0.6150000095367432,-2.259203744918576
11.637931,,3.535683432029048e-07,12.093,0.609000027179718,-2.272301700720192
12.103447999999998,,3.3539493499749897e-07,12.561,0.6119999885559082,-2.265821385851224
12.568966000000001,,3.152412509341544e-07,13.024,0.6430000066757202,-2.1983664029451297
13.034483,,2.9309359916556404e-07,13.487,0.6119999885559082,-2.2660126151901188
13.5,,2.6894480339883783e-07,13.957,0.6200000047683716,-2.2487137801120975
13.965517,,2.4279450986412545e-07,14.42,0.6060000061988831,-2.279364449270444
14.431034,,2.1464948322372058e-07,14.883,0.6359999775886536,-2.214169236155917
14.896552,,1.84523889889338e-07,15.348,0.6060000061988831,-2.2797022447649704
15.362069,,1.5243956719395704e-07,15.811,0.6290000081062317,-2.2297711175963317
15.827586000000002,,1.1842627684794581e-07,16.276,0.6269999742507935,-2.234304722299837
16.293103,,8.252194109737652e-08,16.743,0.6190000176429749,-2.251902703738816
16.758621,,4.477285999576919e-08,17.209,0.7070000171661377,-2.0603363817705174
17.224138,,5.233908199200562e-09,17.676,0.6169999837875366,-2.2565491575223158
17.689655,,3.6031290300972544e-08,18.141,0.6039999723434448,-2.2849829571985705
18.155172,,7.895021108337703e-08,18.605,0.6230000257492065,-2.2436750315012035
18.62069,,1.2344130339927192e-07,19.071,0.5849999785423279,-2.3265227719203594
19.086207,,1.6941389100951749e-07,19.531,0.6069999933242798,-2.27862229594689
19.551724,,2.167681012638915e-07,20.001,0.6190000176429749,-2.252477423137343
20.017241000000002,,2.6539482389524606e-07,20.461,0.6169999837875366,-2.256801564851492
20.482758999999998,,3.151757009586832e-07,20.931,0.6620000004768372,-2.158696355620908
20.948276,,3.659831492966856e-07,21.394,0.6179999709129333,-2.2544589846622727
21.413793000000002,,4.176804168548508e-07,21.857,0.574999988079071,-2.348014983227398
21.87931,,4.7012167410943334e-07,22.322,0.6470000147819519,-2.1910029589722915
22.344828,,5.231521417972273e-07,22.787,0.6209999918937683,-2.2474781251406704
22.810344999999998,,5.766082560603446e-07,23.253,0.6039999723434448,-2.284329742636831
23.275862,,6.303178720331416e-07,23.72,0.628000020980835,-2.2318470345342014
23.741379,,6.84100506805895e-07,24.186,0.6269999742507935,-2.233826482737822
24.206897,,7.377676225998474e-07,24.65,0.6190000176429749,-2.2510577973997856
24.672414,,7.911229508809655e-07,25.115,0.640999972820282,-2.2029373718599077
25.137931,,8.439628580252533e-07,25.579,0.6330000162124634,-2.2201892486801356
25.603448,,8.960767530268317e-07,26.045,0.6079999804496765,-2.2744974196015466
26.068966,,9.472475376113618e-07,26.505,0.6200000047683716,-2.2482206059852388
26.534483,,9.97252098981907e-07,26.976,0.675000011920929,-2.1282905887476073
27.0,,1.0458618452821916e-06,27.439,0.6050000190734863,-2.2807231464700335
27.465517,,1.092843283713621e-06,27.901,0.6299999952316284,-2.22621947506735
27.931034,,1.1379586410876645e-06,28.368,0.6000000238418579,-2.291579506807509
28.396552,,1.1809665264345124e-06,28.833,0.593999981880188,-2.3046916026861175
28.862069,,1.2216226351226583e-06,29.299,0.6269999742507935,-2.232875318344523
29.327586,,1.2596804937725456e-06,29.764,0.6169999837875366,-2.254777079551977
29.793103000000002,,1.2948922450710652e-06,30.23,0.6549999713897705,-2.1721358514281004
30.258620999999998,,1.3270094714129014e-06,30.694,0.6150000095367432,-2.2594566741102033
30.724138,,1.3557840561099455e-06,31.16,0.6169999837875366,-2.2552976241489646
31.189655000000002,,1.3809690807217505e-06,31.625,0.6349999904632568,-2.216297905474976
31.655172000000004,,1.402319756868745e-06,32.09,0.5809999704360962,-2.334172632755679
32.12069,,1.4195943906962815e-06,32.553,0.6169999837875366,-2.25597459022134
32.586207,,1.4325553779620925e-06,33.016,0.6209999918937683,-2.247491422073531
33.051724,,1.4409702275230263e-06,33.484,0.625,-2.2389981372817345
33.517241000000006,,1.4446126107996689e-06,33.945,0.6190000176429749,-2.2522739993512535
33.982759,,1.4432634346002797e-06,34.413,0.6140000224113464,-2.2633475083083066
34.448276,,1.436711934489126e-06,34.876,0.6359999775886536,-2.215567750222948
34.913793,,1.4247567856895085e-06,35.342,0.6269999742507935,-2.235290474228839
35.37931,,1.4072072283192933e-06,35.805,0.597000002861023,-2.3007256059393284
35.844828,,1.3838842035673858e-06,36.271,0.6039999723434448,-2.2855099306348268
36.310345,,1.354621497234107e-06,36.736,0.6010000109672546,-2.292038334837407
36.775862,,1.3192668868777122e-06,37.201,0.6729999780654907,-2.1351241373262617
37.241378999999995,,1.277683288634143e-06,37.668,0.5920000076293945,-2.3114988906277114
37.706897000000005,,1.2297498996084197e-06,38.134,0.6600000262260437,-2.1632134701842536
38.172414,,1.175363331574723e-06,38.595,0.5989999771118164,-2.2959363321580497
38.637931,,1.1144387315690872e-06,39.06,0.6100000143051147,-2.2717644295742296
39.103448,,1.046910884814619e-06,39.531,0.6190000176429749,-2.2519246715626116
39.568965999999996,,9.72735295285197e-07,39.993,0.6349999904632568,-2.2168152636853558
40.034483,,8.918892390905708e-07,40.461,0.6579999923706055,-2.166442475189298
40.5,,8.043727857546185e-07,40.924,0.6110000014305115,-2.268570199031738
40.965517,,7.102097823601127e-07,41.387,0.6129999756813049,-2.2639489952241516
41.431034,,6.094487954486074e-07,41.857,0.6060000061988831,-2.2789496591266363
41.896552,,5.021640054938785e-07,42.315,0.6060000061988831,-2.27872226167177
42.362069000000005,,3.8845604871260573e-07,42.787,0.6259999871253967,-2.234951509434837
42.827586000000004,,2.6845280093754307e-07,43.245,0.5960000157356262,-2.300149073314064
43.293103,,1.423100982571153e-07,43.716,0.6269999742507935,-2.23249080618556
43.758621,,1.021238912203417e-08,44.181,0.6060000061988831,-2.278167790797607
44.224138,,1.276266873650798e-07,44.646,0.609000027179718,-2.2716058634853047
44.689655,,2.7096380222618904e-07,45.105,0.6110000014305115,-2.2672729160119185
45.155172,,4.1952552164445634e-07,45.572,0.6129999756813049,-2.26298979259516
45.620689999999996,,5.73007981378998e-07,46.038,0.625,-2.236967743657618
46.086206999999995,,7.310766555782582e-07,46.505,0.6050000190734863,-2.2807067196053032
46.551724,,8.933662248928566e-07,46.968,0.6190000176429749,-2.250411421290135
47.017241,,1.0594805486465014e-06,47.431,0.6050000190734863,-2.2811521197772775
47.482759,,1.2289927456581847e-06,47.901,0.6460000276565552,-2.1920932441499597
47.948276,,1.4014453881200027e-06,48.367,0.6060000061988831,-2.2795225944680353
48.413793,,1.5763508127221982e-06,48.825,0.6269999742507935,-2.2340636087930097
48.879310000000004,,1.7531915529801622e-06,49.29,0.6039999723434448,-2.284465733159096
49.344828,,1.9314208964569394e-06,49.757,0.6430000066757202,-2.1997827370962413
49.810345,,2.11046357028915e-06,50.223,0.6069999933242798,-2.278480448637806
50.275862,,2.289716558114126e-06,50.686,0.656000018119812,-2.1719660517499806
50.741379,,2.4685500511614993e-06,51.152,0.6209999918937683,-2.2484232851529895
51.206897,,2.6463085359136492e-06,51.617,0.6060000061988831,-2.2812664819677853
51.672414,,2.822312020356483e-06,52.082,0.6299999952316284,-2.2290968242823324
52.137931,,2.9958574004353826e-06,52.55,0.6060000061988831,-2.281452492571181
52.603448,,3.1662199679011583e-06,53.012,0.6330000162124634,-2.2226446778755813
53.068966,,3.3326550602780965e-06,53.475,0.6140000224113464,-2.2640012276095973
53.534483,,3.4943998532112544e-06,53.946,0.6190000176429749,-2.253017546223166
54.0,,3.6506752949537934e-06,54.409,0.574999988079071,-2.3487384076084545
54.465517,,3.800688182238204e-06,54.871,0.6029999852180481,-2.2875520460034995
54.931034,,3.943633376238699e-06,55.337,0.6460000276565552,-2.1936456292212907
55.396552,,4.07869615677692e-06,55.801,0.6019999980926514,-2.2892468212380277
55.862069,,4.205054712350562e-06,56.266,0.6159999966621399,-2.2584594908181996
56.327586,,4.321882762975905e-06,56.731,0.6110000014305115,-2.269048614019341
56.793102999999995,,4.428352312231934e-06,57.197,0.6190000176429749,-2.25130634401358
57.258621000000005,,4.523636524277202e-06,57.662,0.6320000290870667,-2.2226709829282205
57.724138,,4.606912720982525e-06,58.127,0.6129999756813049,-2.26376201883229
58.189655,,4.677365493684749e-06,58.594,0.6240000128746033,-2.2395125530716595
58.655172,,4.734189923421006e-06,59.06,0.6259999871253967,-2.234899086852388
59.120689999999996,,4.776594902851022e-06,59.524,0.6230000257492065,-2.2412146946943343
59.586207,,4.80380655241925e-06,59.986,0.6060000061988831,-2.278075037344216
60.051724,,4.815071722651059e-06,60.454,0.6209999918937683,-2.2452684117753536
60.517241,,4.809661573820154e-06,60.916,0.5960000157356262,-2.2996621157748978
60.982758999999994,,4.786875223570171e-06,61.384,0.6499999761581421,-2.1819995043656206
61.448276,,4.746043452424506e-06,61.846,0.609000027179718,-2.271365441537786
61.913793,,4.6865324564774224e-06,62.312,0.6700000166893005,-2.138565027378519
62.379310000000004,,4.607747635928861e-06,62.779,0.6050000190734863,-2.28032742249366
62.84482800000001,,4.509137407508031e-06,63.245,0.6539999842643738,-2.1737732720484195
63.310345000000005,,4.390197028229402e-06,63.711,0.6100000143051147,-2.269877398827811
63.775862000000004,,4.25047241734202e-06,64.177,0.609000027179718,-2.272337486393623
64.241379,,4.089563962772135e-06,64.642,0.6129999756813049,-2.263934905418206
64.706897,,3.907130297822679e-06,65.1,0.6309999823570251,-2.225051840897167
65.172414,,3.7028920333843174e-06,65.572,0.6470000147819519,-2.1905357173984377
65.637931,,3.4766354304345756e-06,66.03,0.656000018119812,-2.1712684233147943
66.103448,,3.2282159971568847e-06,66.498,0.6620000004768372,-2.158524215215352
66.56896599999999,,2.9575619946034075e-06,66.96,0.6190000176429749,-2.252511219684335
67.03448300000001,,2.6646778344571864e-06,67.428,0.6520000100135803,-2.180889898704391
67.5,,2.3496473521235408e-06,67.891,0.6179999709129333,-2.255198795851349
67.965517,,2.0126369381007317e-06,68.356,0.5690000057220459,-2.362142094206819
68.431034,,1.6538985103487068e-06,68.826,0.593999981880188,-2.3078161625920104
68.896552,,1.2737723101950996e-06,69.285,0.6290000081062317,-2.23164884729889
69.362069,,8.726895041925406e-07,69.75,0.6259999871253967,-2.238210550660595
69.827586,,4.511745742734589e-07,70.216,0.6240000128746033,-2.242531750197433
70.293103,,9.847478540689849e-09,70.683,0.6110000014305115,-2.2707571603259686
70.75862099999999,,4.505744349130632e-07,71.149,0.6169999837875366,-2.257529865071578
71.22413800000001,,9.292747786440133e-07,71.613,0.6309999823570251,-2.226818714280964
71.689655,,1.425336758254056e-06,72.079,0.6179999709129333,-2.2548817931657243
72.15517200000001,,1.93774210358815e-06,72.542,0.6209999918937683,-2.248044525410354
72.62069,,2.4653703154459846e-06,73.012,0.6389999985694885,-2.2084940802625534
73.086207,,3.006998244118877e-06,73.472,0.6119999885559082,-2.266958941803628
73.551724,,3.561300015584577e-06,73.942,0.6010000109672546,-2.2905528801608313
74.017241,,4.1268473206373175e-06,74.405,0.6190000176429749,-2.2509652321582183
74.482759,,4.702110081596669e-06,74.868,0.6169999837875366,-2.254960652960121
74.94827599999999,,5.285457510525411e-06,75.334,0.625,-2.2371900869182997
75.41379300000001,,5.875159572092823e-06,75.8,0.6169999837875366,-2.25430901228755
75.87931,,6.469388863344902e-06,76.265,0.656000018119812,-2.16907148226886
76.344828,,7.066222921686647e-06,76.725,0.6039999723434448,-2.2821396699969987
76.810345,,7.66364697134353e-06,77.19,0.6019999980926514,-2.2863322419857592
77.275862,,8.259557117449868e-06,77.657,0.5989999771118164,-2.292767303116566
77.741379,,8.851763995711506e-06,78.122,0.6200000047683716,-2.2469818962732755
78.206897,,9.437996884309623e-06,78.587,0.6399999856948853,-2.203443053359159
78.67241399999999,,1.0015908283352979e-05,79.053,0.6169999837875366,-2.2536528523217054
79.137931,,1.0583078965748643e-05,79.516,0.5009999871253967,-2.506544082543688
79.603448,,1.1137023501848178e-05,79.986,0.6679999828338623,-2.1429418367984088
80.068966,,1.1675196258639458e-05,80.446,0.6100000143051147,-2.269590285985261
80.53448300000001,,1.2194997872596213e-05,80.915,0.6079999804496765,-2.274280001731523
81.0,,1.2693782193570816e-05,81.379,0.6240000128746033,-2.23979048652003
81.465517,,1.316886369532408e-05,81.842,0.6259999871253967,-2.235827243081546
81.931034,,1.3617525346432355e-05,82.308,0.6320000290870667,-2.2231620312705487
82.396552,,1.4037026933401084e-05,82.773,0.6190000176429749,-2.251891768618406
82.86206899999999,,1.442461382584932e-05,83.239,0.6010000109672546,-2.291503592162837
83.327586,,1.4777526171616405e-05,83.705,0.6069999933242798,-2.278805390323365
83.79310299999999,,1.5093008507585052e-05,84.171,0.6079999804496765,-2.2769664872128113
84.258621,,1.5368319769919913e-05,84.632,0.6209999918937683,-2.248938757564076
84.72413800000001,,1.560074368529316e-05,85.097,0.6269999742507935,-2.236106650118467
85.189655,,1.5787599522514928e-05,85.564,0.6190000176429749,-2.2537124106636104
85.65517200000001,,1.592625318181297e-05,86.027,0.6290000081062317,-2.232033599887092
86.12069,,1.6014128596819817e-05,86.494,0.6050000190734863,-2.284356199791882
86.586207,,1.6048719422134075e-05,86.957,0.6370000243186951,-2.214600296461992
87.051724,,1.602760097713287e-05,87.425,0.628000020980835,-2.23409489475266
87.517241,,1.5948442414532855e-05,87.887,0.640999972820282,-2.2055875563589367
87.98275899999999,,1.5809019080035678e-05,88.353,0.5989999771118164,-2.2968396627078502
88.448276,,1.5607225027259025e-05,88.816,0.6179999709129333,-2.2551362233656693
88.913793,,1.5341085650054937e-05,89.281,0.6370000243186951,-2.21338343715323
89.37931,,1.5008770392261987e-05,89.746,0.6039999723434448,-2.2848815717378685
89.844828,,1.460860549293671e-05,90.212,0.6349999904632568,-2.216919109446553
90.310345,,1.4139086723171306e-05,90.679,0.6320000290870667,-2.2230160867971103
90.775862,,1.3598892068739225e-05,91.144,0.6579999923706055,-2.16593020271327
91.241379,,1.2986894311027313e-05,91.609,0.6359999775886536,-2.2134302841860647
91.706897,,1.230217345702262e-05,92.075,0.6079999804496765,-2.2740273042840005
92.17241399999999,,1.154402896753404e-05,92.536,0.6380000114440918,-2.2083013132451783
92.63793100000001,,1.0711991731353465e-05,93.006,0.5960000157356262,-2.2994886483602666
93.103448,,9.805835731708404e-06,93.469,0.6209999918937683,-2.2447677611084367
93.568966,,8.825589350138037e-06,93.931,0.597000002861023,-2.296870438724341
94.03448300000001,,7.771546251847599e-06,94.402,0.6079999804496765,-2.2727967063421946
94.5,,6.6442757956718975e-06,94.864,0.6079999804496765,-2.272768188422501
94.965517,,5.444632911017303e-06,95.33,0.6359999775886536,-2.2118182557123345
95.431034,,4.173767383562876e-06,95.794,0.6179999709129333,-2.2511651154903185
95.896552,,2.8331324910944516e-06,96.259,0.6290000081062317,-2.2274063557725996
96.36206899999999,,1.4244929306303052e-06,96.723,0.625,-2.2363968467589443
96.827586,,5.0068022017874456e-08,97.189,0.6060000061988831,-2.2781287020565517
97.293103,,1.588142178910644e-06,97.654,0.628000020980835,-2.2305879465209424
97.758621,,3.1869909911232037e-06,98.12,0.6320000290870667,-2.2223026991249775
98.224138,,4.843541041977392e-06,98.58,0.6169999837875366,-2.2554384597950117
98.689655,,6.554380539105981e-06,99.045,0.6620000004768372,-2.157867477356366
99.155172,,8.315756860981991e-06,99.513,0.6169999837875366,-2.2563724881271208
99.62069,,1.0123575212189454e-05,99.975,0.656000018119812,-2.1718541833300584
100.086207,,1.1973398440103675e-05,100.446,0.6600000262260437,-2.163557489560777
100.551724,,1.3860448063783527e-05,100.908,0.6190000176429749,-2.2532558801990064
101.017241,,1.5779606563751072e-05,101.376,0.6140000224113464,-2.264468691072631
101.482759,,1.7725420978941167e-05,101.838,0.722000002861023,-2.029428983239406
101.948276,,1.9692107854442737e-05,102.304,0.6230000257492065,-2.2452942785391423
102.413793,,2.1673559580721828e-05,102.768,0.5299999713897705,-2.448010306508044
102.87931,,2.3663352161813583e-05,103.233,0.6449999809265137,-2.1974894422334703
103.344828,,2.5654754446495174e-05,103.698,0.6119999885559082,-2.2693279075844233
103.810345,,2.7640738852705146e-05,104.163,0.5920000076293945,-2.312763888383993
104.275862,,2.961399361145848e-05,104.628,0.597000002861023,-2.301658623273282
104.741379,,3.156693655222324e-05,105.094,0.6460000276565552,-2.194622845701426
105.206897,,3.349173044717819e-05,105.557,0.6200000047683716,-2.2509225692076766
105.672414,,3.538029992696549e-05,106.027,0.656000018119812,-2.172092042333773
106.13793100000001,,3.722434997549515e-05,106.491,0.6299999952316284,-2.2282952683756516
106.603448,,3.90153860060543e-05,106.953,0.6620000004768372,-2.158107014113835
107.068966,,4.0744735515434435e-05,107.417,0.6069999933242798,-2.2774459688975357
107.534483,,4.2403571307021616e-05,107.886,0.6200000047683716,-2.2486373776208977
108.0,,4.3982936267809775e-05,108.352,0.6119999885559082,-2.2655966135593006
108.46551699999999,,4.547376967810777e-05,108.814,0.6110000014305115,-2.2673358253033817
108.931034,,4.686693502632887e-05,109.28,0.6830000281333923,-2.110076548776352
109.396552,,4.815324929469281e-05,109.742,0.6579999923706055,-2.164199417004665
109.862069,,4.932351367494982e-05,110.207,0.6000000238418579,-2.2902821056882954
110.32758600000001,,5.036854566637127e-05,110.672,0.6110000014305115,-2.2661140778254913
110.793103,,5.12792125012601e-05,111.138,0.625,-2.235493149441863
111.258621,,5.204646583613566e-05,111.602,0.6370000243186951,-2.2093158000657254
111.724138,,5.266137763956338e-05,112.068,0.6209999918937683,-2.244228262965977
112.189655,,5.311517720035041e-05,112.531,0.6060000061988831,-2.2770490693710217
112.655172,,5.3399289172538116e-05,113.0,0.6039999723434448,-2.2816317851907484
113.12069,,5.35053725663152e-05,113.461,0.6169999837875366,-2.2536126403817507
113.586207,,5.342536058667573e-05,113.93,0.6079999804496765,-2.273592665395367
114.051724,,5.315150121438195e-05,114.394,0.6119999885559082,-2.2653080669223455
114.51724100000001,,5.26763984165888e-05,114.857,0.5889999866485596,-2.3158924132380077
114.982759,,5.199305386737465e-05,115.322,0.6449999809265137,-2.1943942099995093
115.448276,,5.1094909051429925e-05,115.786,0.6190000176429749,-2.251559254915066
115.913793,,4.997588761731202e-05,116.252,0.6150000095367432,-2.260792252879913
116.37931,,4.863043784001189e-05,116.716,0.6349999904632568,-2.2177201072904458
116.84482799999999,,4.705357504612685e-05,117.182,0.6169999837875366,-2.257403154590838
117.310345,,4.524092384872767e-05,117.647,0.6259999871253967,-2.238214757354622
117.77586199999999,,4.318876003307769e-05,118.112,0.6169999837875366,-2.2581811656693307
118.241379,,4.089405192874214e-05,118.579,0.6209999918937683,-2.249752942668287
118.70689700000001,,3.8354501098348714e-05,119.045,0.6190000176429749,-2.254315261277014
119.172414,,3.556858216836108e-05,119.505,0.628000020980835,-2.234824249710824
119.63793100000001,,3.253558162273769e-05,119.975,0.6359999775886536,-2.2174192324597866
120.103448,,2.9255635376303823e-05,120.435,0.6449999809265137,-2.197740851229075
120.568966,,2.5729764941098128e-05,120.905,0.6079999804496765,-2.2781876537885615
121.034483,,2.1959911995899882e-05,121.376,0.6370000243186951,-2.2147560994136417
121.5,,1.7948971166632344e-05,121.831,0.6430000066757202,-2.2013530243880775
121.96551699999999,,1.3700820823403744e-05,122.297,0.6579999923706055,-2.1682703314188596
122.431034,,9.220351698622223e-06,122.761,0.6069999933242798,-2.278919138183341
122.896552,,4.51349312993558e-06,123.226,0.6679999828338623,-2.1455145179198514
123.362069,,4.1276326826900554e-07,123.691,0.6399999856948853,-2.205979670853901
123.827586,,5.550342700387126e-06,124.157,0.5320000052452087,-2.4407252625388867
124.293103,,1.0890069246313318e-05,124.625,0.6430000066757202,-2.1983547285717373
124.758621,,1.642165107136099e-05,125.09,0.6190000176429749,-2.2501248912834995
125.22413800000001,,2.2133668978455463e-05,125.553,0.6539999842643738,-2.173392132973717
125.68965500000002,,2.801356848792835e-05,126.015,0.628000020980835,-2.2296087127124222
126.15517200000001,,3.404765562567826e-05,126.483,0.6510000228881836,-2.1791367892467823
126.62069000000001,,4.022109659505797e-05,126.945,0.6200000047683716,-2.246388935071237
127.086207,,4.651792150158518e-05,127.416,0.6119999885559082,-2.26361920752526
127.55172400000001,,5.292103229243705e-05,127.879,0.5989999771118164,-2.291837459781711
128.017241,,5.9412215064666684e-05,128.344,0.6179999709129333,-2.2504375690004483
128.48275900000002,,6.597215688716203e-05,128.807,0.656000018119812,-2.167741233240409
128.948276,,7.258046727154791e-05,129.273,0.5799999833106995,-2.3335062405981644
129.413793,,7.921570441650563e-05,129.742,0.6330000162124634,-2.2183161854334257
129.87931,,8.585540633835108e-05,130.2,0.6309999823570251,-2.2230339839245468
130.344828,,9.247612698817399e-05,130.666,0.6460000276565552,-2.1907844827305007
130.81034499999998,,9.905347744240278e-05,131.132,0.5979999899864197,-2.2958472691221883
131.275862,,0.00010556217223933132,131.598,0.6140000224113464,-2.2615198839536603
131.741379,,0.0001119760809189363,132.063,0.6650000214576721,-2.1509664168793616
132.206897,,0.00011826828480724682,132.531,0.6600000262260437,-2.1624245591152618
132.67241399999997,,0.0001244111390696165,132.994,0.6179999709129333,-2.254482712119762
133.13793099999998,,0.00013037634003952066,133.457,0.628000020980835,-2.233225089339779
133.60344800000001,,0.0001361349978109823,133.92,0.6499999761581421,-2.185781725457855
134.06896600000002,,0.0001416577140634532,134.387,0.6620000004768372,-2.1600661964113685
134.53448300000002,,0.0001469146650679766,134.857,0.6190000176429749,-2.25410450475114
135.0,,0.00015187568980277498,135.315,0.6299999952316284,-2.2304140187393964
135.465517,,0.00015651038308508446,135.78,0.6340000033378601,-2.2218838833687014
135.931034,,0.0001607881936041468,136.246,0.6729999780654907,-2.13700400407032
136.396552,,0.0001646785267178175,136.714,0.6079999804496765,-2.278603282144784
136.862069,,0.00016815085185231836,137.179,0.6579999923706055,-2.1695585519378495
137.327586,,0.00017117481432130967,137.646,0.6039999723434448,-2.2869977131270693
137.793103,,0.00017372035135674864,138.105,0.5820000171661377,-2.3346319637378716
138.258621,,0.0001757578121200059,138.572,0.6299999952316284,-2.229682730291419
138.724138,,0.0001772580814375008,139.037,0.6050000190734863,-2.2837069155595313
139.189655,,0.00017819270698077072,139.507,0.6299999952316284,-2.2287437204679064
139.655172,,0.00017853402958648384,139.969,0.6209999918937683,-2.2478142061075457
140.12069,,0.00017825531638752937,140.432,0.6299999952316284,-2.2276445736417734
140.586207,,0.00017733089640205709,140.895,0.6439999938011169,-2.1965738755103374
141.05172399999998,,0.00017573629820328272,141.36,0.6290000081062317,-2.228693045306827
141.51724099999998,,0.00017344838926912018,141.831,0.6190000176429749,-2.2499456502862767
141.982759,,0.00017044551658734573,142.296,0.593999981880188,-2.303922240090265
142.44827600000002,,0.0001667076480691372,142.76,0.5929999947547913,-2.30567146178944
142.913793,,0.00016221651430157322,143.226,0.6320000290870667,-2.220347943790073
143.37931,,0.00015695575014812286,143.691,0.6290000081062317,-2.226610647471102
143.844828,,0.00015091103568541184,144.156,0.6029999852180481,-2.283073431308993
144.310345,,0.00014407023594473065,144.616,0.621999979019165,-2.2415944708755227
144.77586200000002,,0.00013642353890795425,145.082,0.6209999918937683,-2.2437884828764996
145.241379,,0.00012796359118989357,145.55,0.6209999918937683,-2.243903270972716
145.706897,,0.00011868563082269666,146.012,0.5929999947547913,-2.3051168370422346
146.172414,,0.0001085876165428835,146.475,0.6069999933242798,-2.274918246468619
146.637931,,9.767035296803739e-05,146.945,0.5950000286102295,-2.301446679487751
147.103448,,8.593761103820387e-05,147.406,0.6240000128746033,-2.238720815857378
147.568966,,7.339624308677212e-05,147.876,0.6439999938011169,-2.195657943480378
148.034483,,6.0056291897145996e-05,148.341,0.6169999837875366,-2.255030398318344
148.5,,4.593109309495705e-05,148.805,0.6320000290870667,-2.222921961241734
148.965517,,3.103737022103622e-05,149.27,0.628000020980835,-2.232213120635286
149.43103399999998,,1.5395321827946797e-05,149.736,0.5920000076293945,-2.3112092277548606
149.89655199999999,,9.713000573129313e-07,150.202,0.6060000061988831,-2.2812449838980062
150.362069,,1.8035120759706223e-05,150.661,0.6449999809265137,-2.196769736336317
150.82758600000003,,3.576508372239381e-05,151.126,0.6029999852180481,-2.288704202963108
151.293103,,5.4126401856526045e-05,151.591,0.6230000257492065,-2.245488789569951
151.758621,,7.308052010871009e-05,152.057,0.621999979019165,-2.247940726496729
152.224138,,9.258508986802236e-05,152.52,0.6520000100135803,-2.1827605745343743
152.68965500000002,,0.00011259395581946704,152.99,0.6069999933242798,-2.280879611687058
153.155172,,0.00013305715583303025,153.453,0.6230000257492065,-2.245999656552258
153.62069,,0.00015392093445689,153.916,0.6029999852180481,-2.289451158298687
154.086207,,0.00017512777055986723,154.384,0.6179999709129333,-2.2565535973841104
154.551724,,0.00019661641964180244,154.846,0.6069999933242798,-2.2802111121740456
155.017241,,0.00021832197130118849,155.311,0.6240000128746033,-2.2427858001207706
155.482759,,0.00024017592231705923,155.775,0.6150000095367432,-2.2619362098537135
155.948276,,0.00026210626576681477,156.241,0.6039999723434448,-2.285388828638032
156.413793,,0.00028403759656335726,156.705,0.6169999837875366,-2.256514436953244
156.87931,,0.0003058912337536245,157.171,0.6349999904632568,-2.2167235708279454
157.34482799999998,,0.0003275853598763649,157.638,0.6269999742507935,-2.233571058850397
157.81034499999998,,0.00034903517762982674,158.104,0.6549999713897705,-2.1719976844811626
158.275862,,0.00037015308404998406,158.565,0.6489999890327454,-2.184525515559183
158.741379,,0.00039084886234704215,159.034,0.625,-2.2363130552045067
159.20689700000003,,0.0004110298914923339,159.502,0.6320000290870667,-2.220622738150631
159.672414,,0.0004306013735894084,159.964,0.6370000243186951,-2.2093638344367155
160.137931,,0.000449466579002229,160.427,0.6660000085830688,-2.145901980526187
160.60344800000001,,0.00046752710915003604,160.89,0.6069999933242798,-2.2742546970434776
161.06896600000002,,0.0004846831768127275,161.356,0.609000027179718,-2.269810873464249
161.534483,,0.000500833903722689,161.826,0.6420000195503235,-2.197933611146928
162.0,,0.0005158776351490223,162.291,0.6200000047683716,-2.245985606821387
162.465517,,0.0005297122711082388,162.75,0.6100000143051147,-2.2679943051441875
162.931034,,0.00054223561376188,163.216,0.6209999918937683,-2.244346078781876
163.396552,,0.0005533457304863935,163.68,0.5929999947547913,-2.3057506185676075
163.862069,,0.0005629413320241296,164.146,0.6489999890327454,-2.1842218097657744
164.327586,,0.0005709221650467565,164.612,0.6179999709129333,-2.2522932524061856
164.793103,,0.0005771894183839469,165.078,0.6449999809265137,-2.1940440733433295
165.258621,,0.0005816461420911206,165.542,0.6399999856948853,-2.2055348919999282
165.72413799999998,,0.000584197678450578,166.012,0.6359999775886536,-2.214851769696852
166.189655,,0.0005847521039208236,166.472,0.6110000014305115,-2.2699071471975696
166.655172,,0.0005832206809695057,166.942,0.6290000081062317,-2.23125015441118
167.12069,,0.0005795183186465267,167.402,0.6470000147819519,-2.192544903755225
167.58620699999997,,0.000573564040675766,167.872,0.6240000128746033,-2.2430996619639227
168.051724,,0.0005652814597668602,168.33,0.6320000290870667,-2.226038163306689
168.517241,,0.0005545992567729,168.801,0.6079999804496765,-2.278604596573316
168.98275900000002,,0.0005414516632460806,169.267,0.6060000061988831,-2.283143596099397
169.44827600000002,,0.0005257789458716285,169.731,0.6230000257492065,-2.2461856175593584
169.913793,,0.00050752789119105,170.196,0.6060000061988831,-2.283196080210857
170.37931,,0.0004866522889592842,170.661,0.6330000162124634,-2.2242404287959996
170.844828,,0.0004631134124170323,171.127,0.6259999871253967,-2.239256529825006
171.310345,,0.0004368804936997811,171.591,0.6060000061988831,-2.2824994754603294
171.775862,,0.00040793119254918395,172.056,0.6290000081062317,-2.2319752306346974
172.241379,,0.00037625205644087,172.517,0.6179999709129333,-2.2554519203593593
172.706897,,0.00034183897019577367,172.98,0.6620000004768372,-2.1590433414064654
173.172414,,0.00030469759310010694,173.45,0.597000002861023,-2.300064493989465
173.637931,,0.0002648437815225633,173.912,0.6439999938011169,-2.197052544514836
174.103448,,0.00022230399498659616,174.376,0.6179999709129333,-2.2530763277395622
174.568966,,0.00017711568363087916,174.846,0.6359999775886536,-2.2132525752234256
175.034483,,0.00012932765497261593,175.311,0.6190000176429749,-2.249713413357131
175.5,,7.900041787675766e-05,175.775,0.6190000176429749,-2.2491873563558746
175.96551699999998,,2.6206501630067535e-05,176.241,0.6449999809265137,-2.1920827355526913
176.43103399999998,,2.896925197750672e-05,176.705,0.6079999804496765,-2.2723132800267245
176.896552,,8.642942565099983e-05,177.171,0.5540000200271606,-2.389675007257059
177.36206900000002,,0.0001460637947371264,177.631,0.6340000033378601,-2.2152024020851164
177.827586,,0.0002077491285618234,178.097,0.6190000176429749,-2.247810096501826
178.293103,,0.0002713490269634996,178.565,0.6209999918937683,-2.2434910653278664
178.758621,,0.00033671379397986974,179.027,0.6169999837875366,-2.2523535335532645
179.224138,,0.000403680350594201,179.49,0.6150000095367432,-2.25696419396454
179.68965500000002,,0.0004720721883901882,179.96,0.6179999709129333,-2.2507799240835373
180.155172,,0.000541699365894274,180.424,0.6259999871253967,-2.233789718219681
180.62069,,0.0006123585492912541,180.886,0.6060000061988831,-2.2778758985759575
181.086207,,0.000683833099095097,181.352,0.6579999923706055,-2.16515769695735
181.551724,,0.0007558932042691506,181.822,0.6439999938011169,-2.1962699271272235
182.01724099999998,,0.0008282960652158042,182.28,0.6209999918937683,-2.247011019090521
182.482759,,0.0009007861269373823,182.745,0.6119999885559082,-2.267254088652011
182.948276,,0.0009730953634665576,183.211,0.6579999923706055,-2.1676550282957345
183.413793,,0.001044943614462166,183.676,0.6570000052452087,-2.1704156036929083
183.87931,,0.0011160389748182304,184.141,0.6660000085830688,-2.1513340620562196
184.34482799999998,,0.0011860782381853375,184.606,0.6050000190734863,-2.284687056946195
184.81034499999998,,0.0012547473950956583,185.072,0.6499999761581421,-2.187019821965319
185.27586200000002,,0.0013217221857431348,185.535,0.675000011920929,-2.1328294815088844
185.74137900000002,,0.001386668706998786,186.005,0.6370000243186951,-2.2157886524549655
186.206897,,0.0014492440737722391,186.468,0.6570000052452087,-2.172276161906262
186.672414,,0.0015090971357968456,186.93,0.6169999837875366,-2.2593714270917595
187.137931,,0.001565869250149225,187.398,0.6129999756813049,-2.2679268273981927
187.60344800000001,,0.0016191951067535786,187.861,0.6370000243186951,-2.2153767217961664
188.06896600000002,,0.001668703602777748,188.327,0.6700000166893005,-2.1431221608929034
188.534483,,0.0017140187665565408,188.79,0.6290000081062317,-2.232000844264522
189.0,,0.0017547607377055628,189.255,0.6190000176429749,-2.2532691785961956
189.465517,,0.0017905468046553277,189.72,0.6449999809265137,-2.1960504234244893
189.931034,,0.0018209924835775788,190.186,0.6489999890327454,-2.1867225703398105
190.39655199999999,,0.0018457126195439064,190.65,0.6169999837875366,-2.255805394974892
190.862069,,0.0018643225231999476,191.115,0.6620000004768372,-2.157130977246541
191.327586,,0.0018764391880076968,191.58,0.6549999713897705,-2.171763550333921
191.793103,,0.0018816825911857772,192.046,0.640999972820282,-2.2016822175343322
192.25862099999998,,0.001879676982156395,192.516,0.6660000085830688,-2.1466870596477547
192.72413799999998,,0.0018700520687310533,192.979,0.6119999885559082,-2.263875398869997
193.189655,,0.0018524442200711418,193.447,0.6119999885559082,-2.2635023465497515
193.655172,,0.001826497958269586,193.909,0.6169999837875366,-2.252334131666375
194.12069000000002,,0.0017918677024070437,194.379,0.6079999804496765,-2.2717734704203707
194.586207,,0.0017482191685155347,194.842,0.625,-2.2346793928362576
195.051724,,0.001695230014643888,195.3,0.6039999723434448,-2.280487206257934
195.517241,,0.0016325906202758569,195.765,0.6179999709129333,-2.2501537519159114
195.98275900000002,,0.0015600065439515644,196.231,0.628000020980835,-2.2286407266478054
196.448276,,0.0014772020514209195,196.698,0.6269999742507935,-2.231189873360517
196.913793,,0.0013839210439704319,197.163,0.6389999985694885,-2.2055014061152356
197.37931,,0.001279923697175974,197.628,0.6230000257492065,-2.2408859173372617
197.844828,,0.0011649849975515355,198.094,0.6330000162124634,-2.219680438496125
198.310345,,0.0010389035751862989,198.557,0.6129999756813049,-2.2638717780488595
198.775862,,0.0009015147960306755,199.027,0.6330000162124634,-2.2209354732638076
199.241379,,0.0007526860174688503,199.487,0.628000020980835,-2.2324641865678307
199.706897,,0.0005922887805561054,199.957,0.593999981880188,-2.3071535270098775
200.172414,,0.00042018919244882826,200.42,0.6650000214576721,-2.1530454413866953
200.63793099999998,,0.00023630014076993967,200.883,0.6190000176429749,-2.253781545347978
201.103448,,4.0645311774682936e-05,201.348,0.628000020980835,-2.234618468443635
201.568966,,0.0001666946460259054,201.811,0.6029999852180481,-2.2894435447958874
202.034483,,0.0003857543822819034,202.277,0.6620000004768372,-2.1611647249123913
202.5,,0.000616708385931311,202.742,0.6449999809265137,-2.19835673047733
202.965517,,0.0008595343486367843,203.208,0.6359999775886536,-2.2180079975615565
203.431034,,0.0011136923469037365,203.672,0.6060000061988831,-2.283299376621019
203.896552,,0.0013785595049343679,204.137,0.6359999775886536,-2.217763465080228
204.36206900000002,,0.0016544349703445894,204.602,0.6079999804496765,-2.2784862065526736
204.827586,,0.001942446574854724,205.068,0.6430000066757202,-2.201859584208994
205.293103,,0.0022424088945038087,205.531,0.6079999804496765,-2.2776555395815654
205.758621,,0.002551305805670791,206.001,0.6439999938011169,-2.19869838761743
206.224138,,0.0028664838728342185,206.464,0.6439999938011169,-2.198119185053106
206.689655,,0.0031913196421202265,206.927,0.6169999837875366,-2.2563277086714497
207.155172,,0.003533173935878132,207.394,0.5929999947547913,-2.3079847592412293
207.62069,,0.0038901068492419406,207.856,0.6230000257492065,-2.241999385442954
208.086207,,0.004244487406526169,208.322,0.6309999823570251,-2.2239674183052625
208.551724,,0.004585214107109878,208.786,0.6460000276565552,-2.190724893620202
209.01724099999998,,0.004938581177403429,209.252,0.5979999899864197,-2.2947949387179642
209.482759,,0.005347210498516471,209.718,0.6169999837875366,-2.252969411956624
209.948276,,0.005789778783034528,210.184,0.6579999923706055,-2.163300035769202
210.413793,,0.00616030857186077,210.649,0.6069999933242798,-2.2741623249385703
210.87930999999998,,0.0064167121643474235,211.115,0.6309999823570251,-2.221730022438291
211.344828,,0.0067418587839715724,211.579,0.6079999804496765,-2.271803056292883
211.810345,,0.007366567200700497,212.045,0.6140000224113464,-2.2588052483891032
212.27586200000002,,0.008097132849366234,212.509,0.652999997138977,-2.1740192805472804
212.741379,,0.00830268489412597,212.971,0.6370000243186951,-2.2091590451038248
213.206897,,0.007879042805002094,213.435,0.5680000185966492,-2.3598598598126985
213.672414,,0.00805110092965836,213.905,0.6309999823570251,-2.223061767314248
214.137931,,0.010032565176209299,214.372,0.6150000095367432,-2.258444685477645
214.60344800000001,,0.012210205939118477,214.835,0.6690000295639038,-2.1413722640839326
215.068966,,0.010180679370609916,215.3,0.6159999966621399,-2.2574471230422097
215.534483,,0.0017057952350372357,215.765,0.621999979019165,-2.244995632504231
216.0,,0.009085675665399962,216.231,0.6190000176429749,-2.252147723674401
216.465517,,0.015001600095483349,216.691,0.6579999923706055,-2.1677730176115424
216.93103399999998,,0.01327838438774427,217.156,0.6290000081062317,-2.231503804708638
217.39655199999999,,0.0077119106272348185,217.62,0.6240000128746033,-2.242888240223029
217.862069,,0.003569347575994547,218.086,0.597000002861023,-2.30213059380103
218.327586,,0.002449080148476929,218.55,0.6470000147819519,-2.193532058146314
218.793103,,0.0022784254497706276,219.019,0.6399999856948853,-2.2090205001014236
219.25862099999998,,0.000707182042622943,219.487,0.6119999885559082,-2.270157160872165
219.724138,,0.0023137378735106425,219.949,0.6700000166893005,-2.14382278057711
220.18965500000002,,0.004926459771339595,220.413,0.6299999952316284,-2.230887473720987
220.65517200000002,,0.005761119526678598,220.875,0.6259999871253967,-2.239415329104585
221.12069,,0.005416645665408354,221.341,0.6039999723434448,-2.2870607245102725
221.586207,,0.005295136481758205,221.811,0.6200000047683716,-2.2518287130181904
222.051724,,0.00551626406978794,222.277,0.6110000014305115,-2.2709859345874635
222.517241,,0.004795706512946111,222.735,0.6309999823570251,-2.226898814578056
222.98275900000002,,0.002262502240001897,223.201,0.621999979019165,-2.245944275515015
223.448276,,0.0013709561514858096,223.665,0.6190000176429749,-2.251886726650581
223.913793,,0.0045528289555022555,224.131,0.6370000243186951,-2.212064606393403
224.37931,,0.0062357832735421646,224.598,0.5889999866485596,-2.316039131454691
224.844828,,0.0063256208053597785,225.063,0.6710000038146973,-2.1368129652239265
225.31034499999998,,0.005280586688309599,225.531,0.6660000085830688,-2.147168505858241
225.775862,,0.003678317099840752,225.994,0.5979999899864197,-2.2948343899514767
226.241379,,0.002158616240037646,226.457,0.6660000085830688,-2.14627526271609
226.706897,,0.0015336469153960704,226.92,0.6230000257492065,-2.239629538236992
227.172414,,0.002572144804340408,227.391,0.6179999709129333,-2.2502889696158235
227.63793099999998,,0.005283264103179663,227.853,0.6320000290870667,-2.2196552704265806
228.103448,,0.008404871630326218,228.319,0.6110000014305115,-2.2653798396215916
228.56896600000002,,0.01008540399171103,228.783,0.6129999756813049,-2.261102034381187
229.03448300000002,,0.009440448656130132,229.248,0.6290000081062317,-2.2264270401887516
229.5,,0.007257072287962684,229.713,0.6299999952316284,-2.2245295117659714
229.965517,,0.005005609703211197,230.178,0.628000020980835,-2.229256458369389
230.431034,,0.0034926933329750107,230.643,0.6209999918937683,-2.244954165504543
230.896552,,0.002590864174118595,231.109,0.6629999876022339,-2.153961168825567
231.362069,,0.0017032764669522899,231.576,0.6320000290870667,-2.222056132381518
231.827586,,0.00023325349508453638,232.042,0.6290000081062317,-2.2291791472158042
232.293103,,0.0018197489894049798,232.505,0.5929999947547913,-2.3082111555594587
232.758621,,0.003490733132671235,232.968,0.625,-2.2390910836371827
233.224138,,0.0036268349347545257,233.435,0.6669999957084656,-2.1481611623797803
233.689655,,0.0021453211771442753,233.898,0.6299999952316284,-2.2293022216388647
234.155172,,1.4310941553846753e-05,234.363,0.6600000262260437,-2.164415350923882
234.62069,,0.002057560967427307,234.827,0.6539999842643738,-2.177887070229548
235.086207,,0.0037267026047419017,235.292,0.6930000185966492,-2.0932334274638
235.55172399999998,,0.004738918042838392,235.757,0.6230000257492065,-2.245957326601581
236.01724099999998,,0.0048383697248299325,236.222,0.6240000128746033,-2.2438974713369055
236.482759,,0.004436048313249374,236.687,0.625,-2.241735930446409
236.94827600000002,,0.004227453934161355,237.152,0.625,-2.2416510961504006
237.413793,,0.004046068734429031,237.617,0.6420000195503235,-2.2044298163753755
237.87931,,0.0030809094127918586,238.083,0.6710000038146973,-2.140970147538164
238.344828,,0.0015945468586563822,238.546,0.640999972820282,-2.20596403486963
238.810345,,0.0015294938802773563,239.016,0.6610000133514404,-2.161950104546268
239.27586200000002,,0.004551427544310059,239.479,0.6179999709129333,-2.2551303283027617
239.741379,,0.009737359451801177,239.942,0.6579999923706055,-2.167437557071479
240.206897,,0.014188355108103555,240.405,0.6019999980926514,-2.288867319210423
240.672414,,0.016346362487649355,240.875,0.6470000147819519,-2.190243722931452
241.137931,,0.01762381863563995,241.34,0.6140000224113464,-2.261562778123963
241.603448,,0.019468899729896853,241.804,0.6110000014305115,-2.2675482984041344
242.068966,,0.02010513066002777,242.269,0.6340000033378601,-2.2169316233814635
242.534483,,0.017543971204766768,242.735,0.6980000138282776,-2.0770462074123532
243.0,,0.015794859498256635,243.201,0.6449999809265137,-2.1921303435738024
243.465517,,0.02169819610649842,243.665,0.6309999823570251,-2.222327037517059
243.93103399999998,,0.03055189573076836,244.131,0.6060000061988831,-2.2765797479272467
244.39655199999999,,0.022131866291332146,244.59,0.6570000052452087,-2.1653525274531007
244.862069,,0.015213507092154346,245.056,0.6060000061988831,-2.276447591325144
245.327586,,0.05816229289775833,245.524,0.6290000081062317,-2.2264233375384808
245.793103,,0.06532434630397357,245.986,0.6079999804496765,-2.2723579874650364
246.258621,,0.027030808287344048,246.45,0.6129999756813049,-2.2617402926462957
246.724138,,0.018788792553927694,246.92,0.6069999933242798,-2.2751718121391966
247.18965500000002,,0.028952352820695786,247.38,0.628000020980835,-2.2298522878300893
247.655172,,0.0004177973545690337,247.849,0.6200000047683716,-2.2477721206472516
248.12069,,0.03296176264011475,248.315,0.6349999904632568,-2.2156257835804434
248.586207,,0.039565611696228756,248.775,0.6159999966621399,-2.257579649380916
249.051724,,0.018427345223762902,249.241,0.6660000085830688,-2.149215110454144
249.517241,,0.008921762632849526,249.706,0.6610000133514404,-2.160665853881291
249.982759,,0.023899591189250315,250.172,0.6179999709129333,-2.2548780128458255
250.44827600000002,,0.01951259214100886,250.638,0.6539999842643738,-2.176934423848072
250.913793,,0.00444250941456034,251.104,0.6140000224113464,-2.264511376457683
251.37931000000003,,0.035838335752968534,251.565,0.6449999809265137,-2.197335101070633
251.844828,,0.04716268716087604,252.034,0.6110000014305115,-2.2716911852710235
252.31034499999998,,0.02048338483513976,252.502,0.6179999709129333,-2.25663546637938
252.77586200000002,,0.02327596593243408,252.965,0.6150000095367432,-2.2632737482724394
253.241379,,0.03670899277850375,253.428,0.6060000061988831,-2.2828891517706102
253.706897,,0.0031490584385676264,253.89,0.6449999809265137,-2.197834424581281
254.172414,,0.06147034817822647,254.356,0.6140000224113464,-2.265192322030427
254.63793099999998,,0.0776116137855233,254.826,0.6179999709129333,-2.256211223453253
255.10344800000001,,0.03513620014409761,255.292,0.6119999885559082,-2.268938968337111
255.56896600000002,,0.01879584754828699,255.75,0.6290000081062317,-2.2314908366581476
256.03448299999997,,0.03473353454352624,256.215,0.6209999918937683,-2.248454393262765
256.5,,0.01884212620182314,256.687,0.6460000276565552,-2.1934815962943257
256.965517,,0.011002472929234305,257.145,0.6579999923706055,-2.1668050510960324
257.431034,,0.022467352878144387,257.61,0.6190000176429749,-2.251229213185038
257.896552,,0.021120057501211622,258.076,0.6190000176429749,-2.250693620735549
258.362069,,0.0184819195139345,258.546,0.6690000295639038,-2.1412491133855367
258.827586,,0.06969005991819668,259.008,0.6449999809265137,-2.193062439331579
259.29310300000003,,0.07877893799844216,259.476,0.6499999761581421,-2.1817467233130534
259.758621,,0.03181757087040261,259.938,0.6179999709129333,-2.251106550170188
260.224138,,0.02631667647493001,260.402,0.6290000081062317,-2.226861551285343
260.689655,,0.04452983768911252,260.872,0.6330000162124634,-2.2179528339625127
261.155172,,0.018551763840408915,261.33,0.6190000176429749,-2.24835112692337
261.62068999999997,,0.014561233116885411,261.801,0.6110000014305115,-2.265772386534179
262.086207,,0.02082359780616491,262.266,0.6100000143051147,-2.268038426986179
262.551724,,0.0013183870987049289,262.731,0.625,-2.2355384643807117
263.017241,,0.030793558246503105,263.196,0.609000027179718,-2.270662798930522
263.482759,,0.048249043456323026,263.661,0.628000020980835,-2.2296122356609915
263.94827599999996,,0.04246257519502791,264.12,0.6190000176429749,-2.249630506446414
264.413793,,0.009372710164082615,264.587,0.6330000162124634,-2.219593352820423
264.87931,,0.034544014025747666,265.052,0.6330000162124634,-2.220095972729352
265.34482799999995,,0.050921497160665644,265.52,0.5929999947547913,-2.307768181849929
265.810345,,0.017698593694673376,265.982,0.6620000004768372,-2.1579750692669473
266.27586199999996,,0.0360831131466997,266.446,0.652999997138977,-2.1781060041543876
266.741379,,0.05476201868178106,266.916,0.6439999938011169,-2.1982095096293657
267.206897,,0.01756622483476806,267.376,0.6359999775886536,-2.2160925467016237
267.672414,,0.03540731492815433,267.846,0.628000020980835,-2.2339205326013065
268.137931,,0.04621612849099394,268.312,0.6110000014305115,-2.271290408025086
268.603448,,0.005087472477463203,268.772,0.6579999923706055,-2.169150656674264
269.06896600000005,,0.04103414639509893,269.238,0.6370000243186951,-2.215074361327334
269.53448299999997,,0.04946138606105801,269.705,0.6489999890327454,-2.1890130071262557
270.0,,0.03035415568384809,270.171,0.6140000224113464,-2.2652567735912847
270.465517,,0.021387090346112952,270.636,0.6119999885559082,-2.2695158893431526
270.931034,,0.030755672547782536,271.101,0.6800000071525574,-2.12118299070207
271.396552,,0.026936003198515697,271.564,0.6370000243186951,-2.2145980900359192
271.86206899999996,,0.01297990683674213,272.026,0.6209999918937683,-2.2491169358003744
272.327586,,0.06153441076819051,272.494,0.6330000162124634,-2.2225726355722886
272.793103,,0.06651604873617914,272.957,0.6119999885559082,-2.267875879984539
273.258621,,0.016024650862911077,273.425,0.6349999904632568,-2.2172846212617916
273.724138,,0.043435611528427016,273.886,0.6370000243186951,-2.212425480784916
274.18965499999996,,0.05934245088862414,274.352,0.625,-2.238063268204041
274.655172,,0.02743358784763395,274.821,0.6290000081062317,-2.2288541330233604
275.12069,,0.011649014204487051,275.28,0.6489999890327454,-2.184812952047112
275.586207,,0.01867612460623204,275.745,0.6230000257492065,-2.24102962479071
276.051724,,0.008298921274395367,276.211,0.6570000052452087,-2.1665804147973486
276.517241,,0.04146874723026012,276.676,0.6159999966621399,-2.2555940001195447
276.98275900000004,,0.05544875076757388,277.142,0.6470000147819519,-2.1878184217516665
277.448276,,0.04231064316699494,277.609,0.621999979019165,-2.242127929858926
277.913793,,0.006720616034365853,278.075,0.6290000081062317,-2.226805753555703
278.37931,,0.03324278781125809,278.536,0.628000020980835,-2.229000023227262
278.844828,,0.0478586654826263,279.006,0.6539999842643738,-2.172456580259146
279.31034500000004,,0.022072733068460595,279.468,0.6079999804496765,-2.2728578832305235
279.77586199999996,,0.01958861269143507,279.93,0.6119999885559082,-2.264403898430377
280.241379,,0.0313456328982375,280.398,0.6370000243186951,-2.2102672744235026
280.706897,,0.004660233998703165,280.861,0.6100000143051147,-2.2694785698709654
281.172414,,0.054153384105470714,281.327,0.6549999713897705,-2.1718727198029013
281.637931,,0.06529802046113409,281.79,0.6439999938011169,-2.196302072754322
282.10344799999996,,0.02838409959221262,282.256,0.6449999809265137,-2.1946038285612968
282.568966,,0.014051425883367549,282.724,0.6370000243186951,-2.2125149365732355
283.034483,,0.023224157325135792,283.19,0.6340000033378601,-2.219520161628813
283.5,,0.00980852301642525,283.65,0.6430000066757202,-2.2003546025900587
283.965517,,0.008616534240961853,284.116,0.621999979019165,-2.2465084179796846
284.431034,,0.02336828068545394,284.583,0.6690000295639038,-2.144461451476983
284.89655200000004,,0.01956125859870995,285.048,0.6610000133514404,-2.1621763162573666
285.362069,,0.024515399878454917,285.516,0.6330000162124634,-2.2233917637898974
285.827586,,0.07711812763965353,285.979,0.6209999918937683,-2.249671964056445
286.293103,,0.08317431389210983,286.442,0.6620000004768372,-2.160403380335532
286.758621,,0.03176195337789933,286.905,0.6069999933242798,-2.280203451272031
287.22413800000004,,0.02861398064255825,287.372,0.6449999809265137,-2.197309400256954
287.689655,,0.045856857489222545,287.842,0.6430000066757202,-2.2014849040234434
288.155172,,0.01720045810433705,288.3,0.628000020980835,-2.2339122558259437
288.62069,,0.017815762935471303,288.765,0.6209999918937683,-2.248848799659652
289.086207,,0.023246346685944,289.23,0.640999972820282,-2.204910236441727
289.55172400000004,,0.0016817332916699052,289.698,0.6259999871253967,-2.237183894041003
290.01724099999996,,0.03183393550612356,290.164,0.6549999713897705,-2.1735688667026944
290.482759,,0.045240806884508676,290.631,0.6449999809265137,-2.1949056751431137
290.948276,,0.0348923683492418,291.097,0.6349999904632568,-2.2162408387458843
291.413793,,0.004120911765242632,291.557,0.6060000061988831,-2.2789835194733583
291.87931,,0.030508790751618615,292.027,0.578000009059906,-2.3395757926184713
292.344828,,0.03962101905118739,292.487,0.6489999890327454,-2.18452252460431
292.81034500000004,,0.007632253768689244,292.95,0.621999979019165,-2.2430267317154597
293.275862,,0.04004008236441793,293.42,0.6949999928474426,-2.0837233524193897
293.74137900000005,,0.0533686972982049,293.883,0.6190000176429749,-2.249102693785892
294.206897,,0.010409523089771743,294.349,0.6179999709129333,-2.2511544840616726
294.672414,,0.051135648840683695,294.811,0.6660000085830688,-2.146527133575849
295.13793100000004,,0.06874747550311631,295.277,0.6499999761581421,-2.181407887083747
295.603448,,0.026403396156585032,295.742,0.6209999918937683,-2.2446844187801744
296.068966,,0.02718289550960979,296.208,0.6119999885559082,-2.264459619478972
296.534483,,0.042163533881622736,296.672,0.6269999742507935,-2.232013936391867
297.0,,0.025961422282051623,297.138,0.6140000224113464,-2.2606292747148866
297.46551700000003,,0.019129877515142363,297.602,0.6159999966621399,-2.2566148764482095
297.931034,,0.03116364640411061,298.068,0.6470000147819519,-2.189458204843799
298.396552,,0.027383234413832086,298.531,0.6370000243186951,-2.2116519220514967
298.862069,,0.017560381389867992,299.001,0.6909999847412109,-2.094424163291925
299.327586,,0.07351564112547664,299.461,0.656000018119812,-2.171094032797967
299.79310300000003,,0.083163615306946,299.93,0.6499999761581421,-2.1845691095456194
300.258621,,0.032454354342030464,300.391,0.5789999961853027,-2.339632374063874
300.724138,,0.030394816272690424,300.862,0.6439999938011169,-2.198365926522721
301.189655,,0.050406050337574934,301.32,0.6480000019073486,-2.189952331258185
301.65517200000005,,0.02191180869740848,301.786,0.6740000247955322,-2.133553167620664
302.12069,,0.015671188167682985,302.252,0.6320000290870667,-2.2252397721362613
302.586207,,0.024268351402889583,302.716,0.6629999876022339,-2.1578182389553913
303.05172400000004,,0.001103428126808527,303.182,0.6340000033378601,-2.22104601335033
303.517241,,0.029423951209023552,303.646,0.6200000047683716,-2.251524609715026
303.982759,,0.04498424472380089,304.111,0.5889999866485596,-2.318973828866162
304.448276,,0.03708387847816806,304.576,0.6110000014305115,-2.270892412276261
304.913793,,0.0069188566556559255,305.041,0.6439999938011169,-2.1987879287628607
305.37931000000003,,0.029875230106435766,305.505,0.6579999923706055,-2.1680245575565626
305.844828,,0.042737147424743056,305.975,0.6420000195503235,-2.202574751247931
306.310345,,0.014469111119425036,306.438,0.6340000033378601,-2.2196600074284443
306.775862,,0.030519408504043718,306.901,0.6150000095367432,-2.2606860004280773
307.241379,,0.04421313772809895,307.368,0.6579999923706055,-2.1666226469451457
307.70689699999997,,0.007212855880784487,307.833,0.625,-2.2381342414674354
308.172414,,0.04448075045594409,308.298,0.6269999742507935,-2.2334026549307797
308.637931,,0.05541040071202332,308.764,0.6830000281333923,-2.1110438370218967
309.103448,,0.014522212600195017,309.23,0.6190000176429749,-2.250152494692935
309.568966,,0.032602879822588395,309.694,0.6809999942779541,-2.1147904265776707
310.034483,,0.042592011315425185,310.16,0.6129999756813049,-2.262700179557722
310.5,,0.02488710375405239,310.624,0.6290000081062317,-2.2276585783780534
310.96551700000003,,0.017926387670730716,311.09,0.6370000243186951,-2.210107094389315
311.431034,,0.030152473358702612,311.55,0.675000011920929,-2.1272589729276974
311.896552,,0.02771158044183252,312.02,0.6119999885559082,-2.2645181490383814
312.362069,,0.01522641901941425,312.483,0.6620000004768372,-2.155653728383267
312.827586,,0.07074311161799778,312.946,0.6309999823570251,-2.2233212356064946
313.29310300000003,,0.08243178520675958,313.416,0.6140000224113464,-2.2605450844665747
313.758621,,0.034583833798602394,313.879,0.6309999823570251,-2.2237475361335575
314.224138,,0.026400325655300913,314.344,0.6190000176429749,-2.250175551535481
314.689655,,0.04547202965559907,314.807,0.6439999938011169,-2.1960294111513465
315.155172,,0.016007331358570225,315.273,0.6399999856948853,-2.205089316734611
315.62068999999997,,0.022620117617889825,315.742,0.6539999842643738,-2.1749476630336257
316.086207,,0.03151969815802086,316.2,0.5789999961853027,-2.3387099961839906
316.551724,,0.007558831888566082,316.672,0.6700000166893005,-2.14081069510305
317.017241,,0.024190112366688877,317.13,0.6660000085830688,-2.149864676099498
317.482759,,0.040587983861170795,317.595,0.6679999828338623,-2.1458167183310284
317.94827599999996,,0.033391501504251034,318.061,0.5960000157356262,-2.30295094706858
318.413793,,0.0048472350814730645,318.531,0.6690000295639038,-2.1441368726276018
318.87931000000003,,0.02919352205043864,318.994,0.6179999709129333,-2.255424433998306
319.344828,,0.03938633674855276,319.457,0.6629999876022339,-2.15750535831397
319.810345,,0.009640773169191458,319.92,0.6190000176429749,-2.2534268835398263
320.275862,,0.03589634712795863,320.391,0.6230000257492065,-2.244713561066527
320.741379,,0.049829178625981935,320.853,0.6209999918937683,-2.249013665022894
321.20689699999997,,0.012355520536823521,321.319,0.6190000176429749,-2.2532572763681467
321.672414,,0.0412382979203283,321.783,0.625,-2.240019202153066
322.137931,,0.05485652421793819,322.248,0.6179999709129333,-2.255056218902296
322.603448,,0.015604555769231915,322.713,0.6299999952316284,-2.228657931545085
323.068966,,0.03197813981309222,323.179,0.6759999990463257,-2.128151313901769
323.53448299999997,,0.04362336783012818,323.643,0.6449999809265137,-2.195373766636711
324.0,,0.027130157025626427,324.109,0.6710000038146973,-2.1383954509240035
324.465517,,0.02030178867866065,324.576,0.5669999718666077,-2.364635529402807
324.931034,,0.03213672442337951,325.041,0.6579999923706055,-2.166044583917346
325.396552,,0.029498642085989936,325.502,0.625,-2.237620862966829
325.86206899999996,,0.013297924183797735,325.971,0.640999972820282,-2.20246664959029
326.327586,,0.0688254324354568,326.431,0.5920000076293945,-2.3089572509950917
326.793103,,0.08143995924357059,326.901,0.6169999837875366,-2.2542692723803732
327.258621,,0.035702476482081844,327.36,0.6570000052452087,-2.166948223705355
327.724138,,0.022754164370840727,327.83,0.6650000214576721,-2.1493933662030718
328.189655,,0.04008501960192161,328.296,0.5759999752044678,-2.3432209346210637
328.655172,,0.010207281482948045,328.76,0.6140000224113464,-2.2604173447255693
329.12068999999997,,0.027652719463511458,329.226,0.6370000243186951,-2.210350868853921
329.586207,,0.03471155842595328,329.691,0.6320000290870667,-2.2213406025599736
330.051724,,0.008016632811970247,330.156,0.6340000033378601,-2.217130275947637
330.517241,,0.026485965069070406,330.616,0.6190000176429749,-2.2500028339734683
330.982759,,0.04452164439072008,331.082,0.6230000257492065,-2.241521366055949
331.44827599999996,,0.03746385111660099,331.55,0.6290000081062317,-2.228715743579346
331.913793,,0.007899835268125809,332.012,0.6269999742507935,-2.233364032191144
332.37931,,0.02787216332396146,332.479,0.6570000052452087,-2.168310691133175
332.844828,,0.039675298352071786,332.942,0.6259999871253967,-2.2361606955286897
333.310345,,0.010005696300115958,333.405,0.6470000147819519,-2.190717483878273
333.77586199999996,,0.03698842069986599,333.875,0.6650000214576721,-2.1517973838243334
334.241379,,0.05039776025516872,334.341,0.6179999709129333,-2.2544680599416176
334.706897,,0.006472354261639182,334.804,0.597000002861023,-2.3004662126004973
335.17241399999995,,0.05716109648471949,335.27,0.6690000295639038,-2.143815990427235
335.637931,,0.07584753869856208,335.735,0.6320000290870667,-2.2245971549269656
336.103448,,0.031854209622841516,336.2,0.6240000128746033,-2.2421517309748213
336.56896600000005,,0.024862470043018572,336.664,0.628000020980835,-2.2335144331099372
337.034483,,0.041185303413537745,337.13,0.5830000042915344,-2.3315820741334394
337.5,,0.022851467221101752,337.594,0.6169999837875366,-2.2574881330025534
337.965517,,0.012587934408085182,338.06,0.6430000066757202,-2.2007750637350183
338.431034,,0.02407190874224946,338.524,0.609000027179718,-2.274734086938322
338.89655200000004,,0.024407017757405777,338.986,0.625,-2.2397180237761636
339.36206899999996,,0.014607489749475651,339.454,0.5680000185966492,-2.363706459020162
339.827586,,0.06753761113030715,339.916,0.6340000033378601,-2.219690707455199
340.293103,,0.07882720640735365,340.387,0.640999972820282,-2.204189910543379
340.758621,,0.03198207958877367,340.849,0.6449999809265137,-2.1952052351231086
341.224138,,0.02809576583909858,341.315,0.6589999794960022,-2.164421560727992
341.68965499999996,,0.0474067661105972,341.78,0.6539999842643738,-2.1750272926625884
342.155172,,0.01936024089498733,342.246,0.6209999918937683,-2.2466390959794524
342.62069,,0.01734977148494822,342.706,0.6809999942779541,-2.1156487987586345
343.086207,,0.02469317104561159,343.171,0.6370000243186951,-2.2112572334555587
343.551724,,0.0002530618353315108,343.636,0.6600000262260437,-2.16092286998258
344.01724099999996,,0.030611944904815308,344.102,0.6209999918937683,-2.2456986964062704
344.48275900000004,,0.04507791566538451,344.576,0.6100000143051147,-2.2695128618820815
344.948276,,0.03561435528975424,345.034,0.6200000047683716,-2.247621395761025
345.413793,,0.005204961581454265,345.502,0.6060000061988831,-2.2780664596561055
345.87931,,0.029826666628219475,345.964,0.6330000162124634,-2.2192371546949365
346.344828,,0.04018468183118776,346.428,0.6600000262260437,-2.160456824661439
346.81034500000004,,0.01024005733398402,346.89,0.6309999823570251,-2.2237275062955657
347.275862,,0.03573208099821648,347.355,0.6320000290870667,-2.2216828260686614
347.741379,,0.050893096817945724,347.825,0.6620000004768372,-2.1564976921130508
348.206897,,0.015651100461389997,348.291,0.6520000100135803,-2.1784925194164497
348.672414,,0.03598843626401772,348.75,0.6370000243186951,-2.211408640720612
349.13793100000004,,0.04996036794275413,349.215,0.6330000162124634,-2.2203816851747997
349.60344799999996,,0.013991842619962967,349.68,0.5929999947547913,-2.3078018544177565
350.068966,,0.029216993907145238,350.146,0.6579999923706055,-2.1664719601121134
350.534483,,0.0382772629191492,350.612,0.6190000176429749,-2.2517205383005168
351.0,,0.02234711198842759,351.078,0.6880000233650208,-2.10166486321603
351.465517,,0.017909251208637417,351.546,0.6330000162124634,-2.221742914530251
351.93103399999995,,0.0313951123994782,352.008,0.6340000033378601,-2.2197913626222308
352.396552,,0.028465784872439198,352.476,0.6729999780654907,-2.135019742030478
352.862069,,0.015326046147005829,352.938,0.6309999823570251,-2.2266810376356174
353.32758600000005,,0.07038216116460566,353.401,0.609000027179718,-2.2747285374167956
353.793103,,0.0802243265829182,353.871,0.6460000276565552,-2.1941928265529484
354.258621,,0.03059463526525827,354.33,0.6190000176429749,-2.253045229002735
354.72413800000004,,0.030827494721920725,354.801,0.6190000176429749,-2.2530282252503993
355.189655,,0.04886511803192838,355.267,0.6539999842643738,-2.1767131339391614
355.655172,,0.01763451360313846,355.731,0.6370000243186951,-2.2136430538177887
356.12069,,0.02226525823963326,356.197,0.6140000224113464,-2.2636038928217017
356.586207,,0.030771071206182814,356.662,0.6430000066757202,-2.2002388393433154
357.05172400000004,,0.005000504432788169,357.12,0.656000018119812,-2.171700327869723
357.517241,,0.02760506152892378,357.587,0.6579999923706055,-2.167100364410764
357.982759,,0.04149691831278513,358.053,0.5979999899864197,-2.297557698300291
358.448276,,0.029208478324791533,358.52,0.609000027179718,-2.273321454820159
358.913793,,0.0030318344460516762,358.983,0.6949999928474426,-2.0856841077338077
359.37931000000003,,0.03628055309877378,359.446,0.6150000095367432,-2.259705705042445
359.844828,,0.04249650248800687,359.916,0.6679999828338623,-2.1439784352116518
360.310345,,0.009738035749040119,360.376,0.6259999871253967,-2.2352418757530943
360.775862,,0.03557221546630667,360.846,0.6299999952316284,-2.2263139344461185
361.241379,,0.047647296650653176,361.312,0.6370000243186951,-2.210883127175322
361.706897,,0.00943028975228862,361.776,0.6370000243186951,-2.2107408914430544
362.172414,,0.04335796317660782,362.242,0.6399999856948853,-2.2041046527846544
362.63793100000004,,0.056427335549028484,362.701,0.6740000247955322,-2.1299741238301153
363.103448,,0.018164573779447846,363.167,0.6240000128746033,-2.2388955162431965
363.568966,,0.02778916565970695,363.631,0.6179999709129333,-2.2520034296507387
364.034483,,0.039048228807453574,364.097,0.6309999823570251,-2.22376388049819
364.5,,0.023947712617514726,364.565,0.6579999923706055,-2.165067028577136
364.96551700000003,,0.018696446938436924,365.027,0.6129999756813049,-2.26327275858913
365.431034,,0.03024248977874597,365.49,0.6430000066757202,-2.198115352467393
365.896552,,0.02539004878774278,365.961,0.6420000195503235,-2.200525735644029
366.362069,,0.019135117808008306,366.424,0.6299999952316284,-2.2269240276419637
366.827586,,0.07330041495884614,366.886,0.6439999938011169,-2.1966929861974296
367.29310300000003,,0.08133214528302304,367.352,0.6729999780654907,-2.13378924002443
367.758621,,0.030313575632056777,367.815,0.6700000166893005,-2.140599924817989
368.224138,,0.0313168526988058,368.28,0.621999979019165,-2.2454404064786417
368.689655,,0.048905739686102526,368.749,0.6549999713897705,-2.1737943651273635
369.155172,,0.017536819886540548,369.215,0.6700000166893005,-2.141340341394718
369.62068999999997,,0.022246043625444488,369.679,0.6880000233650208,-2.1023190042554156
370.086207,,0.03143800775848134,370.145,0.6209999918937683,-2.2484463514235657
370.55172400000004,,0.007397268745098933,370.609,0.6740000247955322,-2.1330958938249642
371.017241,,0.024075560605521528,371.074,0.5879999995231628,-2.320535712464741
371.482759,,0.039191954340563655,371.535,0.6959999799728394,-2.0852736264926763
371.948276,,0.029776710130396226,372.005,0.6449999809265137,-2.1963704669094
372.413793,,0.0007261115519172195,372.465,0.6880000233650208,-2.102627490379846
372.87931000000003,,0.03487892277706649,372.935,0.6370000243186951,-2.2136330638278885
373.344828,,0.04286072135039725,373.398,0.6499999761581421,-2.1851645982463297
373.810345,,0.009924838575772081,373.86,0.6449999809265137,-2.1958759251101236
374.275862,,0.03720827703902242,374.326,0.5870000123977661,-2.322026090070553
374.741379,,0.04869982614386647,374.79,0.6349999904632568,-2.217217409437241
375.20689699999997,,0.004713125906105369,375.256,0.5809999704360962,-2.3346156287703215
375.672414,,0.05522500555017868,375.721,0.6539999842643738,-2.1753166052048445
376.137931,,0.06923575237241006,376.186,0.6779999732971191,-2.122767561872244
376.603448,,0.02370474222620053,376.651,0.7089999914169312,-2.054968276630497
377.068966,,0.031054877596464744,377.116,0.6439999938011169,-2.1963264929575685
377.53448299999997,,0.04560422834845257,377.583,0.6660000085830688,-2.148157850558027
378.0,,0.028702931730215087,378.049,0.6460000276565552,-2.1915155863117084
378.465517,,0.021817481573784474,378.517,0.6370000243186951,-2.210937948998725
378.931034,,0.0346362830544218,378.98,0.6549999713897705,-2.1715722711264065
379.396552,,0.032016508756280176,379.442,0.6439999938011169,-2.195426646619539
379.862069,,0.012441292458306689,379.905,0.6340000033378601,-2.2171452729131884
380.327586,,0.0694524300401301,380.376,0.675000011920929,-2.127797502091858
380.79310300000003,,0.08129997961703686,380.838,0.6259999871253967,-2.2345733008773423
381.258621,,0.0324579776475479,381.304,0.6209999918937683,-2.2455342285846025
381.724138,,0.029879600864433895,381.769,0.6190000176429749,-2.2500042910597515
382.189655,,0.05043079545522794,382.235,0.6460000276565552,-2.191335251514478
382.655172,,0.0227370281666771,382.695,0.6579999923706055,-2.1653822189188485
383.12068999999997,,0.013993654768569674,383.16,0.6449999809265137,-2.19392546331143
383.586207,,0.02147225797816136,383.627,0.6430000066757202,-2.1985276763962736
384.051724,,0.003001417164353194,384.093,0.6549999713897705,-2.1726463254854385
384.517241,,0.034421892728747565,384.561,0.6370000243186951,-2.2121341841543174
384.982759,,0.04937064935438065,385.024,0.6299999952316284,-2.2276598992941903
385.44827599999996,,0.03817782230330525,385.487,0.6700000166893005,-2.140783866620692
385.913793,,0.002252104295828943,385.956,0.6439999938011169,-2.197685104199296
386.37931,,0.0397091045106427,386.417,0.6209999918937683,-2.2480300362781427
386.84482799999995,,0.052689498654117,386.886,0.6449999809265137,-2.1959523215999184
387.310345,,0.0180637380724412,387.345,0.6449999809265137,-2.1961295006401436
387.775862,,0.03536717376590324,387.815,0.6449999809265137,-2.1962684136561084
388.241379,,0.052194918289357885,388.28,0.6169999837875366,-2.2573676684542887
388.70689699999997,,0.00942917690631389,388.742,0.6620000004768372,-2.1593809423870267
389.172414,,0.05222267591813282,389.208,0.6209999918937683,-2.2487114586038612
389.637931,,0.06792334746489745,389.672,0.621999979019165,-2.2464923511077823
390.103448,,0.022282398798952517,390.138,0.6449999809265137,-2.196297759824208
390.56896600000005,,0.03368153088394248,390.603,0.6439999938011169,-2.1983468511098345
391.03448299999997,,0.048444176180771945,391.069,0.6679999828338623,-2.1458884535439813
391.5,,0.030374693811319537,391.531,0.6620000004768372,-2.1587520191954157
391.965517,,0.02293086347973291,392.001,0.6859999895095825,-2.106223812621246
392.431034,,0.03577822133226186,392.464,0.628000020980835,-2.232319483556298
392.896552,,0.029114175475302765,392.927,0.6460000276565552,-2.192821588265887
393.36206899999996,,0.026268411146171355,393.395,0.628000020980835,-2.2317476890127357
393.827586,,0.0941199380365882,393.857,0.6539999842643738,-2.1748140995465413
394.293103,,0.10475472339311787,394.322,0.6890000104904175,-2.0982804272051814
394.75862099999995,,0.03993450409775161,394.786,0.6370000243186951,-2.2113045603189536
395.224138,,0.041016948131228914,395.252,0.6579999923706055,-2.1653114616358704
395.68965499999996,,0.06611263782897925,395.718,0.6579999923706055,-2.165101417616945
396.155172,,0.023046106746706107,396.184,0.5950000286102295,-2.3021848505714995
396.62069,,0.037266158254065394,396.65,0.6309999823570251,-2.223627799193005
397.086207,,0.0566890099747665,397.116,0.6460000276565552,-2.190871256695002
397.551724,,0.0236537473621576,397.576,0.7039999961853027,-2.0644821768931276
398.017241,,0.026703670289265125,398.042,0.625,-2.236617261372907
398.48275900000004,,0.054977745662598346,398.509,0.6579999923706055,-2.1647938764761734
398.94827599999996,,0.04598896272844693,398.972,0.6579999923706055,-2.164914584059729
399.413793,,0.006451426833669311,399.435,0.675000011920929,-2.1280427581402077
399.87931,,0.03861691846037683,399.905,0.6449999809265137,-2.1936075345125707
400.344828,,0.0519028357960591,400.376,0.628000020980835,-2.2308851560281724
400.810345,,0.014857360448217206,400.831,0.6579999923706055,-2.1657957523473628
401.27586199999996,,0.043312311911672716,401.296,0.6880000233650208,-2.100726532370255
401.741379,,0.06629952314956437,401.761,0.6039999723434448,-2.284035409828058
402.206897,,0.029182842884236063,402.226,0.7020000219345093,-2.07083387341811
402.672414,,0.029404983374021473,402.691,0.722000002861023,-2.0275597617021366
403.137931,,0.045199557857657384,403.157,0.6209999918937683,-2.2478854840384233
403.60344799999996,,0.001579840910065811,403.624,0.6830000281333923,-2.113068669922404
404.068966,,0.05214292039432965,404.09,0.6349999904632568,-2.217873760340356
404.534483,,0.06560946794631123,404.55,0.6660000085830688,-2.150529089026438
405.0,,0.04779267897269177,405.02,0.6460000276565552,-2.194253544594921
405.465517,,0.041686082559554465,405.483,0.6579999923706055,-2.168214714720065
405.931034,,0.05453346748567287,405.945,0.6539999842643738,-2.176984290651289
406.39655200000004,,0.043635632056744915,406.413,0.6949999928474426,-2.087661957393212
406.862069,,0.01988401889011919,406.875,0.6370000243186951,-2.21397243837434
407.327586,,0.09574804507008113,407.341,0.6370000243186951,-2.213870498584896
407.793103,,0.11150415256664685,407.805,0.6620000004768372,-2.1592547892701246
408.258621,,0.050670578403453924,408.27,0.6439999938011169,-2.198276746755223
408.72413800000004,,0.025487880425318115,408.735,0.6449999809265137,-2.195865609610349
409.18965499999996,,0.04812810138301464,409.2,0.6309999823570251,-2.226102349151836
409.655172,,0.009578102704112003,409.665,0.6370000243186951,-2.212741880914865
410.12069,,0.041442795826174945,410.131,0.722000002861023,-2.0272505823500273
410.586207,,0.055260945461710086,410.598,0.6359999775886536,-2.2142975330358072
411.05172400000004,,0.02462085671140256,411.064,0.722000002861023,-2.026614962360868
411.51724099999996,,0.02014349825778884,411.527,0.675000011920929,-2.128699507836197
411.982759,,0.04590500289919087,411.99,0.6579999923706055,-2.165441002871715
412.448276,,0.037402571812409094,412.457,0.6190000176429749,-2.2501401182192926
412.913793,,0.002549073786511866,412.92,0.7089999914169312,-2.053829221931608
413.37931,,0.050212174565663376,413.387,0.6579999923706055,-2.164748875237675
413.844828,,0.06617264765173103,413.856,0.6330000162124634,-2.219071372754907
414.31034500000004,,0.030130125404561912,414.315,0.6190000176429749,-2.249483384389223
414.775862,,0.027982473191637557,414.78,0.6579999923706055,-2.1644849880473496
415.241379,,0.04984503481611959,415.246,0.5960000157356262,-2.299589306283946
415.706897,,0.009432355890439195,415.713,0.6439999938011169,-2.1951018009503898
416.172414,,0.053748988400584806,416.179,0.6650000214576721,-2.1494939156028305
416.63793100000004,,0.07316772409445027,416.646,0.675000011920929,-2.1279016105548485
417.103448,,0.03009345122536806,417.112,0.6539999842643738,-2.1738919955028773
417.568966,,0.026830940545890806,417.576,0.6790000200271606,-2.1197022624422046
418.034483,,0.046157838282560884,418.041,0.6499999761581421,-2.1831897507280558
418.5,,0.034561284440328105,418.502,0.6570000052452087,-2.1682673825521888
418.96551700000003,,0.032903741856895624,418.971,0.6990000009536743,-2.0771040553851203
419.43103399999995,,0.04820681192155704,419.435,0.640999972820282,-2.203806922078169
419.896552,,0.03961925353936409,419.897,0.7009999752044678,-2.073420677345859
420.362069,,0.02009117716143301,420.363,0.6299999952316284,-2.2284194780590303
420.827586,,0.09107280046240056,420.827,0.7139999866485596,-2.0457004929734826
421.293103,,0.10227149360860767,421.293,0.6299999952316284,-2.228958628153822
421.758621,,0.03762711664142876,421.758,0.6230000257492065,-2.2444190708542635
422.22413800000004,,0.04206751456918974,422.224,0.6759999990463257,-2.129113568816176
422.689655,,0.06814175956311479,422.69,0.6460000276565552,-2.194582403106284
423.15517200000005,,0.032353064039887365,423.156,0.6539999842643738,-2.177205752543045
423.62069,,0.017625339381182027,423.62,0.652999997138977,-2.1793782297103275
424.086207,,0.03272466331113643,424.086,0.6700000166893005,-2.142275753273578
424.55172400000004,,0.004412601597373532,424.549,0.6650000214576721,-2.153045303181492
425.017241,,0.03966314511427991,425.011,0.640999972820282,-2.2051545378693382
425.482759,,0.06643801016650466,425.479,0.6359999775886536,-2.2158204597952897
425.948276,,0.055528242201640765,425.942,0.675000011920929,-2.1305830473339062
426.413793,,0.005303256083528817,426.405,0.6520000100135803,-2.1803858435475076
426.87931000000003,,0.055187394101693175,426.875,0.640999972820282,-2.204017763733494
427.344828,,0.07431067858796403,427.341,0.6629999876022339,-2.1557368893946447
427.810345,,0.027737047313852722,427.804,0.6589999794960022,-2.1640931826034038
428.275862,,0.044034044564129404,428.269,0.6430000066757202,-2.1985958047249956
428.741379,,0.07041644336329408,428.735,0.6700000166893005,-2.139429676397615
429.20689699999997,,0.02554237147112101,429.2,0.6579999923706055,-2.165253631003489
429.672414,,0.04176345012139371,429.664,0.7089999914169312,-2.053853790061014
430.137931,,0.05982810988789156,430.13,0.6330000162124634,-2.219181933323965
430.603448,,0.014071696941136188,430.595,0.6539999842643738,-2.1732299630283225
431.068966,,0.04037913352921535,431.06,0.6620000004768372,-2.155655854506927
431.534483,,0.051450288323785065,431.524,0.6869999766349792,-2.101103885133073
432.0,,0.03128752325367539,431.986,0.6359999775886536,-2.2121912133064727
432.46551700000003,,0.026245866974362556,432.454,0.6449999809265137,-2.1926241448987893
432.931034,,0.04390748092510306,432.916,0.6330000162124634,-2.2188734285716207
433.396552,,0.03941062663672609,433.384,0.7289999723434448,-2.009889478679992
433.862069,,0.019012602410222863,433.847,0.6299999952316284,-2.225796818844424
434.327586,,0.0927142331156799,434.312,0.6869999766349792,-2.101884676556935
434.79310300000003,,0.10760854855185771,434.779,0.6399999856948853,-2.2045948433047466
435.258621,,0.04337803674562332,435.245,0.6840000152587891,-2.1090818210431617
435.724138,,0.039363867764731095,435.706,0.6349999904632568,-2.216207525444479
436.189655,,0.06595348953616627,436.171,0.6579999923706055,-2.16648457095001
436.655172,,0.02227600739804988,436.636,0.6579999923706055,-2.1668735526549017
437.12068999999997,,0.04021794755016287,437.101,0.6330000162124634,-2.221720331529488
437.586207,,0.06040095069193939,437.576,0.6809999942779541,-2.1175061663949237
438.051724,,0.023878736315807978,438.034,0.6819999814033508,-2.115656645757325
438.517241,,0.032825012618625006,438.498,0.621999979019165,-2.2466630390200093
438.982759,,0.06425216905740647,438.96,0.7039999961853027,-2.06825136508739
439.448276,,0.050306837424652626,439.428,0.6700000166893005,-2.142504379258555
439.913793,,0.0007335772348966872,439.89,0.7070000171661377,-2.0620079885819425
440.37931000000003,,0.049902657430605304,440.356,0.6480000019073486,-2.19059311224297
440.844828,,0.05872034495462639,440.826,0.6620000004768372,-2.160067410108744
441.310345,,0.012699843975008373,441.285,0.6579999923706055,-2.1686888928513968
441.775862,,0.04853741392902564,441.75,0.6370000243186951,-2.214281327358268
442.241379,,0.06488141833641274,442.216,0.6309999823570251,-2.227133332645746
442.70689699999997,,0.01662775449984381,442.683,0.6579999923706055,-2.1680350098012835
443.172414,,0.05048071351570624,443.149,0.6620000004768372,-2.1589974221141737
443.637931,,0.06943596427191118,443.617,0.6230000257492065,-2.243602608249111
444.103448,,0.025133767446283352,444.075,0.6320000290870667,-2.2236050146176525
444.568966,,0.03087142468831153,444.543,0.6430000066757202,-2.1992337793230727
445.03448299999997,,0.047469199583961924,445.006,0.656000018119812,-2.1704995551343305
445.5,,0.033732783858235756,445.476,0.6449999809265137,-2.1940587657124055
445.965517,,0.032257363171989316,445.938,0.6830000281333923,-2.110880971096835
446.431034,,0.04949008081538777,446.401,0.6520000100135803,-2.178057887607051
446.896552,,0.042101744928573756,446.871,0.6330000162124634,-2.2191302814661564
447.36206899999996,,0.019393961379362095,447.33,0.6729999780654907,-2.131712042839937
447.827586,,0.09467966843072848,447.801,0.6909999847412109,-2.0922804471813365
448.29310300000003,,0.10926637556870342,448.266,0.6010000109672546,-2.2882064736554746
448.758621,,0.04399307064845195,448.731,0.6449999809265137,-2.1922644433036353
449.224138,,0.03933517831610355,449.196,0.6579999923706055,-2.1639340740628032
449.689655,,0.06746229904160227,449.661,0.6520000100135803,-2.177071315422709
450.155172,,0.029016983022114886,450.12,0.6470000147819519,-2.188102028166105
450.62068999999997,,0.02608715304229614,450.587,0.6549999713897705,-2.170879261478101
451.086207,,0.04342420432485242,451.053,0.6299999952316284,-2.2256154575151097
451.551724,,0.012397461207712832,451.521,0.6299999952316284,-2.2259425859789355
452.017241,,0.035291295509165675,451.983,0.6660000085830688,-2.1478860885046673
452.482759,,0.061646248241872814,452.446,0.6349999904632568,-2.215835529014974
452.94827599999996,,0.04794091788631738,452.916,0.6060000061988831,-2.2794531885340557
453.413793,,0.0003227740968373485,453.376,0.6370000243186951,-2.2123658666039643
453.87931,,0.05166281485092501,453.846,0.6499999761581421,-2.184494212284263
454.344828,,0.061686046727974106,454.311,0.6399999856948853,-2.2067168957606977
454.810345,,0.013995885193211795,454.776,0.6200000047683716,-2.250698962413739
455.27586199999996,,0.05170908378507229,455.235,0.6230000257492065,-2.2445334276045346
455.741379,,0.0696455652751366,455.701,0.6349999904632568,-2.2187100870587515
456.206897,,0.014398400923636341,456.167,0.7070000171661377,-2.062105615508255
456.672414,,0.06511239398200175,456.631,0.6919999718666077,-2.0949707818176875
457.137931,,0.09041416539722606,457.097,0.6449999809265137,-2.1974735711555637
457.603448,,0.03969138044810243,457.565,0.6790000200271606,-2.1234243493933844
458.06896600000005,,0.028660245455078188,458.028,0.6620000004768372,-2.1604036587610445
458.53448299999997,,0.05151647212016822,458.491,0.6869999766349792,-2.105797764939659
459.0,,0.03447947267395532,458.96,0.6629999876022339,-2.1578672374927237
459.465517,,0.02628586107509159,459.424,0.6449999809265137,-2.1967934139166463
459.931034,,0.03969494769884803,459.887,0.6700000166893005,-2.141975166207226
460.39655200000004,,0.03232941471316483,460.352,0.6499999761581421,-2.1851439587646113
460.86206899999996,,0.027065878348345174,460.815,0.6190000176429749,-2.252238164566674
461.327586,,0.09918715470551263,461.281,0.652999997138977,-2.177694818469257
461.793103,,0.11019013666708909,461.749,0.6470000147819519,-2.19028525193744
462.258621,,0.042422666715226265,462.214,0.6190000176429749,-2.2508083739756835
462.724138,,0.04106396680576731,462.679,0.6309999823570251,-2.2242032586701863
463.18965499999996,,0.06777576339077845,463.144,0.6570000052452087,-2.1671279998087196
463.655172,,0.028519916828545263,463.61,0.6830000281333923,-2.110095070200501
464.12069,,0.025540830195863114,464.075,0.6320000290870667,-2.2208717558948097
464.58620699999994,,0.040638724669124084,464.538,0.4659999907016754,-2.582261518763896
465.051724,,0.007269424455433887,465.001,0.6809999942779541,-2.1136654343324706
465.517241,,0.04244113221860194,465.468,0.6970000267028809,-2.078700471635994
465.98275900000004,,0.06906801148640108,465.931,0.6520000100135803,-2.1767126548384965
466.448276,,0.05035132380518143,466.402,0.6880000233650208,-2.098335289521517
466.913793,,0.009460613286105608,466.864,0.609000027179718,-2.27058331286925
467.37931,,0.07251383374945046,467.33,0.6330000162124634,-2.2185093036793866
467.844828,,0.08489592826244981,467.793,0.6330000162124634,-2.2187961437936483
468.31034500000004,,0.029096041671476038,468.259,0.7080000042915344,-2.0557474396945103
468.77586199999996,,0.046736127813778505,468.726,0.6420000195503235,-2.1999395757485214
469.241379,,0.0713090650813291,469.191,0.6230000257492065,-2.241776306926087
469.706897,,0.02273814663215205,469.65,0.6460000276565552,-2.1921394623597124
470.172414,,0.04754965198976543,470.115,0.6819999814033508,-2.1141949248204215
470.63793100000004,,0.06725442249024013,470.58,0.6520000100135803,-2.180040166514312
471.10344799999996,,0.020512237459217524,471.046,0.6740000247955322,-2.132580494054922
471.568966,,0.03881871005299209,471.516,0.6290000081062317,-2.2310619112797325
472.034483,,0.05713814729824382,471.978,0.6520000100135803,-2.1813544434585146
472.5,,0.04280761349828413,472.446,0.6690000295639038,-2.144665890514272
472.965517,,0.039794457786864045,472.908,0.6850000023841858,-2.1100913958624696
473.43103399999995,,0.056257491750556374,473.379,0.6629999876022339,-2.158231872379339
473.89655200000004,,0.04877946996593007,473.842,0.6449999809265137,-2.1975786387998766
474.362069,,0.013693744751804389,474.3,0.6790000200271606,-2.123552948146645
474.827586,,0.09133068175916138,474.768,0.6959999799728394,-2.086479094656752
475.293103,,0.10795898432329606,475.233,0.6589999794960022,-2.1669672844741474
475.758621,,0.04274023619103678,475.698,0.6370000243186951,-2.214695756253133
476.22413800000004,,0.04180548485194094,476.164,0.6740000247955322,-2.1338108947436596
476.689655,,0.07007516472458239,476.627,0.6340000033378601,-2.2206167947267006
477.155172,,0.02947554651631278,477.093,0.6809999942779541,-2.117824815757887
477.62069,,0.028998420967303373,477.561,0.6880000233650208,-2.102133826962271
478.086207,,0.04895541267133256,478.024,0.6859999895095825,-2.106017787097182
478.55172400000004,,0.018751891633580174,478.487,0.6439999938011169,-2.197029336617515
479.01724099999996,,0.029836009461074318,478.95,0.7120000123977661,-2.048386069258096
479.482759,,0.058324062154095316,479.42,0.6570000052452087,-2.1677273414110374
479.948276,,0.04703643531981181,479.884,0.6729999780654907,-2.132410136743024
480.413793,,0.00024313680151670581,480.349,0.6430000066757202,-2.197350981359527
480.87931000000003,,0.05344589243801975,480.812,0.6650000214576721,-2.149055361743953
481.344828,,0.0677830297198565,481.278,0.6489999890327454,-2.1836127758975326
481.810345,,0.024925537049532823,481.743,0.6660000085830688,-2.1463478143242773
482.275862,,0.03798086817182412,482.209,0.6499999761581421,-2.181058362578029
482.74137900000005,,0.05851275719962566,482.676,0.6449999809265137,-2.191888490141098
483.206897,,0.013696575939926408,483.141,0.6060000061988831,-2.276880571784194
483.672414,,0.050972696530648,483.606,0.6209999918937683,-2.244314105599214
484.13793100000004,,0.06653085932242706,484.072,0.6370000243186951,-2.2096536824121937
484.603448,,0.017325100268465572,484.534,0.6809999942779541,-2.114068197472021
485.068966,,0.043113696216034045,484.997,0.6330000162124634,-2.21898582546142
485.534483,,0.06164212600761953,485.464,0.6430000066757202,-2.1975997041237947
486.0,,0.047589303701678784,485.927,0.6549999713897705,-2.171902304184271
486.46551700000003,,0.04561058166877249,486.391,0.6830000281333923,-2.1113775718948595
486.931034,,0.063907372904955,486.86,0.6399999856948853,-2.2055534917097885
487.396552,,0.05924135156188742,487.326,0.6779999732971191,-2.1232605886141602
487.862069,,0.0007594213215750814,487.79,0.6380000114440918,-2.2108892873369452
488.327586,,0.07286162628607565,488.256,0.718999981880188,-2.0348734612239525
488.79310300000003,,0.08796901351120145,488.72,0.6359999775886536,-2.216113662063138
489.258621,,0.025469213898511475,489.185,0.6549999713897705,-2.175078286353314
489.724138,,0.0525235025637576,489.652,0.6460000276565552,-2.1949820450969417
490.189655,,0.071858910393096,490.11,0.6439999938011169,-2.199563897061492
490.655172,,0.021034130811157008,490.576,0.6470000147819519,-2.1931744814067136
491.12069,,0.04802421949316136,491.041,0.7080000042915344,-2.0603401517121003
491.586207,,0.07761592001238185,491.509,0.6629999876022339,-2.1583561349276654
492.05172400000004,,0.05494283413060916,491.972,0.656000018119812,-2.173498441944075
492.517241,,0.011437212598739721,492.435,0.6320000290870667,-2.225597990432137
492.982759,,0.014295323037442019,492.905,0.6169999837875366,-2.258017163709498
493.448276,,0.0028313480271663174,493.371,0.6949999928474426,-2.087756713974257
493.913793,,0.041143392025470155,493.834,0.6420000195503235,-2.2028423681446596
494.37931000000003,,0.08669518074432414,494.3,0.6570000052452087,-2.1697348407713295
494.844828,,0.08928744535946219,494.764,0.6539999842643738,-2.1758112408245904
495.310345,,0.032547909414664226,495.23,0.6420000195503235,-2.201477414609204
495.775862,,0.042456921871064826,495.694,0.6710000038146973,-2.1378153580360824
496.241379,,0.06771044951468574,496.16,0.656000018119812,-2.170023831020686
496.70689699999997,,0.016473405049482304,496.62,0.6209999918937683,-2.2458300836179035
497.172414,,0.061676815745422636,497.086,0.6330000162124634,-2.2192790073060356
497.637931,,0.08623787039238928,497.554,0.6449999809265137,-2.1927793121665404
498.103448,,0.03365843006595931,498.016,0.6460000276565552,-2.190305512878613
498.568966,,0.03782263910411245,498.487,0.6449999809265137,-2.1922584158270153
499.03448299999997,,0.06393882132611022,498.949,0.6570000052452087,-2.1659641375524217
499.5,,0.049443483646849556,499.41,0.6060000061988831,-2.2770049069321434
499.96551700000003,,0.04370611730289028,499.879,0.675000011920929,-2.1266899979765936
500.431034,,0.06084446297749321,500.344,0.6330000162124634,-2.218285843194609
500.89655200000004,,0.058437069470645614,500.807,0.6259999871253967,-2.2337070316508965
501.362069,,0.002930183661719077,501.273,0.7080000042915344,-2.0553004362772
501.827586,,0.0688492621388707,501.738,0.6470000147819519,-2.1885034887199346
502.293103,,0.08283093645492569,502.204,0.6570000052452087,-2.1670765587340424
502.758621,,0.0184559023953008,502.668,0.6269999742507935,-2.232840239318542
503.224138,,0.06358531471581137,503.134,0.6830000281333923,-2.1112723092599768
503.68965499999996,,0.09003249535659552,503.598,0.625,-2.2380895506153875
504.15517200000005,,0.04906130023346343,504.063,0.6729999780654907,-2.1339756858012167
504.62068999999997,,0.009191948067378435,504.531,0.6520000100135803,-2.1801803224486775
505.08620699999994,,0.029203354932554323,504.993,0.6389999985694885,-2.2089345308363666
505.55172400000004,,0.0006370422801543314,505.461,0.6759999990463257,-2.12872251525512
506.017241,,0.04839176028469112,505.923,0.6230000257492065,-2.244543436645894
506.48275899999993,,0.0741160742138633,506.387,0.6389999985694885,-2.209983061328641
506.948276,,0.05663286238488837,506.856,0.6600000262260437,-2.164466151663691
507.413793,,0.001478926851009119,507.315,0.6499999761581421,-2.1864167816608875
507.87931,,0.05614721715617873,507.787,0.6539999842643738,-2.177790757584331
508.344828,,0.0685214478387916,508.245,0.6959999799728394,-2.086297553530681
508.810345,,0.020878688415242458,508.71,0.6959999799728394,-2.0862274224910218
509.27586199999996,,0.04344947889609506,509.175,0.6349999904632568,-2.2189774664137527
509.74137900000005,,0.06009402165799521,509.642,0.6729999780654907,-2.1359702020769973
510.20689699999997,,0.008849121832651704,510.108,0.7279999852180481,-2.0158603071419376
510.67241399999995,,0.062212808036250865,510.576,0.6420000195503235,-2.2028819742846544
511.13793100000004,,0.08410822902130548,511.041,0.6579999923706055,-2.1676360480657926
511.603448,,0.041593597117997254,511.502,0.6869999766349792,-2.1040344590215807
512.0689659999999,,0.012878093669377241,511.972,0.6579999923706055,-2.166773179918606
512.534483,,0.02775453565369555,512.435,0.625,-2.238219736589376
513.0,,0.012663213058175811,512.897,0.6499999761581421,-2.1833126849077953
513.465517,,0.010872449505680573,513.363,0.6819999814033508,-2.1131751708840936
513.931034,,0.028562971853410037,513.827,0.6629999876022339,-2.154179983396331
514.396552,,0.021646281023464057,514.293,0.6539999842643738,-2.1734412118066766
514.862069,,0.039093079065053195,514.757,0.6700000166893005,-2.1382894653258404
515.327586,,0.11205990064534116,515.223,0.6579999923706055,-2.1642015552712506
515.793103,,0.12265199914683733,515.688,0.6809999942779541,-2.113928648054907
516.258621,,0.053653649024343664,516.153,0.5789999961853027,-2.336060433693677
516.724138,,0.03151523578907431,516.62,0.6539999842643738,-2.172649095707141
517.189655,,0.06041914514649684,517.085,0.6460000276565552,-2.1901423724779447
517.655172,,0.023414958215102262,517.546,0.6600000262260437,-2.159778438195374
518.1206900000001,,0.02935669476774091,518.016,0.6850000023841858,-2.105516864780242
518.5862070000001,,0.04414368676855775,518.476,0.6859999895095825,-2.103602449923955
519.051724,,0.009940192914149567,518.946,0.6570000052452087,-2.1670987766400374
519.517241,,0.04250237276953044,519.409,0.6830000281333923,-2.110811561797729
519.982759,,0.07423523583887465,519.872,0.7480000257492065,-1.9695867532191025
520.448276,,0.06383811872976261,520.337,0.6460000276565552,-2.1922134357020924
520.9137929999999,,0.016265355735375978,520.801,0.625,-2.2383777585600506
521.37931,,0.03351263176472536,521.266,0.6169999837875366,-2.256218574372494
521.844828,,0.038222169643347494,521.731,0.6230000257492065,-2.2435457025666277
522.310345,,0.01567506984111562,522.196,0.6589999794960022,-2.1654886669392583
522.7758620000001,,0.08348217052626902,522.661,0.6439999938011169,-2.1985056264961016
523.241379,,0.10065215559295719,523.127,0.7080000042915344,-2.059361206158992
523.7068969999999,,0.0485606276302351,523.594,0.6460000276565552,-2.194669188361179
524.172414,,0.0224863925231658,524.06,0.6909999847412109,-2.0967982107163117
524.637931,,0.04266095882553305,524.52,0.6700000166893005,-2.142649559027266
525.103448,,0.0017396851651793124,524.99,0.6729999780654907,-2.136142491928263
525.568966,,0.05541895423515647,525.453,0.6669999957084656,-2.1491721808206603
526.034483,,0.06478938466076858,525.916,0.6890000104904175,-2.1011302396539175
526.5,,0.03968936971465478,526.387,0.6790000200271606,-2.122738920254078
526.9655170000001,,0.025856751180151568,526.849,0.6579999923706055,-2.1682527950446326
527.4310340000001,,0.032820958817204524,527.315,0.6190000176429749,-2.2529314505564497
527.8965519999999,,0.018416530226438316,527.78,0.6990000009536743,-2.078309460344522
528.362069,,0.04761174270392773,528.246,0.7369999885559082,-1.9951563618823083
528.827586,,0.12627623116843287,528.705,0.6800000071525574,-2.118949727835827
529.293103,,0.14374615832215298,529.171,0.7049999833106995,-2.0640815901269307
529.7586210000001,,0.08069503434232249,529.636,0.6949999928474426,-2.0854662494480682
530.224138,,0.0014755636407099708,530.102,0.6579999923706055,-2.165687354527497
530.689655,,0.029673802527592857,530.576,0.6570000052452087,-2.167503248364117
531.155172,,0.007369609420932599,531.034,0.6299999952316284,-2.2260023146427015
531.62069,,0.05917485900318836,531.502,0.675000011920929,-2.1276865406987935
532.086207,,0.0705706105516258,531.964,0.7459999918937683,-1.9727793877668938
532.5517239999999,,0.031380559306994155,532.427,0.6949999928474426,-2.083724585864013
533.017241,,0.024450386922560154,532.89,0.6819999814033508,-2.111943780658513
533.482759,,0.05615322003363657,533.356,0.7409999966621399,-1.9833659278699116
533.9482760000001,,0.043719264124474196,533.826,0.675000011920929,-2.1271850927611515
534.413793,,0.006215157996850606,534.291,0.7699999809265137,-1.920306202120614
534.87931,,0.05940419127994767,534.757,0.6990000009536743,-2.0751434233163217
535.344828,,0.069075859966265,535.215,0.6869999766349792,-2.101497354097205
535.810345,,0.01847126366609437,535.68,0.6790000200271606,-2.119189121235448
536.275862,,0.05138494990604865,536.146,0.7120000123977661,-2.0476010534135116
536.7413789999999,,0.07335404546054895,536.612,0.7419999837875366,-1.9825828761429427
537.206897,,0.021654951074662077,537.078,0.6240000128746033,-2.240028940088976
537.672414,,0.054463751837015614,537.546,0.6830000281333923,-2.1118703759757547
538.137931,,0.07641354991738096,538.009,0.746999979019165,-1.9728224742830867
538.6034480000001,,0.023048329816758275,538.472,0.6869999766349792,-2.103916956102131
539.0689659999999,,0.046304872616963734,538.935,0.7239999771118164,-2.0236617260095864
539.5344829999999,,0.06852072042497814,539.402,0.6919999718666077,-2.0937025084893235
540.0,,0.05041206600617596,539.872,0.7329999804496765,-2.0046613489631233
540.465517,,0.04206614084645118,540.33,0.722000002861023,-2.0288604508351415
540.931034,,0.056545061536388073,540.801,0.722000002861023,-2.0290379298184846
541.396552,,0.05037759599349836,541.267,0.7239999771118164,-2.024796826943468
541.862069,,0.009521496389673728,541.731,0.8009999990463257,-1.8570909585239395
542.327586,,0.08486103152577243,542.197,0.7279999852180481,-2.016113950581076
542.7931030000001,,0.10068342258586752,542.662,0.6909999847412109,-2.0966399738640322
543.258621,,0.03675173569618105,543.12,0.7120000123977661,-2.0507440995066024
543.7241379999999,,0.04553501196306831,543.587,0.7839999794960022,-1.8936803939931222
544.189655,,0.07283795105173416,544.053,0.7179999947547913,-2.0372179027917614
544.655172,,0.03378466404314972,544.516,0.7570000290870667,-1.9519533046896689
545.12069,,0.021457267389399067,544.986,0.7409999966621399,-1.9864800190249277
545.5862070000001,,0.03819404406726439,545.45,0.7570000290870667,-1.951265123629577
546.051724,,0.005917599283263906,545.912,0.718999981880188,-2.0336841603243316
546.517241,,0.042837867279234346,546.38,0.7689999938011169,-1.9243801463301797
546.982759,,0.06829939596789296,546.843,0.6970000267028809,-2.0808810002677993
547.448276,,0.05018791952028026,547.309,0.7260000109672546,-2.017360243894072
547.9137929999999,,0.004590784266077347,547.775,0.7319999933242798,-2.00398059278121
548.3793099999999,,0.05985198280571714,548.241,0.7390000224113464,-1.9884625393499054
548.844828,,0.06826859132473437,548.701,0.7409999966621399,-1.9838855653269627
549.310345,,0.01665305568733301,549.167,0.7200000286102295,-2.029471573775136
549.775862,,0.05034796764315583,549.632,0.6660000085830688,-2.147013634831607
550.241379,,0.06832610197296689,550.098,0.7739999890327454,-1.911678088849221
550.706897,,0.018072984472337482,550.561,0.7990000247955322,-1.8572310474372624
551.172414,,0.05104318514722215,551.031,0.7059999704360962,-2.0599231954485466
551.637931,,0.06925430701415651,551.494,0.7089999914169312,-2.053523366330606
552.103448,,0.021932503338841194,551.956,0.847000002861023,-1.753058907022221
552.568966,,0.03644474025843075,552.424,0.7889999747276306,-1.8796525517467437
553.034483,,0.05256260827150472,552.887,0.7250000238418579,-2.0193542723997098
553.5,,0.03636264823230856,553.353,0.7120000123977661,-2.0479769538113324
553.965517,,0.03309590546738434,553.815,0.7940000295639038,-1.8696509662236058
554.4310340000001,,0.050259798959140574,554.281,0.6949999928474426,-2.0856730530310417
554.896552,,0.042945159237471574,554.746,0.7089999914169312,-2.05551209817231
555.3620689999999,,0.01989523046953106,555.211,0.6940000057220459,-2.088527878009468
555.827586,,0.09709951674442008,555.675,0.7279999852180481,-2.0147755501094387
556.293103,,0.11228051123513708,556.141,0.7620000243186951,-1.9409975238291468
556.758621,,0.04617133982647112,556.605,0.7329999804496765,-2.0044388598816214
557.224138,,0.03771761636389819,557.071,0.7110000252723694,-2.0525869328080466
557.689655,,0.06510894024108672,557.542,0.7419999837875366,-1.9852186802894163
558.155172,,0.025508945814188375,558.004,0.7170000076293945,-2.039801335305712
558.6206900000001,,0.029636720141863197,558.465,0.7310000061988831,-2.0093601839530177
559.0862070000001,,0.045241686632313434,558.935,0.7900000214576721,-1.880820442300257
559.5517239999999,,0.011237411687161279,559.398,0.7739999890327454,-1.9156181561923407
560.017241,,0.03914102939529691,559.86,0.7070000171661377,-2.061468336591705
560.482759,,0.0654702827180914,560.326,0.7519999742507935,-1.9632572916202364
560.948276,,0.04709530546451549,560.79,0.7260000109672546,-2.0196830095023834
561.413793,,0.008906434562418599,561.255,0.777999997138977,-1.906133033242798
561.87931,,0.06567147885649578,561.72,0.8069999814033508,-1.8426568929725282
562.344828,,0.0751774582168367,562.186,0.7059999704360962,-2.0623790289687007
562.8103450000001,,0.023970708488463402,562.654,0.6959999799728394,-2.0838313144004186
563.275862,,0.043171565494637895,563.119,0.734000027179718,-2.0007074583451057
563.7413789999999,,0.06161626560451691,563.583,0.6949999928474426,-2.0853485473601587
564.206897,,0.01200287414882962,564.049,0.7739999890327454,-1.912926800241843
564.672414,,0.05640785738187609,564.512,0.7760000228881836,-1.9082857054595668
565.137931,,0.07399127831972994,564.975,0.6880000233650208,-2.099756343866534
565.603448,,0.026325753110629388,565.443,0.7480000257492065,-1.968829619034493
566.068966,,0.03192335909299638,565.905,0.699999988079071,-2.073246133394921
566.534483,,0.04741077535034284,566.376,0.6919999718666077,-2.090570936942466
567.0,,0.030334196122061372,566.838,0.7080000042915344,-2.0556659730618154
567.465517,,0.02654834235961492,567.304,0.7820000052452087,-1.8944563809783515
567.931034,,0.044278352835205474,567.768,0.7179999947547913,-2.033954617681185
568.396552,,0.03892316529735789,568.234,0.7409999966621399,-1.9839626525370204
568.862069,,0.021021773354917242,568.699,0.7490000128746033,-1.9666988751472605
569.327586,,0.09534813044860212,569.164,0.7089999914169312,-2.0540534153176253
569.793103,,0.1084968606812182,569.632,0.6809999942779541,-2.1153023849433055
570.2586210000001,,0.041355697876649555,570.09,0.7200000286102295,-2.0306133217944335
570.724138,,0.04323599567500055,570.558,0.7480000257492065,-1.9699108034649089
571.189655,,0.07181602374839564,571.02,0.675000011920929,-2.129263442743533
571.655172,,0.03361214560325844,571.49,0.7279999852180481,-2.014109451030843
572.12069,,0.02152334271257085,571.953,0.6700000166893005,-2.1407793281488385
572.586207,,0.03976042135848081,572.416,0.7160000205039978,-2.0408545272446887
573.051724,,0.010167233526452463,572.886,0.7020000219345093,-2.071624117471925
573.517241,,0.03664703919754716,573.352,0.6589999794960022,-2.165542335410695
573.982759,,0.06244689984337889,573.814,0.7369999885559082,-1.9958048098363403
574.4482760000001,,0.04649014164732238,574.28,0.7099999785423279,-2.054778829850506
574.913793,,0.006482919943625031,574.746,0.7089999914169312,-2.0570563150309935
575.37931,,0.0622737223946113,575.211,0.7210000157356262,-2.0309571774512576
575.844828,,0.07330574928893209,575.676,0.734000027179718,-2.0026234237314515
576.310345,,0.02379228391340195,576.135,0.7739999890327454,-1.9154094079028405
576.775862,,0.04354437258722933,576.602,0.6639999747276306,-2.1549386471597485
577.241379,,0.06230377310810364,577.068,0.7200000286102295,-2.0327643742999415
577.706897,,0.009343411947484698,577.531,0.7059999704360962,-2.063054051169278
578.172414,,0.06543834332596977,578.001,0.6830000281333923,-2.112916359504202
578.6379310000001,,0.08590737858775117,578.461,0.671999990940094,-2.1366093558383823
579.1034480000001,,0.03311477033920998,578.93,0.6859999895095825,-2.1058194996461514
579.5689659999999,,0.03430099238372187,579.391,0.6859999895095825,-2.105522866860177
580.034483,,0.05530958418269469,579.861,0.6940000057220459,-2.087797860639761
580.5,,0.03765967347991798,580.32,0.6949999928474426,-2.085333005527064
580.965517,,0.030810616534969932,580.787,0.6930000185966492,-2.0894220332905333
581.431034,,0.04644659832008345,581.252,0.6499999761581421,-2.1828627013538764
581.896552,,0.0397223000746681,581.716,0.6959999799728394,-2.0824382188998682
582.362069,,0.022496033706086414,582.181,0.675000011920929,-2.128023286307339
582.827586,,0.099672482928522,582.646,0.6629999876022339,-2.1540454863885508
583.2931030000001,,0.11410703804760476,583.112,0.7170000076293945,-2.036324573513043
583.758621,,0.045616910302437676,583.576,0.6880000233650208,-2.099479776754357
584.2241379999999,,0.04127788497251826,584.042,0.6449999809265137,-2.1931854617575413
584.689655,,0.07056572674846577,584.505,0.6790000200271606,-2.1191844166852976
585.155172,,0.03142743873478989,584.975,0.6729999780654907,-2.1323757262844363
585.6206900000001,,0.023427005604066558,585.435,0.6919999718666077,-2.0911418852805954
586.0862070000001,,0.03808883984491679,585.905,0.6620000004768372,-2.156697403642899
586.551724,,0.00348468579862292,586.376,0.7289999723434448,-2.0109526851713144
587.017241,,0.045930233620759056,586.831,0.7559999823570251,-1.9523727256072874
587.482759,,0.07082004249834117,587.297,0.6520000100135803,-2.1792066398621057
587.948276,,0.05313687151091585,587.765,0.6480000019073486,-2.1881821952254943
588.4137929999999,,0.00019052378645293124,588.231,0.6890000104904175,-2.099118383178405
588.87931,,0.05458379567092802,588.691,0.6449999809265137,-2.195231221587089
589.344828,,0.06613209220519468,589.156,0.5809999704360962,-2.3349029190872193
589.810345,,0.019344354988922403,589.621,0.6579999923706055,-2.1673655856214986
590.2758620000001,,0.04555363315718413,590.086,0.6650000214576721,-2.1523058860008804
590.741379,,0.06600705197255614,590.557,0.675000011920929,-2.130674913440634
591.2068969999999,,0.0200966406331193,591.019,0.675000011920929,-2.130789899434431
591.672414,,0.046855122267786015,591.487,0.6729999780654907,-2.135218290821454
592.137931,,0.06611976355336786,591.949,0.6330000162124634,-2.222390144339997
592.603448,,0.020567762051273777,592.413,0.6700000166893005,-2.1417613689284347
593.068966,,0.03792897747488801,592.875,0.6830000281333923,-2.113375402816219
593.534483,,0.05569932961484037,593.341,0.675000011920929,-2.1306975779169424
594.0,,0.04012845636916309,593.811,0.6420000195503235,-2.20244663077983
594.4655170000001,,0.03490877522367185,594.27,0.6919999718666077,-2.0933338441668097
594.9310340000001,,0.04866104273150592,594.735,0.6579999923706055,-2.1671985539993974
595.3965519999999,,0.03892782571031956,595.201,0.6980000138282776,-2.079820583617189
595.862069,,0.02400541035578288,595.665,0.6909999847412109,-2.0948232247798275
596.327586,,0.09982847539258029,596.131,0.6470000147819519,-2.1904279252182715
596.793103,,0.11405329950828746,596.598,0.7360000014305115,-1.9962727196636394
597.2586210000001,,0.048109880657263286,597.064,0.6949999928474426,-2.0853485542638337
597.724138,,0.03593882949516992,597.527,0.6660000085830688,-2.148295459639881
598.189655,,0.06558328208032517,597.99,0.6449999809265137,-2.1938378188823373
598.655172,,0.02982737340612454,598.461,0.6660000085830688,-2.1479088522174092
599.12069,,0.022534064074409502,598.923,0.6620000004768372,-2.1564834293942208
599.586207,,0.03836157428125137,599.387,0.7039999961853027,-2.0648805941033492
600.0517239999999,,0.00688604244581966,599.856,0.6660000085830688,-2.1476122861619533
600.517241,,0.040973383105437314,600.315,0.6600000262260437,-2.160672165393232
600.982759,,0.06656452073719925,600.78,0.640999972820282,-2.20210107019359
601.448276,,0.04946321805175547,601.246,0.7289999723434448,-2.0104586602011936
601.913793,,0.00424434302000607,601.713,0.6629999876022339,-2.1543680180005973
602.37931,,0.05889818929769571,602.178,0.6600000262260437,-2.161059153000042
602.844828,,0.06679994414756428,602.642,0.6460000276565552,-2.19174874357065
603.310345,,0.013933985061822451,603.108,0.6959999799728394,-2.0830316018422756
603.775862,,0.05504819628980461,603.576,0.640999972820282,-2.2030916649332144
604.2413789999999,,0.07441322920156583,604.042,0.6579999923706055,-2.1663012576289313
604.706897,,0.023582849489677433,604.505,0.6460000276565552,-2.192696614810381
605.172414,,0.04791928621898332,604.967,0.722000002861023,-2.02736651143477
605.637931,,0.06873773854979962,605.435,0.7020000219345093,-2.0711719761325504
606.1034480000001,,0.022804043166229387,605.897,0.6869999766349792,-2.104061881614081
606.5689659999999,,0.03546351776934585,606.363,0.6660000085830688,-2.1499958137292823
607.0344829999999,,0.05165618085676668,606.827,0.6949999928474426,-2.086964590376372
607.5,,0.03466055568027077,607.293,0.6370000243186951,-2.213438815584448
607.965517,,0.029652048180968404,607.757,0.6290000081062317,-2.230942200714494
608.431034,,0.044875481191627486,608.223,0.6499999761581421,-2.1852251716669175
608.896552,,0.03597517745064549,608.691,0.6449999809265137,-2.1961118493517975
609.362069,,0.028355130625181284,609.156,0.6600000262260437,-2.163384195659073
609.827586,,0.10739397895768484,609.621,0.6700000166893005,-2.1415095850402333
610.293103,,0.12436113212997593,610.087,0.6579999923706055,-2.1675273827755763
610.758621,,0.05887026977588395,610.55,0.6449999809265137,-2.195690433134055
611.2241379999999,,0.026228496860739477,611.012,0.6359999775886536,-2.2151114428318737
611.689655,,0.05611489931603056,611.48,0.6290000081062317,-2.2301542456839947
612.155172,,0.019090333365026583,611.942,0.6970000267028809,-2.081783179528179
612.62069,,0.03424709696171346,612.405,0.6460000276565552,-2.192661664559091
613.0862070000001,,0.04894099975184554,612.875,0.6710000038146973,-2.137960506262903
613.551724,,0.014619906508324175,613.341,0.6159999966621399,-2.2575572420643177
614.017241,,0.03602882976168561,613.804,0.6309999823570251,-2.224662934622221
614.4827590000001,,0.06327225405762717,614.27,0.6480000019073486,-2.1874323723920805
614.948276,,0.04668863129720698,614.735,0.6449999809265137,-2.193801002035954
615.4137929999999,,0.007414543091979027,615.201,0.6330000162124634,-2.2198085024489087
615.8793099999999,,0.06303920943449165,615.665,0.6309999823570251,-2.224065367551697
616.344828,,0.07130639803285226,616.131,0.6230000257492065,-2.2414329808325744
616.810345,,0.01656340022785408,616.59,0.6620000004768372,-2.156444469266523
617.275862,,0.05605117031639861,617.056,0.6190000176429749,-2.2501451753761983
617.741379,,0.07629237632864308,617.524,0.628000020980835,-2.2305960250163226
618.206897,,0.018858819852746116,617.986,0.6290000081062317,-2.2285142686201858
618.672414,,0.06408920582965638,618.45,0.6349999904632568,-2.215573768281095
619.137931,,0.09100007772905987,618.92,0.609000027179718,-2.2723802378892914
619.603448,,0.03904034739866388,619.383,0.6190000176429749,-2.2507810653940714
620.068966,,0.03248430744158869,619.846,0.6190000176429749,-2.2509879540368822
620.534483,,0.0590330707241198,620.312,0.6830000281333923,-2.1117727230601973
621.0,,0.045595729167503075,620.779,0.6359999775886536,-2.21439057992956
621.465517,,0.04100491690764395,621.245,0.6150000095367432,-2.260360182768645
621.9310340000001,,0.05746742779959783,621.71,0.6439999938011169,-2.197388502976597
622.396552,,0.05069987120986493,622.175,0.6399999856948853,-2.2062961740444105
622.862069,,0.01219466611878055,622.642,0.675000011920929,-2.1302134033549267
623.327586,,0.09079709342449196,623.1,0.6449999809265137,-2.1957141136892178
623.793103,,0.107542515531738,623.572,0.6169999837875366,-2.2568254841358244
624.258621,,0.041658959853815916,624.031,0.640999972820282,-2.204613274169662
624.724138,,0.0437713111212279,624.498,0.6309999823570251,-2.226439104477921
625.189655,,0.0735855699955997,624.96,0.6069999933242798,-2.278729598212973
625.655172,,0.035550710981695925,625.431,0.6480000019073486,-2.189372119861674
626.1206900000001,,0.020339038204224943,625.894,0.6209999918937683,-2.2481278975390597
626.5862070000001,,0.0384087308713255,626.359,0.6269999742507935,-2.2349559591880377
627.0517239999999,,0.005436076012782593,626.822,0.6579999923706055,-2.167288575237335
627.5172409999999,,0.04814417439341625,627.288,0.5950000286102295,-2.3043892942335513
627.982759,,0.07959004793511401,627.753,0.625,-2.2388571809397035
628.448276,,0.060551829811014486,628.218,0.6299999952316284,-2.227778189298205
628.913793,,0.0068913311459472175,628.683,0.6230000257492065,-2.242835131238535
629.37931,,0.07946827926083837,629.149,0.6100000143051147,-2.2709627508319343
629.844828,,0.09517575308136632,629.617,0.6290000081062317,-2.2293785505045665
630.3103450000001,,0.0341823354825057,630.082,0.6449999809265137,-2.1943403144156104
630.7758620000001,,0.0492619747627524,630.542,0.6140000224113464,-2.261713433536758
631.2413789999999,,0.07449779798607718,631.005,0.6579999923706055,-2.1657079224485507
631.706897,,0.015348957553839465,631.476,0.6140000224113464,-2.261447296574886
632.172414,,0.07065981345543369,631.938,0.6299999952316284,-2.2264956976936645
632.637931,,0.09892430180970099,632.402,0.5879999995231628,-2.317937103579569
633.103448,,0.047316654962499656,632.871,0.6060000061988831,-2.278693426278111
633.568966,,0.02413411237158649,633.33,0.6010000109672546,-2.2895931731911303
634.034483,,0.050987013543784876,633.801,0.6330000162124634,-2.2199159140274785
634.5,,0.03689974566183681,634.266,0.6119999885559082,-2.2657376720349705
634.9655170000001,,0.0288291063270073,634.731,0.6190000176429749,-2.250585014901694
635.431034,,0.041257993830685596,635.197,0.640999972820282,-2.2027768473418625
635.8965519999999,,0.03660893306215174,635.657,0.6079999804496765,-2.2748137711764316
636.362069,,0.015118053847108752,636.123,0.6119999885559082,-2.266256153398177
636.827586,,0.08087277994256113,636.587,0.6179999709129333,-2.253351951554687
637.293103,,0.09409240848282875,637.053,0.6230000257492065,-2.242631063748921
637.7586210000001,,0.0361520869933834,637.516,0.6669999957084656,-2.1469412337684
638.224138,,0.038033160179917355,637.986,0.6449999809265137,-2.1950337562187907
638.689655,,0.06149936141283022,638.446,0.6209999918937683,-2.2474705960004355
639.155172,,0.023217490668442437,638.916,0.6290000081062317,-2.2301745170618394
639.62069,,0.030017899853694987,639.376,0.6259999871253967,-2.236823973731599
640.086207,,0.04622862795370969,639.846,0.6620000004768372,-2.158482574215199
640.551724,,0.016019017780022588,640.311,0.6620000004768372,-2.1585455825931135
641.017241,,0.02906048804828516,640.775,0.6299999952316284,-2.228297014708233
641.482759,,0.05446500644567776,641.242,0.6299999952316284,-2.228304170587172
641.9482760000001,,0.046825337598720124,641.701,0.6449999809265137,-2.19560501738963
642.413793,,0.011641523074470734,642.167,0.6230000257492065,-2.243490405312236
642.87931,,0.02880994997665882,642.635,0.6320000290870667,-2.223814947148732
643.344828,,0.04056890805679932,643.1,0.6140000224113464,-2.2629434652663596
643.810345,,0.007332505141795239,643.564,0.6370000243186951,-2.2127311918782127
644.275862,,0.0427223992867403,644.027,0.6190000176429749,-2.251830955223949
644.7413789999999,,0.0575994806973864,644.494,0.6790000200271606,-2.120986594026508
645.206897,,0.016615893924754037,644.957,0.6100000143051147,-2.2711821248596022
645.672414,,0.04170607932937234,645.42,0.6330000162124634,-2.220941347139816
646.1379310000001,,0.057629031148219184,645.89,0.5789999961853027,-2.3384616568984526
646.6034480000001,,0.017826380332062484,646.355,0.6520000100135803,-2.1793025520067717
647.0689659999999,,0.030771833297503392,646.818,0.6159999966621399,-2.2576277169024896
647.534483,,0.04233772677660295,647.284,0.6359999775886536,-2.213962467628307
648.0,,0.02598125312301495,647.75,0.6579999923706055,-2.165955621193094
648.465517,,0.021320226561439132,648.216,0.6169999837875366,-2.255220827536843
648.931034,,0.03623097660337961,648.68,0.6660000085830688,-2.148426003743912
649.396552,,0.034080532862514654,649.146,0.6370000243186951,-2.2115843482854176
649.862069,,0.012254645118372322,649.605,0.6359999775886536,-2.213759324510634
650.327586,,0.07210390797493268,650.07,0.671999990940094,-2.1353421434943916
650.7931030000001,,0.08507136029015262,650.538,0.6309999823570251,-2.224697332055172
651.258621,,0.03483334470153684,651.001,0.6269999742507935,-2.2334582234226823
651.7241379999999,,0.029135173863067257,651.47,0.6460000276565552,-2.192124373282389
652.189655,,0.04876117864374555,651.931,0.6439999938011169,-2.1965537351367734
652.655172,,0.01729092613543092,652.402,0.6330000162124634,-2.220599532885615
653.12069,,0.02350249513120841,652.864,0.6309999823570251,-2.2250440508493754
653.5862070000001,,0.03209640687335403,653.33,0.6449999809265137,-2.194633712755167
654.051724,,0.004724095460857238,653.793,0.6800000071525574,-2.118471282926969
654.517241,,0.03179764825364001,654.259,0.6399999856948853,-2.2057037236076464
654.982759,,0.05175572231638121,654.723,0.625,-2.2384646249875213
655.448276,,0.044833599211787284,655.188,0.6539999842643738,-2.1753584206811394
655.9137929999999,,0.012137159796297207,655.653,0.6499999761581421,-2.184138446304491
656.37931,,0.02943717588830766,656.119,0.6430000066757202,-2.199443429264553
656.844828,,0.04615903096266242,656.583,0.5419999957084656,-2.4195318000872166
657.310345,,0.017040690633830125,657.049,0.6890000104904175,-2.0993057862427142
657.7758620000001,,0.03314077739101547,657.516,0.6439999938011169,-2.1973679080112825
658.241379,,0.04933890849318061,657.979,0.6449999809265137,-2.195198378876773
658.7068969999999,,0.005001808755904464,658.442,0.6079999804496765,-2.2758055490777327
659.172414,,0.060937406486457686,658.905,0.6499999761581421,-2.184288743107028
659.637931,,0.08087380972784806,659.376,0.7049999833106995,-2.0644378043436236
660.103448,,0.03621566623610245,659.838,0.6230000257492065,-2.2430500188297677
660.568966,,0.021878653597303337,660.304,0.6690000295639038,-2.1427862869743732
661.034483,,0.039910590470223314,660.772,0.6389999985694885,-2.208093249927547
661.5,,0.024751468813676725,661.23,0.6269999742507935,-2.2341802330149463
661.965517,,0.019065989337268757,661.695,0.6420000195503235,-2.2014419690372167
662.4310340000001,,0.03366480730424671,662.16,0.6549999713897705,-2.173060963073048
662.8965519999999,,0.032631867272564806,662.627,0.628000020980835,-2.231826996094503
663.362069,,0.011598402696563107,663.093,0.6499999761581421,-2.1838426956874684
663.827586,,0.06940457024760746,663.561,0.6700000166893005,-2.1402195096867245
664.293103,,0.08173508975665683,664.024,0.6420000195503235,-2.2011761429383876
664.7586210000001,,0.03271267301578687,664.487,0.6119999885559082,-2.2664969580514747
665.224138,,0.02925040823328663,664.95,0.6489999890327454,-2.185856676991803
665.689655,,0.0475528153206433,665.42,0.6290000081062317,-2.229407736769135
666.155172,,0.015885514569226208,665.883,0.7080000042915344,-2.057279555318029
666.62069,,0.024657462779961156,666.349,0.7480000257492065,-1.9701221101968358
667.086207,,0.03327572273123144,666.811,0.6330000162124634,-2.220657831565938
667.5517239999999,,0.006256274009389923,667.277,0.6449999809265137,-2.194510840288925
668.017241,,0.02958170253047588,667.743,0.6869999766349792,-2.103010694914112
668.482759,,0.047753792931591384,668.209,0.6320000290870667,-2.2228446742683587
668.948276,,0.037286447575082135,668.676,0.6629999876022339,-2.1553205511061937
669.413793,,0.0007982551772170276,669.142,0.6299999952316284,-2.2272353448099897
669.87931,,0.04127319278595957,669.606,0.6589999794960022,-2.1640788677149962
670.3448279999999,,0.053549253423808445,670.072,0.6539999842643738,-2.175000225438503
670.810345,,0.01840766255704367,670.534,0.6399999856948853,-2.205532339909569
671.275862,,0.0347248933140533,670.997,0.628000020980835,-2.231709997062928
671.7413789999999,,0.05196206970922656,671.465,0.6499999761581421,-2.1838160833134688
672.206897,,0.012705388001906497,671.927,0.6320000290870667,-2.2230690589361837
672.672414,,0.04340805546953384,672.391,0.6610000133514404,-2.159925577308077
673.137931,,0.05694246354057122,672.861,0.656000018119812,-2.1708544629151043
673.6034480000001,,0.015721725965569904,673.327,0.640999972820282,-2.2035673862631873
674.068966,,0.033715209413608005,673.79,0.6579999923706055,-2.166560449342267
674.5344829999999,,0.04687996256918808,674.255,0.6949999928474426,-2.0859759705298035
675.0,,0.03226492266815999,674.72,0.6620000004768372,-2.157890808514623
675.465517,,0.02715423296835558,675.186,0.6600000262260437,-2.1622617559924926
675.931034,,0.03917929668067364,675.646,0.6949999928474426,-2.086017138546451
676.396552,,0.034823660513738,676.112,0.6399999856948853,-2.205845184039737
676.862069,,0.010540258177885039,676.576,0.6190000176429749,-2.251595533982038
677.327586,,0.06805989999917286,677.042,0.6620000004768372,-2.1579103421289902
677.793103,,0.0812996560951306,677.505,0.6660000085830688,-2.14918942307042
678.2586210000001,,0.03490954003909194,677.975,0.6710000038146973,-2.1382862554571522
678.7241379999999,,0.02471690204440461,678.438,0.6869999766349792,-2.1034142798697113
679.1896549999999,,0.0426759676176121,678.901,0.6499999761581421,-2.184007489154631
679.655172,,0.012051234465367999,679.367,0.6700000166893005,-2.1404157494667
680.12069,,0.02793185338284569,679.832,0.6460000276565552,-2.192683775691952
680.5862070000001,,0.03746763392528413,680.298,0.6809999942779541,-2.1164111433110286
681.051724,,0.012306206919112049,680.764,0.628000020980835,-2.2318596799597428
681.517241,,0.022006680413131217,681.23,0.7099999785423279,-2.0531910913735842
681.9827590000001,,0.04043716784815673,681.694,0.6449999809265137,-2.194783694574179
682.448276,,0.03343328420959485,682.16,0.7080000042915344,-2.057509038340304
682.9137929999999,,0.0034542212992790216,682.625,0.6990000009536743,-2.077096416571918
683.3793099999999,,0.03280809174150057,683.09,0.6449999809265137,-2.1947228118025364
683.844828,,0.04530500360112711,683.553,0.6449999809265137,-2.1947044572361327
