Trial: ,7
Threshold: ,0.0
Maximum EMG: ,0.1570794472711401
Success: ,True

EMG Time,Raw EMG,Filtered EMG,Force Time,Raw Force (V),Filtered Force (N)
0.0,samples,3.1133355239581637e-07,0.464,0.5239999890327454,-2.4575056358812004
0.46551699999999996,time,3.153776676601667e-07,0.932,0.531000018119812,-2.442437110221218
0.9310339999999999,value,3.1847237360392713e-07,1.394,0.5210000276565552,-2.464427962781295
1.396552,,3.2056563742184297e-07,1.862,0.527999997138977,-2.4493981717657456
1.862069,,3.2160674846410316e-07,2.324,0.5389999747276306,-2.4256631549870074
2.327586,,3.2154655607924567e-07,2.79,0.5090000033378601,-2.491255098568022
2.793103,,3.2033771216879597e-07,3.261,0.531000018119812,-2.4435532051305624
3.258621,,3.179349177926175e-07,3.719,0.527999997138977,-2.450306320943403
3.724138,,3.1429517312096675e-07,4.184,0.5260000228881836,-2.454862438654982
4.189654999999999,,3.093780299869125e-07,4.649,0.5299999713897705,-2.4463224746258394
4.655172,,3.03145846251279e-07,5.121,0.5249999761581421,-2.457360404763586
5.12069,,2.955640411517874e-07,5.579,0.5320000052452087,-2.4422200745610687
5.586207,,2.86601350768788e-07,6.047,0.628000020980835,-2.2331400729066186
6.051723999999999,,2.7623008270209276e-07,6.512,0.5170000195503235,-2.474996658174045
6.517241,,2.6442636901711854e-07,6.98,0.5299999713897705,-2.4466582552618132
6.982759,,2.511704164840514e-07,7.442,0.5180000066757202,-2.4727456098197895
7.448276,,2.3644675310122356e-07,7.91,0.5189999938011169,-2.470472215999868
7.913793000000001,,2.20244469863573e-07,8.372,0.515999972820282,-2.476878103189365
8.379309999999998,,2.0255745670912338e-07,8.84,0.5320000052452087,-2.441857882697499
8.844828000000001,,1.8338463155108976e-07,9.302,0.5260000228881836,-2.4547407184178494
9.310345,,1.627301612806814e-07,9.768,0.5210000276565552,-2.4654233429352503
9.775862,,1.4060367360614026e-07,10.232,0.5299999713897705,-2.4455898576046198
10.241379,,1.1702045857722018e-07,10.697,0.5419999957084656,-2.419211394461431
10.706897,,9.200165863137485e-08,11.162,0.527999997138977,-2.449475702888063
11.172414,,6.557444598857479e-08,11.628,0.5239999890327454,-2.4579588998242077
11.637931,,3.77721862161025e-08,12.092,0.5370000004768372,-2.4294175480089737
12.103447999999998,,8.634586783064905e-09,12.558,0.5540000200271606,-2.3921800237504294
12.568966000000001,,2.179217057311091e-08,13.025,0.5199999809265137,-2.4660780554245303
13.034483,,5.3455314839099166e-08,13.49,0.5540000200271606,-2.3918578270592428
13.5,,8.62953892366124e-08,13.954,0.527999997138977,-2.4483911428425547
13.965517,,1.2024617439552915e-07,14.416,0.5299999713897705,-2.4439605736791075
14.431034,,1.5523463231220053e-07,14.88,0.5419999957084656,-2.417784270137941
14.896552,,1.9118087219034044e-07,15.35,0.5400000214576721,-2.422150635302208
15.362069,,2.2799813923130525e-07,15.816,0.5370000004768372,-2.4287371599556447
15.827586000000002,,2.6559282740484503e-07,16.274,0.5419999957084656,-2.4179345973241744
16.293103,,3.03864517190468e-07,16.74,0.5239999890327454,-2.4572787843663004
16.758621,,3.427060392333217e-07,17.207,0.5170000195503235,-2.4726925821927255
17.224138,,3.820035648068952e-07,17.673,0.527999997138977,-2.4489212535800347
17.689655,,4.2163672391783837e-07,18.139,0.546999990940094,-2.4077447490754866
18.155172,,4.6147875182574653e-07,18.605,0.5199999809265137,-2.4668032362489885
18.62069,,5.013966646828612e-07,19.07,0.5210000276565552,-2.4648701015323713
19.086207,,5.412514649252929e-07,19.535,0.5519999861717224,-2.397580805047335
19.551724,,5.808983769686099e-07,19.998,0.531000018119812,-2.4435758625526214
20.017241000000002,,6.201871136765023e-07,20.461,0.5210000276565552,-2.4655935237648157
20.482758999999998,,6.589621739817932e-07,20.928,0.5170000195503235,-2.474520756289177
20.948276,,6.97063171944414e-07,21.391,0.5210000276565552,-2.465993850067776
21.413793000000002,,7.343251974312065e-07,21.854,0.5410000085830688,-2.42257735631833
21.87931,,7.705792084976926e-07,22.324,0.5429999828338623,-2.4183394544509804
22.344828,,8.056524554424205e-07,22.79,0.550000011920929,-2.4031666287537043
22.810344999999998,,8.393689363903415e-07,23.253,0.5090000033378601,-2.4925253667703484
23.275862,,8.71549884143095e-07,23.719,0.5239999890327454,-2.4598359457953083
23.741379,,9.020142839113201e-07,24.184,0.5249999761581421,-2.457604047040819
24.206897,,9.305794214174173e-07,24.649,0.5419999957084656,-2.4204708642593658
24.672414,,9.570614607268488e-07,25.113,0.5170000195503235,-2.4748006137269636
25.137931,,9.812760510323813e-07,25.579,0.515999972820282,-2.476807178955251
25.603448,,1.0030389614789852e-06,26.044,0.5210000276565552,-2.465711316331541
26.068966,,1.022166742977764e-06,26.509,0.5170000195503235,-2.474198991526582
26.534483,,1.0384774158156766e-06,26.972,0.5220000147819519,-2.4630610561068753
27.0,,1.0517911817243437e-06,27.434,0.546999990940094,-2.408339120377435
27.465517,,1.0619311589263175e-06,27.903,0.5299999713897705,-2.4451163395361224
27.931034,,1.0687241385313126e-06,28.366,0.5339999794960022,-2.436145710857517
28.396552,,1.0720013605085172e-06,28.836,0.5249999761581421,-2.455509538300954
28.862069,,1.0715993073147153e-06,29.298,0.5180000066757202,-2.470535878923053
29.327586,,1.067360513112092e-06,29.764,0.515999972820282,-2.4746964071089197
29.793103000000002,,1.059134386364799e-06,30.229,0.550000011920929,-2.400458406429282
30.258620999999998,,1.046778043460187e-06,30.694,0.515999972820282,-2.4744062992746327
30.724138,,1.0301571508596545e-06,31.155,0.5320000052452087,-2.4394635587564917
31.189655000000002,,1.0091467731459e-06,31.62,0.5260000228881836,-2.452496094198217
31.655172000000004,,9.836322241986311e-07,32.088,0.5730000138282776,-2.350105765146483
32.12069,,9.53509918600086e-07,32.553,0.503000020980835,-2.50266264487923
32.586207,,9.186882202457287e-07,33.014,0.5180000066757202,-2.470079917029367
33.051724,,8.790882850148029e-07,33.484,0.5540000200271606,-2.391788491600531
33.517241000000006,,8.346448942407693e-07,33.947,0.5329999923706055,-2.437717981451663
33.982759,,7.853072756136496e-07,34.409,0.5210000276565552,-2.4640725467503124
34.448276,,7.310399080456397e-07,34.877,0.5149999856948853,-2.4773832645182243
34.913793,,6.718233069387109e-07,35.339,0.5170000195503235,-2.4732858773289097
35.37931,,6.076547862089654e-07,35.805,0.5210000276565552,-2.4648447017966895
35.844828,,5.385491933479253e-07,36.275,0.5490000247955322,-2.404120457712812
36.310345,,4.645396137363876e-07,36.74,0.5329999923706055,-2.4392520559680224
36.775862,,3.8567804037262714e-07,37.2,0.5320000052452087,-2.441690770405933
37.241378999999995,,3.0203600513423824e-07,37.665,0.527999997138977,-2.4506448461781476
37.706897000000005,,2.1370516766240562e-07,38.132,0.5170000195503235,-2.47482172118007
38.172414,,1.20797857939521e-07,38.598,0.5230000019073486,-2.4619277032903737
38.637931,,2.3447568626420815e-08,39.062,0.5419999957084656,-2.4206712349000767
39.103448,,7.819060676530344e-08,39.527,0.5170000195503235,-2.4752304289987728
39.568965999999996,,1.8393959376690784e-07,39.995,0.5270000100135803,-2.4534893652349754
40.034483,,2.9360001877451554e-07,40.458,0.5540000200271606,-2.3946614650617426
40.5,,4.0694995660814443e-07,40.921,0.5630000233650208,-2.3749979186850894
40.965517,,5.237447475465192e-07,41.391,0.5270000100135803,-2.4533234919157367
41.431034,,6.437168874902895e-07,41.854,0.5180000066757202,-2.4727796957794825
41.896552,,7.665759948033817e-07,42.317,0.546999990940094,-2.409406300313584
42.362069000000005,,8.920088572622196e-07,42.782,0.5339999794960022,-2.4375002030216306
42.827586000000004,,1.0196795624051546e-06,43.249,0.49000000953674316,-2.5331037557726304
43.293103,,1.14922971441938e-06,43.715,0.5419999957084656,-2.419537309820538
43.758621,,1.2802787405296616e-06,44.176,0.5350000262260437,-2.434498629858967
44.224138,,1.4124242896622382e-06,44.641,0.5329999923706055,-2.438562462948461
44.689655,,1.5452427259481318e-06,45.106,0.5329999923706055,-2.4382736776412473
45.155172,,1.6782897194028302e-06,45.571,0.5170000195503235,-2.472857153462263
45.620689999999996,,1.811100935873882e-06,46.036,0.515999972820282,-2.4747840648910375
46.086206999999995,,1.943192828084456e-06,46.501,0.550000011920929,-2.4004885703675067
46.551724,,2.074063529319549e-06,46.969,0.5210000276565552,-2.463484715861349
47.017241,,2.2031938510024816e-06,47.432,0.5239999890327454,-2.456807104925909
47.482759,,2.330048385092926e-06,47.895,0.5080000162124634,-2.4915718596479652
47.948276,,2.4540767119043278e-06,48.365,0.5230000019073486,-2.4588500922361245
48.413793,,2.574714713588663e-06,48.825,0.5299999713897705,-2.443610172571821
48.879310000000004,,2.6913859931705697e-06,49.295,0.5370000004768372,-2.4284219552904234
49.344828,,2.803503398631597e-06,49.754,0.5189999938011169,-2.4677501349700726
49.810345,,2.910470651149346e-06,50.221,0.5419999957084656,-2.417800664168528
50.275862,,3.011684076186382e-06,50.686,0.5199999809265137,-2.4659326669929222
50.741379,,3.1065344357008595e-06,51.15,0.5239999890327454,-2.4574563263503957
51.206897,,3.1944088593157513e-06,51.616,0.531000018119812,-2.4424736147264707
51.672414,,3.274692871837457e-06,52.081,0.5339999794960022,-2.436226843979075
52.137931,,3.3467725140584727e-06,52.547,0.5239999890327454,-2.458314838978923
52.603448,,3.410036553313941e-06,53.01,0.5249999761581421,-2.4564413502555196
53.068966,,3.4638787797895387e-06,53.48,0.5180000066757202,-2.471991577040059
53.534483,,3.5077003840996755e-06,53.943,0.546999990940094,-2.409095688883917
54.0,,3.5409124111717805e-06,54.406,0.5149999856948853,-2.4790734324540966
54.465517,,3.562938284986116e-06,54.873,0.531000018119812,-2.444444284057216
54.931034,,3.5732163982325973e-06,55.335,0.5249999761581421,-2.4577069206862063
55.396552,,3.571202760458266e-06,55.8,0.550000011920929,-2.4033860755944105
55.862069,,3.5563736977930585e-06,56.271,0.5199999809265137,-2.4688410131034177
56.327586,,3.52822859685915e-06,56.729,0.5270000100135803,-2.4536331490535117
56.793102999999995,,3.486292684992319e-06,57.196,0.515999972820282,-2.477587462414355
57.258621000000005,,3.4301198384344006e-06,57.661,0.5379999876022339,-2.4295925597935013
57.724138,,3.359295409695995e-06,58.128,0.5450000166893005,-2.4142246722133773
58.189655,,3.2734390648401768e-06,58.594,0.5289999842643738,-2.448916142954308
58.655172,,3.1722076210031403e-06,59.058,0.5419999957084656,-2.420382116066638
59.120689999999996,,3.0552978740486463e-06,59.524,0.5289999842643738,-2.4484548068466263
59.586207,,2.9224494058519764e-06,59.984,0.5370000004768372,-2.43074519467734
60.051724,,2.773447360328064e-06,60.454,0.5189999938011169,-2.469658667311522
60.517241,,2.6081251769597577e-06,60.917,0.5460000038146973,-2.4105202450155834
60.982758999999994,,2.4263672702480462e-06,61.38,0.5649999976158142,-2.368806987478753
61.448276,,2.2281116431987998e-06,61.851,0.515999972820282,-2.475247349985395
61.913793,,2.013352422682383e-06,62.313,0.5419999957084656,-2.418305037572118
62.379310000000004,,1.7821423042556462e-06,62.779,0.5289999842643738,-2.4463556784754856
62.84482800000001,,1.5345948938225195e-06,63.242,0.5270000100135803,-2.4504751912016007
63.310345000000005,,1.2708869333319392e-06,63.708,0.5239999890327454,-2.4568154024096365
63.775862000000004,,9.912603975722927e-07,64.172,0.5289999842643738,-2.4457745912316198
64.241379,,6.960244490221304e-07,64.638,0.5249999761581421,-2.4543945085799876
64.706897,,3.8555723765963395e-07,65.102,0.5220000147819519,-2.460891768212022
65.172414,,6.030753262028572e-08,65.568,0.5239999890327454,-2.4565535358155817
65.637931,,2.792038273747018e-07,66.032,0.5170000195503235,-2.471880332327134
66.103448,,6.323826778154763e-07,66.497,0.5299999713897705,-2.4436893997741387
66.56896599999999,,9.985604792914547e-07,66.965,0.5189999938011169,-2.4678369013794605
67.03448300000001,,1.3769934881528532e-06,67.428,0.5540000200271606,-2.3918115252698775
67.5,,1.7668621593930644e-06,67.896,0.4410000145435333,-2.6382653814284507
67.965517,,2.1672707939089784e-06,68.358,0.5170000195503235,-2.4729875513022024
68.431034,,2.577247441950374e-06,68.829,0.5339999794960022,-2.436272813254561
68.896552,,2.995744074166481e-06,69.291,0.5170000195503235,-2.4736428412163196
69.362069,,3.4216370311967397e-06,69.749,0.550000011920929,-2.4020806334049736
69.827586,,3.853727762232773e-06,70.221,0.5230000019073486,-2.4612266393605795
70.293103,,4.290743862398936e-06,70.679,0.5299999713897705,-2.4462780145695513
70.75862099999999,,4.731340418159054e-06,71.144,0.5199999809265137,-2.4683366923264853
71.22413800000001,,5.174101669256739e-06,71.609,0.527999997138977,-2.451141553224563
71.689655,,5.617542994935906e-06,72.076,0.5249999761581421,-2.457866078544719
72.15517200000001,,6.060113231366868e-06,72.542,0.5419999957084656,-2.4209656439938163
72.62069,,6.500197326322004e-06,73.01,0.5260000228881836,-2.455904099355365
73.086207,,6.936119336203972e-06,73.473,0.527999997138977,-2.4515681339339332
73.551724,,7.366145769529627e-06,73.936,0.5239999890327454,-2.460244745633201
74.017241,,7.78848927991519e-06,74.405,0.5450000166893005,-2.4143966125535012
74.482759,,8.201312710494037e-06,74.866,0.5410000085830688,-2.4229586780624133
74.94827599999999,,8.602733490529321e-06,75.335,0.5339999794960022,-2.438005258488633
75.41379300000001,,8.990828383761303e-06,75.801,0.5199999809265137,-2.46825782239827
75.87931,,9.363638586755683e-06,76.263,0.515999972820282,-2.4766879416844794
76.344828,,9.719175174196939e-06,76.729,0.5400000214576721,-2.424088661634944
76.810345,,1.0055424886702103e-05,77.196,0.5460000038146973,-2.4106869384148544
77.275862,,1.0370356255318544e-05,77.654,0.5419999957084656,-2.4190631660272093
77.741379,,1.0661926055417225e-05,78.121,0.531000018119812,-2.442692249727672
78.206897,,1.0928086081204174e-05,78.587,0.5630000233650208,-2.372652332828313
78.67241399999999,,1.1166790230551049e-05,79.051,0.5189999938011169,-2.4682127874691364
79.137931,,1.1376001888294917e-05,79.517,0.5049999952316284,-2.498447513628974
79.603448,,1.155370159458177e-05,79.98,0.527999997138977,-2.44811543579335
80.068966,,1.1697894983232578e-05,80.45,0.5260000228881836,-2.452299291350571
80.53448300000001,,1.1806620973499575e-05,80.91,0.4779999852180481,-2.5567569546895252
81.0,,1.1877960196959076e-05,81.381,0.527999997138977,-2.447767300847789
81.465517,,1.1910043639660693e-05,81.843,0.5230000019073486,-2.458664662014376
81.931034,,1.1901061478027123e-05,82.306,0.5180000066757202,-2.4696224484336398
82.396552,,1.1849272085379336e-05,82.771,0.5419999957084656,-2.417457569328481
82.86206899999999,,1.17530111843552e-05,83.235,0.5339999794960022,-2.4350629878749244
83.327586,,1.1610701118901515e-05,83.701,0.531000018119812,-2.4418228253576295
83.79310299999999,,1.1420860217956588e-05,84.165,0.5170000195503235,-2.4725890767331844
84.258621,,1.11821122214096e-05,84.631,0.5210000276565552,-2.4641729175710343
84.72413800000001,,1.0893195737430727e-05,85.096,0.5049999952316284,-2.499354073506393
85.189655,,1.0552973698819578e-05,85.561,0.5429999828338623,-2.416901944159885
85.65517200000001,,1.016044278462578e-05,86.025,0.5429999828338623,-2.417240474562192
86.12069,,9.714742771962044e-06,86.491,0.5070000290870667,-2.4960015348881734
86.586207,,9.21516578166392e-06,86.954,0.5329999923706055,-2.4396682223445576
87.051724,,8.661165380259277e-06,87.424,0.5239999890327454,-2.459559291915798
87.517241,,8.052365499601593e-06,87.888,0.5239999890327454,-2.459805153997672
87.98275899999999,,7.388569134502189e-06,88.35,0.5170000195503235,-2.4752566843950055
88.448276,,6.669766777774859e-06,88.816,0.5379999876022339,-2.4296548948817436
88.913793,,5.896144551289616e-06,89.282,0.515999972820282,-2.4776787499421817
89.37931,,5.0680919909277905e-06,89.747,0.5239999890327454,-2.46028417375018
89.844828,,4.186209442745928e-06,90.213,0.5370000004768372,-2.4319362727645384
90.310345,,3.2513150271980703e-06,90.679,0.5789999961853027,-2.3403469007338593
90.775862,,2.264451127942168e-06,91.144,0.5339999794960022,-2.4382411812596585
91.241379,,1.2268903615735245e-06,91.61,0.5249999761581421,-2.457650983230737
91.706897,,1.401409845930587e-07,92.069,0.515999972820282,-2.477015480833955
92.17241399999999,,9.940483059627418e-07,92.534,0.5370000004768372,-2.430983092953135
92.63793100000001,,2.1736842215237203e-06,93.002,0.5379999876022339,-2.4284948171363334
93.103448,,3.3965254234673792e-06,93.465,0.546999990940094,-2.408557680542111
93.568966,,4.66007979930923e-06,93.932,0.5189999938011169,-2.4692216606053914
94.03448300000001,,5.961602515036565e-06,94.395,0.5370000004768372,-2.429670243280224
94.5,,7.298094884042809e-06,94.866,0.5329999923706055,-2.4380622880878215
94.965517,,8.666304091955912e-06,95.328,0.4970000088214874,-2.5161949973863607
95.431034,,1.0062723815300234e-05,95.793,0.5329999923706055,-2.4374992394033237
95.896552,,1.148359577038362e-05,96.256,0.5669999718666077,-2.36320206664475
96.36206899999999,,1.2924912227057058e-05,96.722,0.5149999856948853,-2.476316012686572
96.827586,,1.4382419520051089e-05,97.187,0.5299999713897705,-2.4435144672876055
97.293103,,1.58516225884495e-05,97.653,0.515999972820282,-2.473952166966475
97.758621,,1.732779057151547e-05,98.117,0.5419999957084656,-2.4173040045342025
98.224138,,1.88059634865383e-05,98.583,0.5180000066757202,-2.4696482341798998
98.689655,,2.0280960011620098e-05,99.049,0.5059999823570251,-2.4959073834561956
99.155172,,2.174738639337276e-05,99.514,0.5419999957084656,-2.4176463491372155
99.62069,,2.31996464963478e-05,99.977,0.5180000066757202,-2.4701530891257195
100.086207,,2.4631953007677915e-05,100.439,0.5419999957084656,-2.418126171115962
100.551724,,2.6038339806873073e-05,100.907,0.515999972820282,-2.475064789592135
101.017241,,2.7412675506989484e-05,101.369,0.5389999747276306,-2.4252731946954507
101.482759,,2.8748678169482464e-05,101.84,0.5299999713897705,-2.4452116039510474
101.948276,,3.003993119096957e-05,102.302,0.5379999876022339,-2.4281152760928406
102.413793,,3.1279900355875836e-05,102.768,0.531000018119812,-2.443690320530432
102.87931,,3.2461952044515956e-05,103.232,0.5339999794960022,-2.4374603625962403
103.344828,,3.357937258159772e-05,103.697,0.5249999761581421,-2.457345886879974
103.810345,,3.4625388705416454e-05,104.162,0.5419999957084656,-2.4205493774949156
104.275862,,3.5593189133162395e-05,104.627,0.5210000276565552,-2.466496705030984
104.741379,,3.647594719279325e-05,105.091,0.5419999957084656,-2.420889994084577
105.206897,,3.726684448684497e-05,105.557,0.5299999713897705,-2.447123078373365
105.672414,,3.795909554837851e-05,106.021,0.5260000228881836,-2.4558685794158883
106.13793100000001,,3.8545973444003855e-05,106.487,0.5249999761581421,-2.4580196423112484
106.603448,,3.9020836273598794e-05,106.954,0.515999972820282,-2.477542378159245
107.068966,,3.9377154510966365e-05,107.416,0.5370000004768372,-2.4316509218647746
107.534483,,3.9608539124267484e-05,107.88,0.5260000228881836,-2.4554257386661837
108.0,,3.970877040964227e-05,108.35,0.5210000276565552,-2.4660844456280646
108.46551699999999,,3.967182746601374e-05,108.816,0.5339999794960022,-2.4374910277851782
108.931034,,3.949191823367004e-05,109.281,0.5009999871253967,-2.5090877222570525
109.396552,,3.9163510013866776e-05,109.739,0.5270000100135803,-2.452126506930361
109.862069,,3.868136038139958e-05,110.206,0.5130000114440918,-2.4823037205829603
110.32758600000001,,3.804054839689112e-05,110.672,0.5230000019073486,-2.4601959241924494
110.793103,,3.723650602043803e-05,111.137,0.5249999761581421,-2.4555299297875015
111.258621,,3.626504962329502e-05,111.603,0.5249999761581421,-2.4552432412892955
111.724138,,3.5122411489458515e-05,112.069,0.5080000162124634,-2.4920248836647128
112.189655,,3.380527119437456e-05,112.535,0.527999997138977,-2.4482362976932004
112.655172,,3.2310786743560044e-05,112.995,0.5260000228881836,-2.4524239098445384
113.12069,,3.063662534971616e-05,113.464,0.5339999794960022,-2.4348760153890656
113.586207,,2.878099372295401e-05,113.925,0.5299999713897705,-2.443526148132954
114.051724,,2.674266774506876e-05,114.394,0.5149999856948853,-2.4761979240823577
114.51724100000001,,2.4521021395416276e-05,114.858,0.5149999856948853,-2.4762473509742935
114.982759,,2.2116054792889382e-05,115.321,0.5270000100135803,-2.4502086968039785
115.448276,,1.9528421215784857e-05,115.786,0.5339999794960022,-2.4351151674103058
115.913793,,1.6759452959021836e-05,116.25,0.515999972820282,-2.474534373562966
116.37931,,1.3811185886242114e-05,116.715,0.5170000195503235,-2.4725996966138326
116.84482799999999,,1.0686382532816701e-05,117.18,0.5210000276565552,-2.4641621581155433
117.310345,,7.388553614724909e-06,117.645,0.5239999890327454,-2.457927312151423
117.77586199999999,,3.921977797685333e-06,118.11,0.5370000004768372,-2.429919789148879
118.241379,,2.9171958082458115e-07,118.576,0.5149999856948853,-2.478168831758053
118.70689700000001,,3.4963548504087307e-06,119.043,0.5270000100135803,-2.452337750648425
119.172414,,7.435563946419567e-06,119.509,0.5260000228881836,-2.454813250492318
119.63793100000001,,1.1518399433553237e-05,119.969,0.5419999957084656,-2.420226047661229
120.103448,,1.5736517412827376e-05,120.439,0.5199999809265137,-2.4683930266711265
120.568966,,2.0080732055364015e-05,120.902,0.5239999890327454,-2.459873640967738
121.034483,,2.4541012029289787e-05,121.365,0.515999972820282,-2.477450981039071
121.5,,2.9106479788963322e-05,121.836,0.5419999957084656,-2.42090218046165
121.96551699999999,,3.3765413852844694e-05,122.298,0.5289999842643738,-2.4492652633333982
122.431034,,3.850525419113124e-05,122.764,0.5299999713897705,-2.4470705534955752
122.896552,,4.331261083843776e-05,123.229,0.5260000228881836,-2.4557131575938502
123.362069,,4.817327584028929e-05,123.694,0.5540000200271606,-2.3945853260589796
123.827586,,5.307223863501632e-05,124.154,0.5180000066757202,-2.47284111120221
124.293103,,5.799370496479152e-05,124.62,0.5400000214576721,-2.424691349665389
124.758621,,6.292111940102328e-05,125.084,0.5170000195503235,-2.4745443955631
125.22413800000001,,6.783719156012573e-05,125.549,0.531000018119812,-2.4437594071564495
125.68965500000002,,7.27239260758208e-05,126.022,0.5210000276565552,-2.4652431699788253
126.15517200000001,,7.756265638360197e-05,126.48,0.5389999747276306,-2.425715539322121
126.62069000000001,,8.233408236181077e-05,126.95,0.5130000114440918,-2.482048880941212
127.086207,,8.701831186195602e-05,127.413,0.5149999856948853,-2.477391285794807
127.55172400000001,,9.159490614845903e-05,127.874,0.527999997138977,-2.4487892546459915
128.017241,,9.604292925495032e-05,128.343,0.5199999809265137,-2.465968138547286
128.48275900000002,,0.00010034100125059611,128.808,0.527999997138977,-2.4483255384611895
128.948276,,0.00010446735539571957,129.271,0.5270000100135803,-2.4503342795873793
129.413793,,0.0001083998991512271,129.737,0.515999972820282,-2.474178454226405
129.87931,,0.00011211627899108494,130.202,0.5139999985694885,-2.478467628283633
130.344828,,0.00011559394895134632,130.668,0.5339999794960022,-2.434881477912252
130.81034499999998,,0.00011881024283304105,131.132,0.527999997138977,-2.4479946087854967
131.275862,,0.00012174244995964542,131.598,0.5260000228881836,-2.4524459883099765
131.741379,,0.00012436789437289327,132.066,0.515999972820282,-2.4743767950492574
132.206897,,0.00012666401733341155,132.524,0.5339999794960022,-2.435350695049689
132.67241399999997,,0.00012860846297511563,132.991,0.5419999957084656,-2.4181496528251545
133.13793099999998,,0.00013017916694453037,133.454,0.5260000228881836,-2.4532670543336317
133.60344800000001,,0.00013135444783826634,133.924,0.5339999794960022,-2.4361199157345066
134.06896600000002,,0.00013211310123383322,134.387,0.5210000276565552,-2.464738360474795
134.53448300000002,,0.00013243449609087382,134.855,0.5410000085830688,-2.4214662425422193
135.0,,0.00013229867328181435,135.317,0.5239999890327454,-2.458799166190192
135.465517,,0.00013168644599291382,135.783,0.5299999713897705,-2.4460090074903347
135.931034,,0.0001305795017188263,136.248,0.48399999737739563,-2.5464864859119616
136.396552,,0.0001289605055561321,136.714,0.5170000195503235,-2.474821508187033
136.862069,,0.0001268132044839207,137.174,0.546999990940094,-2.409655239909869
137.327586,,0.00012412253230249316,137.639,0.5299999713897705,-2.4468406351072014
137.793103,,0.00012087471488467016,138.106,0.5009999871253967,-2.5101209172489964
138.258621,,0.0001170573753781223,138.571,0.5139999985694885,-2.4818472176960835
138.724138,,0.00011265963898166017,139.036,0.5339999794960022,-2.4382705301274794
139.189655,,0.0001076722369036125,139.502,0.531000018119812,-2.444749383196085
139.655172,,0.00010208760909636423,139.965,0.5360000133514404,-2.4337473880314513
140.12069,,9.590000534790437e-05,140.436,0.5210000276565552,-2.466270264049081
140.586207,,8.91055842989283e-05,140.899,0.5260000228881836,-2.455177558549811
141.05172399999998,,8.170250994273352e-05,141.361,0.5210000276565552,-2.465835281072056
141.51724099999998,,7.36910451549259e-05,141.825,0.515999972820282,-2.4764648153765036
141.982759,,6.507364179089696e-05,142.295,0.515999972820282,-2.4761813632744194
142.44827600000002,,5.585502688122355e-05,142.76,0.5299999713897705,-2.4453860476631086
142.913793,,4.604228444866143e-05,143.225,0.5099999904632568,-2.488663164224213
143.37931,,3.5644932465333104e-05,143.691,0.625,-2.2378287593062596
143.844828,,2.4674994465125575e-05,144.155,0.5299999713897705,-2.44452393769496
144.310345,,1.314706532429264e-05,144.621,0.5099999904632568,-2.4878441283466115
144.77586200000002,,1.078370722872506e-06,145.08,0.5180000066757202,-2.4701964861476187
145.241379,,1.151118019914418e-05,145.546,0.5260000228881836,-2.452590149365083
145.706897,,2.4598949473859535e-05,146.01,0.5210000276565552,-2.4633529249219834
146.172414,,3.8159532703747824e-05,146.48,0.5299999713897705,-2.4436654518450394
146.637931,,5.216472969734487e-05,146.943,0.5370000004768372,-2.42838798563637
147.103448,,6.658352380471916e-05,147.406,0.5329999923706055,-2.437129151263973
147.568966,,8.138207040428067e-05,147.869,0.531000018119812,-2.441565582114682
148.034483,,9.652369497960904e-05,148.339,0.5130000114440918,-2.4809110915244115
148.5,,0.00011196890121000775,148.805,0.5419999957084656,-2.41790676715931
148.965517,,0.0001276753894813798,149.267,0.5189999938011169,-2.4682328849236037
149.43103399999998,,0.0001435980862047426,149.733,0.5170000195503235,-2.4728414368805667
149.89655199999999,,0.00015968918430823203,150.199,0.5210000276565552,-2.464404644848939
150.362069,,0.00017589819524477018,150.665,0.4790000021457672,-2.5562040548271616
150.82758600000003,,0.00019217201283168147,151.124,0.5199999809265137,-2.467185007666117
151.293103,,0.00020845498921043194,151.59,0.5329999923706055,-2.4391665977331067
151.758621,,0.00022468902318434694,152.054,0.5329999923706055,-2.4394580247477404
152.224138,,0.00024081366115964308,152.519,0.5339999794960022,-2.4375484432786525
152.68965500000002,,0.0002567662108804176,152.988,0.5419999957084656,-2.420356916662999
153.155172,,0.0002724818681114011,153.45,0.5170000195503235,-2.475021877398298
153.62069,,0.00028789385638334125,153.917,0.527999997138977,-2.451210762383618
154.086207,,0.00030293357987489227,154.379,0.5519999861717224,-2.3990269714544863
154.551724,,0.00031753078946190216,154.847,0.5049999952316284,-2.501473414969395
155.017241,,0.0003316137619200797,155.309,0.5299999713897705,-2.4470025787891245
155.482759,,0.0003451094922202711,155.775,0.5260000228881836,-2.4556579484442156
155.948276,,0.00035794389880707044,156.239,0.527999997138977,-2.451188660971352
156.413793,,0.0003700420417013241,156.705,0.5059999823570251,-2.4989580078746356
156.87931,,0.00038132835321538376,157.169,0.5099999904632568,-2.490039380199009
157.34482799999998,,0.00039172688101682716,157.635,0.5400000214576721,-2.424439015138676
157.81034499999998,,0.0004011615432219404,158.099,0.5419999957084656,-2.4198106246029227
158.275862,,0.0004095563951446755,158.565,0.5350000262260437,-2.4347678373645536
158.741379,,0.00041683590727021496,159.032,0.5170000195503235,-2.47367818417246
159.20689700000003,,0.0004229252539648512,159.497,0.5350000262260437,-2.4341553927143105
159.672414,,0.00042775061237579706,159.965,0.5509999990463257,-2.398997557977963
160.137931,,0.00043123947091596495,160.428,0.5419999957084656,-2.418322463789801
160.60344800000001,,0.0004333209466698761,160.896,0.5360000133514404,-2.4311373460877173
161.06896600000002,,0.00043392611099789014,161.358,0.5289999842643738,-2.4461659376574127
161.534483,,0.00043298832255708633,161.828,0.527999997138977,-2.4481652561312006
162.0,,0.000430443566898603,162.291,0.5180000066757202,-2.469821487975302
162.465517,,0.0004262308017432731,162.749,0.5199999809265137,-2.465387828316616
162.931034,,0.0004202923069802223,163.214,0.5249999761581421,-2.4544746626064256
163.396552,,0.0004125740383769563,163.679,0.5389999747276306,-2.4240104448434923
163.862069,,0.00040302598393460854,164.147,0.4690000116825104,-2.576609112291497
164.327586,,0.00039160252176870215,164.612,0.5329999923706055,-2.4373235747389326
164.793103,,0.00037826277834426505,165.076,0.5370000004768372,-2.4288056846593533
165.258621,,0.00036297098584468334,165.542,0.5339999794960022,-2.4355794884748403
165.72413799999998,,0.00034569683740655945,166.01,0.5419999957084656,-2.418421328674442
166.189655,,0.0003264158389083293,166.472,0.5139999985694885,-2.4797193162088016
166.655172,,0.0003051096559587618,166.94,0.531000018119812,-2.4429937713194634
167.12069,,0.0002817664546929925,167.402,0.5339999794960022,-2.4367748544552654
167.58620699999997,,0.0002563812349487073,167.87,0.5419999957084656,-2.419657069150619
168.051724,,0.0002289561543637686,168.332,0.531000018119812,-2.443917791250338
168.517241,,0.00019950084190923923,168.798,0.5419999957084656,-2.4202229198824976
168.98275900000002,,0.000168032699348689,169.26,0.5289999842643738,-2.4487814100565384
169.44827600000002,,0.00013457718909612603,169.726,0.5299999713897705,-2.446797161308099
169.913793,,9.916810693115304e-05,170.192,0.5149999856948853,-2.4796236990261487
170.37931,,6.184783802125016e-05,170.657,0.5329999923706055,-2.440502638941292
170.844828,,2.2667594697696793e-05,171.124,0.5109999775886536,-2.488472240006145
171.310345,,1.8312365566184654e-05,171.59,0.5299999713897705,-2.4470605683241455
171.775862,,6.1022543517815044e-05,172.054,0.5339999794960022,-2.4382720001741793
172.241379,,0.00010538402435856942,172.52,0.5630000233650208,-2.374961709085346
172.706897,,0.0001513083283566666,172.981,0.5270000100135803,-2.453211904206438
173.172414,,0.00019869728732243485,173.451,0.515999972820282,-2.476950876701492
173.637931,,0.00024744294839542687,173.913,0.527999997138977,-2.4505438676649316
174.103448,,0.000297427506552822,174.376,0.49799999594688416,-2.515612051904722
174.568966,,0.0003485232672017167,174.844,0.5529999732971191,-2.3954762105355067
175.034483,,0.0004005926401642201,175.305,0.4950000047683716,-2.521518304436434
175.5,,0.000453488166303373,175.771,0.515999972820282,-2.4754489861020126
175.96551699999998,,0.0005070525779693388,176.235,0.5379999876022339,-2.42721278924456
176.43103399999998,,0.0005611188943692397,176.701,0.5149999856948853,-2.4770367973243568
176.896552,,0.0006155105528813445,177.165,0.5379999876022339,-2.426673116400725
177.36206900000002,,0.000670041577245327,177.631,0.5440000295639038,-2.4133842929802083
177.827586,,0.0007245167834633026,178.098,0.5239999890327454,-2.456785239217403
178.293103,,0.0007787320241393872,178.564,0.5210000276565552,-2.4632000616180303
178.758621,,0.0008324744718706514,179.028,0.5299999713897705,-2.4435267640169793
179.224138,,0.0008855229421853168,179.494,0.5230000019073486,-2.4587692624441044
179.68965500000002,,0.0009376482564053832,179.954,0.5289999842643738,-2.445747438347274
180.155172,,0.0009886136446795465,180.424,0.531000018119812,-2.4414965488120153
180.62069,,0.001038175189278651,180.888,0.5440000295639038,-2.4133333376375377
181.086207,,0.001086082308085516,181.35,0.5210000276565552,-2.4636492639751215
181.551724,,0.0011320782780764019,181.816,0.5210000276565552,-2.463898129429832
182.01724099999998,,0.0011759007984774,182.282,0.5210000276565552,-2.4641814553127945
182.482759,,0.0012172825931150285,182.748,0.5389999747276306,-2.42527434278406
182.948276,,0.0012559520512215134,183.213,0.4950000047683716,-2.5214587487187505
183.413793,,0.0012916339057119188,183.679,0.5540000200271606,-2.393247592609756
183.87931,,0.0013240499479034824,184.144,0.5419999957084656,-2.4197141452819437
184.34482799999998,,0.0013529197777158006,184.61,0.503000020980835,-2.50498731638136
184.81034499999998,,0.001377961588137871,185.07,0.5419999957084656,-2.420300220940724
185.27586200000002,,0.0013988929819951914,185.535,0.5370000004768372,-2.431438152775436
185.74137900000002,,0.0014154318185520287,186.006,0.5360000133514404,-2.4338174842358744
186.206897,,0.0014272970882127113,186.468,0.5139999985694885,-2.481898480184762
186.672414,,0.001434209814766066,186.929,0.546999990940094,-2.4100989490388227
187.137931,,0.001435893983633037,187.398,0.5249999761581421,-2.4580666687040296
187.60344800000001,,0.0014320774909384272,187.862,0.5260000228881836,-2.4558656491920936
188.06896600000002,,0.0014224931069226764,188.324,0.5339999794960022,-2.4383553574345105
188.534483,,0.001406879453229309,188.789,0.5170000195503235,-2.475254602355997
189.0,,0.0013849820006720844,189.26,0.5170000195503235,-2.475065096141923
189.465517,,0.001356554086936649,189.725,0.5410000085830688,-2.4225419822805665
189.931034,,0.001321357933034047,190.184,0.5199999809265137,-2.4680189305777724
190.39655199999999,,0.0012791656351731878,190.65,0.5339999794960022,-2.43721262870785
190.862069,,0.0012297601490651486,191.114,0.5170000195503235,-2.4739237312517974
191.327586,,0.0011729363199184332,191.58,0.5249999761581421,-2.4561587185719613
191.793103,,0.0011085019569963166,192.047,0.5249999761581421,-2.455823448354657
192.25862099999998,,0.0010362788333721112,192.512,0.5299999713897705,-2.4446060418009665
192.72413799999998,,0.0009561035087429366,192.98,0.5249999761581421,-2.4551964942783133
193.189655,,0.0008678281297546495,193.442,0.5040000081062317,-2.500676885290657
193.655172,,0.0007713215313121981,193.91,0.5299999713897705,-2.4438016656622112
194.12069000000002,,0.0006664705693490175,194.373,0.5180000066757202,-2.4697628214967713
194.586207,,0.0005531809543102699,194.836,0.546999990940094,-2.406452704831385
195.051724,,0.0004313771351276711,195.305,0.5239999890327454,-2.4564894087634173
195.517241,,0.0003010023667682256,195.764,0.5419999957084656,-2.4172610487493302
195.98275900000002,,0.00016202078054300154,196.229,0.5419999957084656,-2.4173083558435904
196.448276,,1.4420567975775098e-05,196.694,0.5139999985694885,-2.478416744414939
196.913793,,0.00014178618218473673,197.159,0.5109999775886536,-2.4851158607520105
197.37931,,0.0003065687337320081,197.624,0.531000018119812,-2.441758140386817
197.844828,,0.00047988026589653463,198.091,0.5170000195503235,-2.472519739765653
198.310345,,0.0006616479806573877,198.557,0.5339999794960022,-2.4357801836509574
198.775862,,0.0008517589563715023,199.021,0.5170000195503235,-2.473142030325334
199.241379,,0.0010500683866138526,199.487,0.5249999761581421,-2.4560552636301924
199.706897,,0.0012564345976147718,199.954,0.5239999890327454,-2.458582852945974
200.172414,,0.0014707295811033777,200.417,0.5239999890327454,-2.458927244893274
200.63793099999998,,0.0016927751245409803,200.88,0.5180000066757202,-2.472328045288847
201.103448,,0.001922270137128393,201.35,0.5360000133514404,-2.433415164202039
201.568966,,0.002158864149502516,201.817,0.5299999713897705,-2.446753621069387
202.034483,,0.0024023657305233806,202.274,0.515999972820282,-2.477476324919705
202.5,,0.002652758173289729,202.74,0.5299999713897705,-2.4471451224728957
202.965517,,0.002909784239695782,203.207,0.5400000214576721,-2.425470580055665
203.431034,,0.0031725836752322344,203.673,0.5149999856948853,-2.4799871365966037
203.896552,,0.0034402591692088715,204.14,0.5479999780654907,-2.4080784400141235
204.36206900000002,,0.0037130746449080903,204.599,0.5289999842643738,-2.4493956944163893
204.827586,,0.003992249061817286,205.065,0.5239999890327454,-2.460150486342151
205.293103,,0.004277329867926233,205.531,0.5329999923706055,-2.4403473799651514
205.758621,,0.004564523967890105,205.999,0.546999990940094,-2.409599738880818
206.224138,,0.0048507695593606945,206.461,0.5170000195503235,-2.474668856805833
206.689655,,0.005140418716647359,206.929,0.5360000133514404,-2.43295012621035
207.155172,,0.0054421980688424245,207.391,0.5059999823570251,-2.497961809745806
207.62069,,0.005753046251644426,207.854,0.5210000276565552,-2.4649221663511294
208.086207,,0.006051473968535039,208.324,0.5249999761581421,-2.4558472740646513
208.551724,,0.006325504965185347,208.79,0.5049999952316284,-2.499070608978887
209.01724099999998,,0.006608621095266591,209.253,0.4740000069141388,-2.5662822848435063
209.482759,,0.006950985257620265,209.718,0.5199999809265137,-2.465772288708039
209.948276,,0.007322578118329067,210.184,0.5139999985694885,-2.478594429821404
210.413793,,0.007595108926926324,210.649,0.5199999809265137,-2.465322490520708
210.87930999999998,,0.007726765261165755,211.113,0.503000020980835,-2.502215547006318
211.344828,,0.007946773042729144,211.579,0.5429999828338623,-2.4149863124753477
211.810345,,0.00852266912089024,212.044,0.527999997138977,-2.4476449996118124
212.27586200000002,,0.009195052109924585,212.509,0.5460000038146973,-2.4084708288899273
212.741379,,0.009205583512292658,212.973,0.5090000033378601,-2.4891840479633367
213.206897,,0.008484706260791364,213.435,0.5419999957084656,-2.41745083662145
213.672414,,0.008551098394589342,213.903,0.5260000228881836,-2.452525180550489
214.137931,,0.010788912291950259,214.365,0.5149999856948853,-2.4767538032374263
214.60344800000001,,0.013100439658543444,214.833,0.527999997138977,-2.4487344796489965
215.068966,,0.010174810437119366,215.296,0.5139999985694885,-2.4795690522829754
215.534483,,0.0005148934554556312,215.761,0.5360000133514404,-2.4319920825479437
216.0,,0.01407520492220774,216.228,0.5239999890327454,-2.458497792246543
216.465517,,0.022407565582725997,216.694,0.515999972820282,-2.476286304903397
216.93103399999998,,0.02246065418089349,217.158,0.5170000195503235,-2.4744535239561323
217.39655199999999,,0.017843508584747547,217.623,0.5389999747276306,-2.4268448373157083
217.862069,,0.013452375757127988,218.088,0.5339999794960022,-2.438024228981344
218.327586,,0.011413645452931956,218.554,0.5649999976158142,-2.3707270456599177
218.793103,,0.011536970907447448,219.021,0.5429999828338623,-2.418844920236056
219.25862099999998,,0.01280831093245682,219.479,0.5289999842643738,-2.449474758306965
219.724138,,0.013934572078518434,219.947,0.5400000214576721,-2.4255761839477876
220.18965500000002,,0.013939607245908035,220.409,0.5249999761581421,-2.4582586179010484
220.65517200000002,,0.012823592744657202,220.877,0.5379999876022339,-2.4298747328925097
221.12069,,0.011236702230717,221.34,0.5210000276565552,-2.4667882778326558
221.586207,,0.009593175341863276,221.805,0.5180000066757202,-2.47314317911494
222.051724,,0.007952726250023663,222.276,0.5260000228881836,-2.455481082912552
222.517241,,0.006595728498470533,222.734,0.527999997138977,-2.4508461424697474
222.98275900000002,,0.006037761413982719,223.199,0.5210000276565552,-2.465782605580031
223.448276,,0.006203134301543244,223.665,0.5189999938011169,-2.469799637194814
223.913793,,0.006089803680735216,224.132,0.5130000114440918,-2.4825156813479463
224.37931,,0.004918602250163558,224.598,0.5529999732971191,-2.3950090223500156
224.844828,,0.0035027726241969497,225.062,0.515999972820282,-2.4752637711313614
225.31034499999998,,0.0037143966664652797,225.528,0.5130000114440918,-2.481461546259152
225.775862,,0.006361140924711943,225.991,0.5270000100135803,-2.4506505619702152
226.241379,,0.010099421536992859,226.454,0.5210000276565552,-2.463449931319141
226.706897,,0.012614573208392073,226.925,0.5299999713897705,-2.4436153392213553
227.172414,,0.012584148268206079,227.387,0.5149999856948853,-2.476120847501037
227.63793099999998,,0.01059852443419035,227.851,0.5289999842643738,-2.445503736013763
228.103448,,0.00843907980975273,228.321,0.5339999794960022,-2.4345558812171593
228.56896600000002,,0.00726483877300928,228.779,0.5419999957084656,-2.417134518825334
229.03448300000002,,0.006426376591766187,229.249,0.515999972820282,-2.473849664152804
229.5,,0.004429077691371188,229.715,0.5419999957084656,-2.4173354971876435
229.965517,,0.0009770134177263844,230.176,0.5540000200271606,-2.3913782582711263
230.431034,,0.002606973056118014,230.642,0.5289999842643738,-2.4460808545100456
230.896552,,0.005074722351742274,231.106,0.515999972820282,-2.4746830531494584
231.362069,,0.006641725046491254,231.572,0.5419999957084656,-2.4183532483423678
231.827586,,0.008358830977496028,232.036,0.5189999938011169,-2.4688027797893564
232.293103,,0.01073412596229699,232.501,0.531000018119812,-2.4430147345656765
232.758621,,0.013582201686848804,232.969,0.5419999957084656,-2.4194095232673045
233.224138,,0.016760323909992086,233.431,0.5230000019073486,-2.461156497689202
233.689655,,0.020071631616466648,233.895,0.5249999761581421,-2.4571343322396513
234.155172,,0.022437772235170066,234.365,0.503000020980835,-2.5053724189257376
234.62069,,0.02218611118357636,234.829,0.5419999957084656,-2.420676440571138
235.086207,,0.018677498715484884,235.291,0.5519999861717224,-2.399115001516783
235.55172399999998,,0.013147300383272132,235.756,0.5299999713897705,-2.4472164163987173
236.01724099999998,,0.007626936527562159,236.224,0.5180000066757202,-2.4734728450103014
236.482759,,0.003501183408411563,236.69,0.5239999890327454,-2.460452545960559
236.94827600000002,,0.0012843852729373614,237.155,0.5210000276565552,-2.4669772046597096
237.413793,,0.001011834430394076,237.62,0.5460000038146973,-2.4124368354214183
237.87931,,0.00206316465325041,238.085,0.5339999794960022,-2.438445024377188
238.344828,,0.0027901963928056725,238.55,0.5180000066757202,-2.473110592662951
238.810345,,0.0011976452484975632,239.013,0.5379999876022339,-2.4292940774424974
239.27586200000002,,0.003220002956297872,239.476,0.5220000147819519,-2.4638652815889954
239.741379,,0.008203943489449372,239.939,0.5289999842643738,-2.4482929744700934
240.206897,,0.010053341175101465,240.409,0.5170000195503235,-2.474090244576933
240.672414,,0.007081541428819438,240.869,0.5170000195503235,-2.4737300893462075
241.137931,,0.0014671431260995006,241.339,0.5299999713897705,-2.4450448710527213
241.603448,,0.0033171390812708704,241.805,0.5339999794960022,-2.4359751691535365
242.068966,,0.006629410388917497,242.268,0.5210000276565552,-2.4639609238579805
242.534483,,0.010655320840207351,242.734,0.5170000195503235,-2.4723682641601745
243.0,,0.01602989869971271,243.199,0.5230000019073486,-2.4590281422811064
243.465517,,0.019467835886725897,243.665,0.5230000019073486,-2.4588069644590433
243.93103399999998,,0.017427774829292107,244.125,0.5109999775886536,-2.484783616470976
244.39655199999999,,0.011230798628985484,244.591,0.5400000214576721,-2.421494526453175
244.862069,,0.006490011307971693,245.055,0.515999972820282,-2.473735988906586
245.327586,,0.006975838139211356,245.521,0.527999997138977,-2.447609434649683
245.793103,,0.010356587874864586,245.984,0.5299999713897705,-2.4433324660460762
246.258621,,0.011127223980821844,246.453,0.5410000085830688,-2.4195075847604213
246.724138,,0.007193419335266656,246.917,0.47200000286102295,-2.570031412501639
247.18965500000002,,0.002031634340476527,247.38,0.5210000276565552,-2.4635267235285725
247.655172,,1.8025571699182912e-05,247.851,0.5270000100135803,-2.45074793132959
248.12069,,0.0012081699983302304,248.313,0.5149999856948853,-2.4772188167795663
248.586207,,0.0019028180785052942,248.778,0.5239999890327454,-2.4579621111489116
249.051724,,0.0007889244815980366,249.242,0.5339999794960022,-2.4365398008306096
249.517241,,0.006530006985015434,249.707,0.5339999794960022,-2.4369052520702446
249.982759,,0.013168020436452394,250.174,0.5419999957084656,-2.419831221447513
250.44827600000002,,0.018628473639604168,250.639,0.5370000004768372,-2.4310583338781466
250.913793,,0.021272900017588393,251.106,0.5249999761581421,-2.457504816395096
251.37931000000003,,0.020275407066263955,251.564,0.515999972820282,-2.47737558007946
251.844828,,0.016814483970259274,252.029,0.515999972820282,-2.477591348031315
252.31034499999998,,0.013821286302506846,252.494,0.546999990940094,-2.4102148397315197
252.77586200000002,,0.013185712518401315,252.962,0.5210000276565552,-2.4669616092318822
253.241379,,0.013596210298535628,253.424,0.5339999794960022,-2.4386786358191506
253.706897,,0.012077098086593218,253.892,0.5460000038146973,-2.4125101752456057
254.172414,,0.0073979498387014555,254.354,0.515999972820282,-2.4777818152439046
254.63793099999998,,0.0014405991319070897,254.825,0.531000018119812,-2.4449541707975224
255.10344800000001,,0.002436932046865398,255.287,0.5249999761581421,-2.457823154144223
255.56896600000002,,0.002083856636722996,255.753,0.515999972820282,-2.477179185673506
256.03448299999997,,0.0020199553790517504,256.218,0.515999972820282,-2.476886742321409
256.5,,0.007716568148278957,256.684,0.5249999761581421,-2.456954776704687
256.965517,,0.013295435900627837,257.15,0.5339999794960022,-2.437000523871573
257.431034,,0.018236570352815912,257.616,0.4650000035762787,-2.586969915019991
257.896552,,0.022220501777007837,258.08,0.5009999871253967,-2.508182855538514
258.362069,,0.024717042600369128,258.539,0.515999972820282,-2.4751594298570114
258.827586,,0.02597740700428337,259.006,0.515999972820282,-2.474836753816228
259.29310300000003,,0.027281112589380502,259.469,0.5379999876022339,-2.4266137114376574
259.758621,,0.029228958791486834,259.939,0.515999972820282,-2.474289521552596
260.224138,,0.030221880570204022,260.402,0.527999997138977,-2.4479371174657762
260.689655,,0.02739508611803353,260.865,0.503000020980835,-2.502247267291041
261.155172,,0.018870681976893122,261.335,0.5460000038146973,-2.4084663661204764
261.62068999999997,,0.004710941151172833,261.794,0.5329999923706055,-2.4367487777404273
262.086207,,0.0134075967196571,262.264,0.5419999957084656,-2.417160470261757
262.551724,,0.03211210066830395,262.729,0.5239999890327454,-2.456454923063392
263.017241,,0.046584103126016276,263.191,0.5210000276565552,-2.463126939955
263.482759,,0.05307675071319198,263.656,0.5210000276565552,-2.463316874407637
263.94827599999996,,0.05209867947068413,264.121,0.5519999861717224,-2.396016357571277
264.413793,,0.048280876426741205,264.586,0.5149999856948853,-2.476903938131545
264.87931,,0.04623895523440749,265.051,0.5249999761581421,-2.4554274316074767
265.34482799999995,,0.04631658334704024,265.516,0.4830000102519989,-2.5472648914391702
265.810345,,0.044535462491585194,265.984,0.5130000114440918,-2.4822548385528074
266.27586199999996,,0.03708734533801651,266.446,0.5299999713897705,-2.4455713546069457
266.741379,,0.024815735165137284,266.91,0.5389999747276306,-2.426309023458442
267.206897,,0.012737903006885057,267.38,0.5170000195503235,-2.4745661616183896
267.672414,,0.005212047530156731,267.84,0.5180000066757202,-2.472686755416343
268.137931,,0.002248296535741616,268.31,0.531000018119812,-2.444626921137668
268.603448,,0.0005942667194576289,268.776,0.5320000052452087,-2.442665935816054
269.06896600000005,,0.002297639879534988,269.239,0.5490000247955322,-2.4057943690692962
269.53448299999997,,0.005914681235837492,269.704,0.5170000195503235,-2.4756195479092793
270.0,,0.008221576925451713,270.169,0.5389999747276306,-2.4277378970893353
270.465517,,0.008877871526506246,270.634,0.46399998664855957,-2.591125019848325
270.931034,,0.009808773112611437,271.101,0.5260000228881836,-2.455978673055824
271.396552,,0.012281024752813953,271.559,0.4860000014305115,-2.5429980986194414
271.86206899999996,,0.014706594149983897,272.026,0.49399998784065247,-2.525389653216768
272.327586,,0.014567804628115064,272.491,0.5220000147819519,-2.464160584869662
272.793103,,0.011956522771622667,272.954,0.527999997138977,-2.4508196270826463
273.258621,,0.009895188667573936,273.424,0.5170000195503235,-2.47448065343214
273.724138,,0.010965067069683903,273.884,0.503000020980835,-2.5046521767902847
274.18965499999996,,0.01438134392932066,274.354,0.5260000228881836,-2.4541981598363307
274.655172,,0.01674348098144794,274.825,0.5210000276565552,-2.4647404440843608
275.12069,,0.015344317560318439,275.28,0.5379999876022339,-2.4273564641595216
275.586207,,0.010651179659043431,275.745,0.5419999957084656,-2.4183084096304057
276.051724,,0.0059421189117901735,276.21,0.5230000019073486,-2.459392720039811
276.517241,,0.004602262682126491,276.676,0.5120000243186951,-2.483081394848355
276.98275900000004,,0.007306725829755209,277.143,0.5450000166893005,-2.410951682669011
277.448276,,0.01154645170000757,277.609,0.5049999952316284,-2.497912383092153
277.913793,,0.013990195233362658,278.069,0.5419999957084656,-2.4171719542507306
278.37931,,0.013347800898193478,278.534,0.515999972820282,-2.4737453669577345
278.844828,,0.010957315291455912,279.002,0.5260000228881836,-2.451948629565728
279.31034500000004,,0.008838766541743176,279.465,0.5210000276565552,-2.4628939013028215
279.77586199999996,,0.00752263770799474,279.933,0.5260000228881836,-2.4521135124709104
280.241379,,0.0059667431392621696,280.395,0.5180000066757202,-2.4697133693701825
280.706897,,0.003353801076178899,280.866,0.5339999794960022,-2.435078530700849
281.172414,,0.00032614237458326184,281.328,0.5130000114440918,-2.4810999680166392
281.637931,,0.0017830066288999013,281.793,0.5379999876022339,-2.426942229239378
282.10344799999996,,0.0023546986094138524,282.256,0.5460000038146973,-2.409850297567981
282.568966,,0.0017277608907404806,282.722,0.5210000276565552,-2.46467243230456
283.034483,,0.0005029285414700409,283.187,0.5379999876022339,-2.42800008894617
283.5,,0.0009410739195225753,283.653,0.531000018119812,-2.443613019264031
283.965517,,0.0023945585568403063,284.12,0.527999997138977,-2.450498568199014
284.431034,,0.003504675126799485,284.579,0.550000011920929,-2.4028943444109867
284.89655200000004,,0.003581752816608162,285.044,0.515999972820282,-2.477261263384089
285.362069,,0.0019528054614117863,285.51,0.5400000214576721,-2.4252246361747316
285.827586,,0.0012575213970274677,285.98,0.4729999899864197,-2.571396973041841
286.293103,,0.00477169753236114,286.442,0.5419999957084656,-2.4212191914888197
286.758621,,0.0067857739548105095,286.91,0.515999972820282,-2.4779538642950794
287.22413800000004,,0.006182197576351012,287.372,0.5210000276565552,-2.467087548793502
287.689655,,0.0034548505344316667,287.836,0.5270000100135803,-2.4539790719337695
288.155172,,0.0005686053442734142,288.306,0.5389999747276306,-2.427735231244832
288.62069,,0.00042632424907605926,288.764,0.4880000054836273,-2.538685629232243
289.086207,,0.0009733143430129615,289.229,0.5379999876022339,-2.4295371856429497
289.55172400000004,,0.003470656966838975,289.695,0.531000018119812,-2.4445215237133833
290.01724099999996,,0.005407581023248789,290.162,0.5350000262260437,-2.4354974620452685
290.482759,,0.006244092923978236,290.627,0.5170000195503235,-2.4743696368252106
290.948276,,0.006667206893670748,291.092,0.5180000066757202,-2.4718239778711992
291.413793,,0.007819647827410688,291.558,0.5419999957084656,-2.419156464398381
291.87931,,0.010375826721470518,292.024,0.5249999761581421,-2.455811266343296
292.344828,,0.013359028876024037,292.49,0.5170000195503235,-2.472867451355252
292.81034500000004,,0.013850054541312653,292.95,0.5260000228881836,-2.452907647727271
293.275862,,0.009486917760256256,293.421,0.5249999761581421,-2.4547658296606736
293.74137900000005,,0.0019058129618297755,293.884,0.3869999945163727,-2.7551423647003235
294.206897,,0.0037173827338785955,294.346,0.5419999957084656,-2.4172289453803164
294.672414,,0.0035312886591393707,294.812,0.5199999809265137,-2.464994618835455
295.13793100000004,,0.001198746575583642,295.276,0.5260000228881836,-2.451818919749699
295.603448,,0.005476451258027246,295.742,0.5410000085830688,-2.4190995522693606
296.068966,,0.005203988813249722,296.206,0.43799999356269836,-2.6435274670578255
296.534483,,0.0005080500555281596,296.672,0.5370000004768372,-2.4279359738808446
297.0,,0.004843001061790002,297.135,0.515999972820282,-2.473846207444358
297.46551700000003,,0.007148582200986375,297.601,0.5180000066757202,-2.469705449571635
297.931034,,0.00597003666977841,298.066,0.5289999842643738,-2.44600888379157
298.396552,,0.0035670204059152083,298.531,0.5080000162124634,-2.492073025422214
298.862069,,0.0017628777381707987,298.999,0.515999972820282,-2.474991872977671
299.327586,,0.00037800811931684725,299.461,0.531000018119812,-2.442684991764628
299.79310300000003,,0.001394901064402759,299.924,0.5419999957084656,-2.4191060195956164
300.258621,,0.003300969669838188,300.394,0.5199999809265137,-2.4674240278820645
300.724138,,0.004231724059811332,300.855,0.5419999957084656,-2.419871835740855
301.189655,,0.003576544798339331,301.325,0.5149999856948853,-2.479052971162726
301.65517200000005,,0.0020472110715023563,301.791,0.5339999794960022,-2.4379854747495564
302.12069,,0.0013317767885007382,302.254,0.5379999876022339,-2.4295570766175203
302.586207,,0.0026329441233109664,302.719,0.5379999876022339,-2.4297937971722634
303.05172400000004,,0.005024536549000251,303.184,0.5249999761581421,-2.4582967341178867
303.517241,,0.005735335758961588,303.65,0.5410000085830688,-2.4235574191671376
303.982759,,0.0030457755299484277,304.11,0.5339999794960022,-2.438862148204809
304.448276,,0.0012271426635974832,304.575,0.5170000195503235,-2.4758869160387946
304.913793,,0.0031348200609093158,305.039,0.531000018119812,-2.445308226010142
305.37931000000003,,0.0008806901269942911,305.506,0.5080000162124634,-2.4952766335709757
305.844828,,0.002782876368351959,305.969,0.6100000143051147,-2.2728537443772434
306.310345,,0.0030995553882432973,306.439,0.5360000133514404,-2.4338168471189716
306.775862,,0.0015570350231039595,306.902,0.515999972820282,-2.477085529379575
307.241379,,0.007609860837456691,307.365,0.5299999713897705,-2.4462434914478903
307.70689699999997,,0.009779702586833696,307.833,0.515999972820282,-2.47637724759176
308.172414,,0.006269481964838413,308.295,0.5370000004768372,-2.4302425296435635
308.637931,,0.00021493679333349432,308.76,0.5299999713897705,-2.4451052790454284
309.103448,,0.003374981405587584,309.225,0.5370000004768372,-2.429473096358431
309.568966,,0.0019270658993345265,309.691,0.4880000054836273,-2.535863583199212
310.034483,,0.0026692299560408736,310.158,0.531000018119812,-2.441848108645423
310.5,,0.0061906971476842826,310.623,0.515999972820282,-2.4742334943625335
310.96551700000003,,0.006668031830358331,311.088,0.5299999713897705,-2.443485051803812
311.431034,,0.006148252771140428,311.554,0.5460000038146973,-2.4084329143402163
311.896552,,0.006962843609339429,312.021,0.5059999823570251,-2.4954443715732695
312.362069,,0.0075381513218182395,312.479,0.515999972820282,-2.473587302493592
312.827586,,0.004305501860852904,312.947,0.515999972820282,-2.4735829842809824
313.29310300000003,,0.0023559211742025686,313.409,0.5540000200271606,-2.390855255896859
313.758621,,0.0068815650468103855,313.88,0.5210000276565552,-2.4628743455688147
314.224138,,0.00472602135513582,314.342,0.531000018119812,-2.441270805340913
314.689655,,0.0018871984446303643,314.808,0.5379999876022339,-2.4262571944220337
315.155172,,0.006187449774205072,315.271,0.5099999904632568,-2.487543268077584
315.62068999999997,,0.003981174489065677,315.737,0.527999997138977,-2.44865075358653
316.086207,,0.002666594298249522,316.202,0.5180000066757202,-2.4707902646777664
316.551724,,0.007949556477385336,316.668,0.5289999842643738,-2.4471975593305557
317.017241,,0.007353620103353123,317.133,0.5139999985694885,-2.4802581642587307
317.482759,,0.0010449913603845997,317.598,0.5270000100135803,-2.4523140826822254
317.94827599999996,,0.006353228715279871,318.065,0.5339999794960022,-2.4374280775107513
318.413793,,0.009461810992086869,318.524,0.5339999794960022,-2.437767493896233
318.87931000000003,,0.0066336968696605585,318.991,0.5339999794960022,-2.4380718387462506
319.344828,,0.0012340511284107743,319.454,0.4959999918937683,-2.521121633119261
319.810345,,0.001756626350957371,319.921,0.527999997138977,-2.451616055516372
320.275862,,0.0005684064207452745,320.384,0.5450000166893005,-2.4147333085735347
320.741379,,0.002129929935027787,320.854,0.5339999794960022,-2.438790486719602
321.20689699999997,,0.0027037678525299366,321.317,0.5419999957084656,-2.4213881559070813
321.672414,,0.0003978867352845482,321.782,0.5910000205039978,-2.314594428882156
322.137931,,0.0026628985431059195,322.249,0.5540000200271606,-2.395097859324274
322.603448,,0.004226474634253587,322.715,0.5199999809265137,-2.469003151135451
323.068966,,0.0036387499992232225,323.181,0.515999972820282,-2.4774938832166225
323.53448299999997,,0.0015856354032053827,323.639,0.5199999809265137,-2.468507891916149
324.0,,0.0005305858364240086,324.106,0.515999972820282,-2.4769117821499047
324.465517,,0.0011725053679016502,324.572,0.5320000052452087,-2.4417122642182814
324.931034,,6.793769188692844e-05,325.037,0.5180000066757202,-2.47185176072924
325.396552,,0.0015870376877627722,325.502,0.5249999761581421,-2.456229871151656
325.86206899999996,,0.0012872466589513459,325.965,0.5460000038146973,-2.410107400702776
326.327586,,0.0006840434466265442,326.435,0.527999997138977,-2.4489631724687215
326.793103,,0.0019258329600095065,326.899,0.5199999809265137,-2.466054202725013
327.258621,,0.0010603439732500511,327.361,0.5360000133514404,-2.4308894008467385
327.724138,,0.0003334251354232128,327.825,0.5109999775886536,-2.48509006344277
328.189655,,3.427353495414026e-05,328.294,0.5299999713897705,-2.4434786742940755
328.655172,,0.0017022051134189626,328.76,0.5299999713897705,-2.443316092227095
329.12068999999997,,0.002613305150613191,329.224,0.5370000004768372,-2.4279614390110718
329.586207,,0.0014886466086091207,329.69,0.5270000100135803,-2.449705157058227
330.051724,,0.00036741958450185904,330.155,0.5270000100135803,-2.4497249886576946
330.517241,,0.0007781504050190689,330.614,0.5189999938011169,-2.4672362041313414
330.982759,,0.0008460318178476038,331.081,0.5270000100135803,-2.4499486893979787
331.44827599999996,,0.002933979199019861,331.547,0.515999972820282,-2.474111097256992
331.913793,,0.0033075149900048955,332.01,0.4729999899864197,-2.568040771972501
332.37931,,0.00100097820509474,332.48,0.5149999856948853,-2.476829521830937
332.844828,,0.0031701490711105126,332.943,0.515999972820282,-2.4749775794720907
333.310345,,0.007178752652876827,333.406,0.5210000276565552,-2.464434860827444
333.77586199999996,,0.008802588442924118,333.873,0.515999972820282,-2.4756922615551353
334.241379,,0.006925807942827601,334.336,0.5329999923706055,-2.4390215523046925
334.706897,,0.002838777281127063,334.801,0.5379999876022339,-2.428485533704665
335.17241399999995,,6.795945436197955e-05,335.264,0.5149999856948853,-2.4789319391915203
335.637931,,0.0013952694540864423,335.729,0.5149999856948853,-2.479240551041792
336.103448,,0.005168429242482003,336.195,0.5419999957084656,-2.4206876955048116
336.56896600000005,,0.005958733872772917,336.66,0.5419999957084656,-2.420911637277495
337.034483,,0.0005626323797976778,337.125,0.5299999713897705,-2.4472259989308016
337.5,,0.007527218968672905,337.591,0.5299999713897705,-2.4473387887353355
337.965517,,0.011548271613411732,338.058,0.531000018119812,-2.4452122953756223
338.431034,,0.008883566264193099,338.524,0.515999972820282,-2.4778828994282396
338.89655200000004,,0.003115372652833713,338.984,0.5419999957084656,-2.421167917717252
339.36206899999996,,0.0011286710540540034,339.454,0.5389999747276306,-2.4275748086951685
339.827586,,0.0030356647692259286,339.917,0.5419999957084656,-2.4208543773969
340.293103,,0.004345121204557724,340.379,0.5230000019073486,-2.4620150047424874
340.758621,,0.0053246977949228955,340.847,0.5210000276565552,-2.4660972028620938
341.224138,,0.004591955188573291,341.309,0.515999972820282,-2.4766830861371636
341.68965499999996,,0.0025377411127925826,341.775,0.5320000052452087,-2.441493906526127
342.155172,,0.0021456032849992757,342.239,0.5210000276565552,-2.4651146246724944
342.62069,,0.005269169927094103,342.704,0.5350000262260437,-2.4342655780023916
343.086207,,0.00975147399963175,343.169,0.5320000052452087,-2.4404600209197986
343.551724,,0.011585188287065175,343.635,0.5370000004768372,-2.429241413557692
344.01724099999996,,0.00921136069223838,344.102,0.5170000195503235,-2.47251489481877
344.48275900000004,,0.0047815159288310555,344.568,0.5230000019073486,-2.4591787010405444
344.948276,,0.0017398797682688513,345.032,0.5529999732971191,-2.3935972426677434
345.413793,,0.0021362690377239976,345.498,0.5189999938011169,-2.4674972159368624
345.87931,,0.00587213213465345,345.966,0.5210000276565552,-2.4630193093610826
346.344828,,0.010918653548385589,346.428,0.5210000276565552,-2.462956116202081
346.81034500000004,,0.013695762177730756,346.895,0.503000020980835,-2.5021677995638965
347.275862,,0.01095091647111785,347.357,0.5379999876022339,-2.4259700852121764
347.741379,,0.003163800344173625,347.828,0.5149999856948853,-2.476190371034864
348.206897,,0.004373156988805482,348.284,0.515999972820282,-2.4741760430156114
348.672414,,0.00581262523977637,348.749,0.5339999794960022,-2.435172432474866
349.13793100000004,,0.0006863912011682227,349.214,0.527999997138977,-2.448497009818353
349.60344799999996,,0.005570767581852558,349.68,0.5389999747276306,-2.4248172150137437
350.068966,,0.007529472717507774,350.147,0.5329999923706055,-2.438198135212279
350.534483,,0.004947425069693524,350.612,0.5210000276565552,-2.4646656754525496
351.0,,0.0012876639761361377,351.076,0.5270000100135803,-2.4519232532453183
351.465517,,0.0012777862979867355,351.542,0.5299999713897705,-2.4457126742227313
351.93103399999995,,0.00333838603867152,352.006,0.5370000004768372,-2.4307733309397674
352.396552,,0.005422742789937651,352.476,0.5329999923706055,-2.4397759193367117
352.862069,,0.006255656251266403,352.936,0.5360000133514404,-2.433496304716069
353.32758600000005,,0.0047541352568180335,353.399,0.5370000004768372,-2.4315351449203115
353.793103,,0.002404698736392137,353.869,0.5199999809265137,-2.4687449336606706
354.258621,,0.0023570163064749673,354.331,0.5199999809265137,-2.468868808082838
354.72413800000004,,0.006177610782764879,354.797,0.5419999957084656,-2.4210101902762107
355.189655,,0.01202426806235355,355.26,0.5370000004768372,-2.431920507965629
355.655172,,0.01618366388596442,355.726,0.5529999732971191,-2.3970240307687654
356.12069,,0.01626975423417259,356.191,0.5170000195503235,-2.4753636391360074
356.586207,,0.01301844203348857,356.657,0.6460000276565552,-2.1941744500896636
357.05172400000004,,0.009421536621959742,357.121,0.5139999985694885,-2.4815640281767646
357.517241,,0.008314023747829767,357.586,0.515999972820282,-2.476974486421385
357.982759,,0.010304164180142667,358.051,0.5460000038146973,-2.411351677062872
358.448276,,0.013426025304556466,358.518,0.5440000295639038,-2.415421702564211
358.913793,,0.014871104998123821,358.98,0.5170000195503235,-2.4739428619886112
359.37931000000003,,0.013637872075962537,359.45,0.5199999809265137,-2.467099537310285
359.844828,,0.011653729625469036,359.91,0.5630000233650208,-2.3731137285411
360.310345,,0.011781095700407964,360.38,0.5270000100135803,-2.451252924362711
360.775862,,0.01440027745373456,360.843,0.527999997138977,-2.4488027094098923
361.241379,,0.016466202111302418,361.306,0.5669999718666077,-2.363592165563343
361.706897,,0.014515449447018295,361.772,0.5339999794960022,-2.4352786317876705
362.172414,,0.00836248604289474,362.236,0.5210000276565552,-2.463432928943419
362.63793100000004,,0.0013167005924238856,362.701,0.5370000004768372,-2.4284528261121032
363.103448,,0.003113393904805881,363.165,0.5419999957084656,-2.417486756589634
363.568966,,0.004312930438083402,363.631,0.5220000147819519,-2.461037335435508
364.034483,,0.004436711925086587,364.095,0.550000011920929,-2.4000635306347182
364.5,,0.005571118877753531,364.561,0.5260000228881836,-2.452428592800567
364.96551700000003,,0.007343999856590472,365.025,0.5339999794960022,-2.435123554297285
365.431034,,0.007622666449844565,365.491,0.515999972820282,-2.4745062060904663
365.896552,,0.005475219007566292,365.954,0.5379999876022339,-2.42678045346487
366.362069,,0.0027385238566992372,366.424,0.5339999794960022,-2.4357303699535007
366.827586,,0.002001552167930573,366.884,0.5180000066757202,-2.470847470619039
367.29310300000003,,0.0032230431185413994,367.354,0.5339999794960022,-2.4362638317740184
367.758621,,0.0032687677764879344,367.825,0.5540000200271606,-2.392972369979244
368.224138,,0.0005692315157760386,368.28,0.5419999957084656,-2.4193954948432124
368.689655,,0.007139916042333071,368.745,0.5249999761581421,-2.4567016811319067
369.155172,,0.012467580017483255,369.21,0.546999990940094,-2.4090229237592626
369.62068999999997,,0.014004998198817552,369.675,0.5210000276565552,-2.465894505973519
370.086207,,0.0128649609392251,370.14,0.5199999809265137,-2.468269451390711
370.55172400000004,,0.01187719146995422,370.606,0.5210000276565552,-2.4662513829466137
371.017241,,0.012504053745041196,371.073,0.5070000290870667,-2.496873534195925
371.482759,,0.014014596833351779,371.539,0.5009999871253967,-2.5100244153409896
371.948276,,0.01475247115818145,371.999,0.5210000276565552,-2.4664862316397422
372.413793,,0.013228273385769422,372.469,0.5419999957084656,-2.4207238407766636
372.87931000000003,,0.008313454545386338,372.932,0.5260000228881836,-2.4555254165497393
373.344828,,0.00016107206621612336,373.394,0.5299999713897705,-2.446710385916715
373.810345,,0.010314977328722937,373.865,0.531000018119812,-2.444390707499559
374.275862,,0.01883100460008654,374.328,0.5490000247955322,-2.4049976952103633
374.741379,,0.02389613239399294,374.793,0.5379999876022339,-2.428754233634785
375.20689699999997,,0.027313603532984152,375.256,0.531000018119812,-2.44377126678704
375.672414,,0.03270537922055187,375.722,0.5239999890327454,-2.4587713741862105
376.137931,,0.04116601573933029,376.187,0.5289999842643738,-2.4476184380015096
376.603448,,0.04914188084305422,376.652,0.5540000200271606,-2.392890467571286
377.068966,,0.051500384216130825,377.117,0.5009999871253967,-2.5081030528428023
377.53448299999997,,0.046833125549579496,377.583,0.5320000052452087,-2.44032322873514
378.0,,0.03868929290085684,378.048,0.5360000133514404,-2.431387988548865
378.465517,,0.031257634113662974,378.514,0.5299999713897705,-2.444266112704289
378.931034,,0.02547373960780112,378.976,0.550000011920929,-2.4005312259254006
379.396552,,0.0204352928360204,379.439,0.5460000038146973,-2.409120049065967
379.862069,,0.01670272286310935,379.91,0.503000020980835,-2.5027162015983566
380.327586,,0.01573912124988063,380.372,0.5249999761581421,-2.45474388662348
380.79310300000003,,0.016716148248606795,380.84,0.527999997138977,-2.4482102190768993
381.258621,,0.016250007080468948,381.302,0.5239999890327454,-2.4569707524383353
381.724138,,0.011734506681866062,381.768,0.5210000276565552,-2.4635945655534575
382.189655,,0.003726411421734645,382.233,0.5180000066757202,-2.470257826842077
382.655172,,0.004883795144841003,382.698,0.5329999923706055,-2.437740478901106
383.12068999999997,,0.010955530658660699,383.165,0.5379999876022339,-2.427038962128418
383.586207,,0.012849517123597828,383.631,0.5400000214576721,-2.4228962078365743
384.051724,,0.01171994063498489,384.095,0.5839999914169312,-2.327265672311744
384.517241,,0.01108332432838395,384.561,0.5519999861717224,-2.397219782883082
384.982759,,0.013710610724064714,385.025,0.5180000066757202,-2.471532521013331
385.44827599999996,,0.018487234030465753,385.49,0.527999997138977,-2.449980913043354
385.913793,,0.0211254855032217,385.951,0.5170000195503235,-2.474170749751509
386.37931,,0.01859267620749923,386.421,0.5379999876022339,-2.428627232194354
386.84482799999995,,0.012723184494200748,386.884,0.5299999713897705,-2.446241495596066
387.310345,,0.008952166589714853,387.346,0.527999997138977,-2.45075553109043
387.775862,,0.011086875329225946,387.812,0.5440000295639038,-2.4160212383737685
388.241379,,0.017459794558277876,388.276,0.5180000066757202,-2.472754302522874
388.70689699999997,,0.022637507942476657,388.742,0.5270000100135803,-2.453196802241858
389.172414,,0.022863376899702297,389.207,0.5289999842643738,-2.4488510805620014
389.637931,,0.019395995237840007,389.672,0.515999972820282,-2.477146194612256
390.103448,,0.01655992626651049,390.136,0.5210000276565552,-2.466188025060254
390.56896600000005,,0.017121031268193306,390.602,0.5410000085830688,-2.4225146181540262
391.03448299999997,,0.019877590542890244,391.069,0.5429999828338623,-2.4180234826351903
391.5,,0.021518960573100557,391.535,0.5389999747276306,-2.426574462762572
391.965517,,0.020358627334519562,391.995,0.5410000085830688,-2.422028704463361
392.431034,,0.017724484392926235,392.465,0.5149999856948853,-2.478466599024002
392.896552,,0.015587349465572806,392.925,0.5239999890327454,-2.45863995088029
393.36206899999996,,0.013716526952503527,393.395,0.5289999842643738,-2.4475226116970776
393.827586,,0.010353643493709026,393.858,0.5289999842643738,-2.447299336992326
394.293103,,0.005599135656152906,394.32,0.515999972820282,-2.4754059162950544
394.75862099999995,,0.002620856797983283,394.786,0.515999972820282,-2.475204045945243
395.224138,,0.004374828699602349,395.25,0.5339999794960022,-2.435806065989001
395.68965499999996,,0.009635738878670603,395.715,0.4779999852180481,-2.5576531402623166
396.155172,,0.01336312488535849,396.18,0.5440000295639038,-2.4137347133376714
396.62069,,0.011243722630420906,396.645,0.5249999761581421,-2.4550337409472687
397.086207,,0.0037409121663784213,397.11,0.5379999876022339,-2.426649523589565
397.551724,,0.004140075173784002,397.576,0.531000018119812,-2.441873342851399
398.017241,,0.0071761282348207925,398.043,0.5299999713897705,-2.4440609998564637
398.48275900000004,,0.0045487793467418915,398.509,0.47999998927116394,-2.5530384364982113
398.94827599999996,,0.0003482654713846307,398.969,0.531000018119812,-2.4420077262657753
399.413793,,0.0005358766235523864,399.439,0.5230000019073486,-2.4595494241668727
399.87931,,0.0032391938287361765,399.903,0.515999972820282,-2.4749404596894324
400.344828,,0.008974900772542295,400.365,0.5419999957084656,-2.418459560177737
400.810345,,0.012786615698790875,400.829,0.527999997138977,-2.4491427987699264
401.27586199999996,,0.012665999930617221,401.298,0.5170000195503235,-2.4733030645453153
401.741379,,0.009626842850112942,401.763,0.531000018119812,-2.4430049394981537
402.206897,,0.006590122516687335,402.229,0.5249999761581421,-2.4562816662166194
402.672414,,0.005924823510020217,402.694,0.5759999752044678,-2.3453702989898075
403.137931,,0.007525075544720836,403.154,0.5410000085830688,-2.4218110059545377
403.60344799999996,,0.009173444442014175,403.62,0.5199999809265137,-2.467734727275505
404.068966,,0.009024302492970463,404.085,0.5519999861717224,-2.3981702373381797
404.534483,,0.007567735624968267,404.551,0.5170000195503235,-2.4745513811617132
405.0,,0.006530392847791688,405.025,0.5540000200271606,-2.3940428628888073
405.465517,,0.006092453236338611,405.483,0.5120000243186951,-2.485618285415744
405.931034,,0.004627677132184622,405.951,0.5139999985694885,-2.481303141469637
406.39655200000004,,0.0016682270610477946,406.413,0.5180000066757202,-2.472600450525826
406.862069,,0.0004791422796741829,406.874,0.4959999918937683,-2.5205127830116925
407.327586,,0.0005514337635679615,407.343,0.5180000066757202,-2.472535717870385
407.793103,,0.003694056691224007,407.808,0.5339999794960022,-2.4376026755228968
408.258621,,0.005218498409346885,408.272,0.5339999794960022,-2.437501203803729
408.72413800000004,,0.002962601588448266,408.738,0.4880000054836273,-2.537594252526845
409.18965499999996,,0.0013016017622818888,409.202,0.5170000195503235,-2.4742700125858352
409.655172,,0.003884412864075552,409.667,0.5170000195503235,-2.4741116892465214
410.12069,,0.00270777746445445,410.132,0.5299999713897705,-2.4456195307891995
410.586207,,0.001269643355301834,410.598,0.531000018119812,-2.4432634374898714
411.05172400000004,,0.005216717512389476,411.066,0.5270000100135803,-2.4517976453660766
411.51724099999996,,0.0066463028311229706,411.524,0.515999972820282,-2.475584460933609
411.982759,,0.005115479994593131,411.995,0.5239999890327454,-2.4579838167768453
412.448276,,0.002311484928284185,412.457,0.5299999713897705,-2.444751779009557
412.913793,,0.000550501289315368,412.925,0.5540000200271606,-2.3923184629943473
413.37931,,0.0010038232405670245,413.388,0.546999990940094,-2.407440896301287
413.844828,,0.002954612808214214,413.851,0.5440000295639038,-2.4138692837758744
414.31034500000004,,0.00450294157851143,414.32,0.5210000276565552,-2.4638950093879597
414.775862,,0.004229179273809189,414.786,0.515999972820282,-2.474732733395877
415.241379,,0.0024289116297104793,415.25,0.5189999938011169,-2.4681708024460742
415.706897,,0.0007923933281386443,415.709,0.5339999794960022,-2.4354953381996247
416.172414,,0.0010193922845094644,416.18,0.5210000276565552,-2.463851693704334
416.63793100000004,,0.003471820718259851,416.645,0.5170000195503235,-2.472629570124367
417.103448,,0.006480212178332255,417.11,0.5299999713897705,-2.444398288111161
417.568966,,0.007285236696741802,417.576,0.5450000166893005,-2.4118342517734206
418.034483,,0.004865975996845143,418.036,0.5360000133514404,-2.431579009613348
418.5,,0.0016680951332056191,418.502,0.5149999856948853,-2.477485618472468
418.96551700000003,,0.0011096402152674775,418.969,0.5210000276565552,-2.464583367397033
419.43103399999995,,0.0034530640353018166,419.432,0.527999997138977,-2.449513029760442
419.896552,,0.005718279038148787,419.895,0.5090000033378601,-2.4910931070202578
420.362069,,0.005771540413337968,420.365,0.531000018119812,-2.4433493643007878
420.827586,,0.004731489212845692,420.825,0.5230000019073486,-2.4609606273996323
421.293103,,0.004618048617543197,421.295,0.5270000100135803,-2.4524183605251317
421.758621,,0.005121808269343165,421.754,0.5419999957084656,-2.4198962969746995
422.22413800000004,,0.004102499904593284,422.221,0.5249999761581421,-2.457071629769128
422.689655,,0.0007377068618832251,422.687,0.5260000228881836,-2.4550082141360603
423.15517200000005,,0.003085299052641821,423.151,0.5410000085830688,-2.4224176551500607
423.62069,,0.004717152014318805,423.617,0.5170000195503235,-2.4747654598959894
424.086207,,0.003581732108965988,424.083,0.5379999876022339,-2.429043648536884
424.55172400000004,,0.0017973141086760243,424.549,0.5249999761581421,-2.4573642720665703
425.017241,,0.0019472402722242761,425.01,0.5360000133514404,-2.4333653424406227
425.482759,,0.00448294745977159,425.48,0.5210000276565552,-2.465980296724444
425.948276,,0.007660889685029815,425.943,0.5339999794960022,-2.4375638298242355
426.413793,,0.009582203831527952,426.406,0.5199999809265137,-2.4679438241069045
426.87931000000003,,0.009494585797841041,426.869,0.5379999876022339,-2.4285831249512935
427.344828,,0.007582692558643718,427.339,0.515999972820282,-2.476348319281826
427.810345,,0.004757486477239819,427.805,0.550000011920929,-2.402093129132132
428.275862,,0.002617412724990755,428.268,0.6499999761581421,-2.1840334586286962
428.741379,,0.002483661505277266,428.733,0.5519999861717224,-2.3973352625818722
429.20689699999997,,0.004100174546171372,429.198,0.5090000033378601,-2.4908088407741364
429.672414,,0.005747125789972217,429.664,0.5210000276565552,-2.4644634823260714
430.137931,,0.0058442224082818975,430.128,0.5080000162124634,-2.492597726398106
430.603448,,0.004343762824876601,430.594,0.5360000133514404,-2.431425893851778
431.068966,,0.002571436968917782,431.058,0.5270000100135803,-2.450887011460556
431.534483,,0.0018555112572122287,431.525,0.527999997138977,-2.44858874425677
432.0,,0.0024640042486928013,431.988,0.5389999747276306,-2.4245346294341497
432.46551700000003,,0.0037145037358161798,432.45,0.515999972820282,-2.474587922708396
432.931034,,0.0045668900445623994,432.914,0.5249999761581421,-2.4549601048576184
433.396552,,0.003993034558599338,433.383,0.5419999957084656,-2.4179392917653146
433.862069,,0.0014996191356748292,433.844,0.5199999809265137,-2.4659214518439447
434.327586,,0.0021880229108350562,434.313,0.5339999794960022,-2.4355067450998797
434.79310300000003,,0.005338375006438377,434.778,0.5210000276565552,-2.463947833279619
435.258621,,0.0065245583992410506,435.242,0.5260000228881836,-2.453202607869453
435.724138,,0.005603696645687443,435.707,0.5320000052452087,-2.440303840402205
436.189655,,0.003482832533994359,436.176,0.5210000276565552,-2.464462108918574
436.655172,,0.0015061948689702024,436.634,0.5249999761581421,-2.455955613225908
437.12068999999997,,0.0010616547676296718,437.099,0.5170000195503235,-2.4736017494230897
437.586207,,0.0026622609263006816,437.564,0.5180000066757202,-2.4716431310030655
438.051724,,0.004618772162198456,438.036,0.5400000214576721,-2.4239290514657412
438.517241,,0.0034756775712399064,438.494,0.5180000066757202,-2.472065030775791
438.982759,,0.0027142408605609347,438.962,0.546999990940094,-2.4090730941540395
439.448276,,0.011223232948527832,439.424,0.5210000276565552,-2.4658841143569523
439.913793,,0.015861499435712238,439.895,0.5249999761581421,-2.457308563731336
440.37931000000003,,0.012610781368504206,440.357,0.5410000085830688,-2.422557556810412
440.844828,,0.004204871042090821,440.825,0.5139999985694885,-2.481453570897038
441.310345,,0.0018949178672032763,441.287,0.5239999890327454,-2.459702766787204
441.775862,,0.0008159711128006243,441.753,0.5130000114440918,-2.4836657907250856
442.241379,,0.004994991905206677,442.218,0.5170000195503235,-2.4749113198294546
442.70689699999997,,0.00885277488735361,442.684,0.5230000019073486,-2.4617626443321163
443.172414,,0.006679609119407866,443.151,0.5249999761581421,-2.457293235123529
443.637931,,6.656316443647895e-05,443.609,0.5329999923706055,-2.439719146364992
444.103448,,0.006152337637954133,444.074,0.515999972820282,-2.4765826307790593
444.568966,,0.008034591193746632,444.54,0.5170000195503235,-2.4742068687753545
445.03448299999997,,0.0051572202929164,445.01,0.5289999842643738,-2.447848353299098
445.5,,0.0005539262853357816,445.473,0.5329999923706055,-2.438906731189022
445.965517,,0.0021321218998971363,445.936,0.5429999828338623,-2.4168870276784373
446.431034,,0.0019731602742333832,446.405,0.5379999876022339,-2.4275472564043223
446.896552,,0.0007909157153352752,446.866,0.5379999876022339,-2.427321364317149
447.36206899999996,,0.00018668061609306892,447.335,0.5379999876022339,-2.427109454068426
447.827586,,0.002181739769744306,447.794,0.531000018119812,-2.4421685829809165
448.29310300000003,,0.00616474268731593,448.264,0.5170000195503235,-2.472505322529742
448.758621,,0.009607795476769147,448.73,0.5210000276565552,-2.463659117422903
449.224138,,0.008349226062837646,449.195,0.5139999985694885,-2.4788153669370017
449.689655,,0.0019402092026354547,449.66,0.5429999828338623,-2.4155802332169722
450.155172,,0.004792444177437385,450.125,0.5339999794960022,-2.4351749446690607
450.62068999999997,,0.006469244833853542,450.591,0.5210000276565552,-2.463526148765675
451.086207,,0.0023869916269893144,451.05,0.5170000195503235,-2.472311903279583
451.551724,,0.0035983179586922256,451.516,0.5210000276565552,-2.463709275698423
452.017241,,0.007214332597604153,451.984,0.5239999890327454,-2.457323118533071
452.482759,,0.0068316044070275295,452.446,0.49000000953674316,-2.5315808537032023
452.94827599999996,,0.003638561310229035,452.914,0.5270000100135803,-2.4511838075805397
453.413793,,0.0006233202590042975,453.377,0.5339999794960022,-2.436168484471364
453.87931,,0.000999224775646823,453.84,0.5270000100135803,-2.4516685279548835
454.344828,,0.005614020060144862,454.31,0.5339999794960022,-2.4366746010616005
454.810345,,0.011351393100713102,454.775,0.5299999713897705,-2.4456450167279877
455.27586199999996,,0.013381269196023848,455.239,0.5299999713897705,-2.445892382854121
455.741379,,0.00967642008731999,455.705,0.5320000052452087,-2.4417664831638985
456.206897,,0.0028795730454343736,456.17,0.515999972820282,-2.476833680303416
456.672414,,0.0022823355653614993,456.635,0.5270000100135803,-2.453048386297362
457.137931,,0.003058549996717366,457.095,0.5379999876022339,-2.429228474456062
457.603448,,0.00048524610081560445,457.561,0.5199999809265137,-2.4685497126664924
458.06896600000005,,0.0022332615492838,458.028,0.5130000114440918,-2.4838632330974932
458.53448299999997,,0.002870537306210668,458.494,0.5329999923706055,-2.4403088562263573
459.0,,0.0016010430375341745,458.954,0.5139999985694885,-2.4816761089074766
459.465517,,0.00037883424372690323,459.424,0.5239999890327454,-2.4598175421919914
459.931034,,0.002625261542883117,459.887,0.527999997138977,-2.450987521743347
460.39655200000004,,0.005190306134274963,460.35,0.5210000276565552,-2.46608219686435
460.86206899999996,,0.007285714634734026,460.816,0.5339999794960022,-2.437567964361355
461.327586,,0.007442602155074974,461.282,0.5189999938011169,-2.4700250875236613
461.793103,,0.005323497897786801,461.748,0.515999972820282,-2.476314636770818
462.258621,,0.002660539778752905,462.213,0.5199999809265137,-2.4673372520702106
462.724138,,0.0017940861141624467,462.679,0.515999972820282,-2.4757805020910544
463.18965499999996,,0.0033727638557672812,463.143,0.5170000195503235,-2.4733299041044003
463.655172,,0.005622081572613916,463.609,0.5170000195503235,-2.4730657324445846
464.12069,,0.005749354632077712,464.073,0.5170000195503235,-2.4728171575205344
464.58620699999994,,0.0024519497430764117,464.538,0.5249999761581421,-2.4551624535606673
465.051724,,0.0022525863935037877,464.999,0.503000020980835,-2.5028970038694136
465.517241,,0.004144491523208347,465.469,0.5270000100135803,-2.4504500385458203
465.98275900000004,,0.001065627792095855,465.932,0.5249999761581421,-2.4546887661931014
466.448276,,0.003929383102350075,466.394,0.5289999842643738,-2.445899624940402
466.913793,,0.005014069579730608,466.865,0.531000018119812,-2.441514223064255
467.37931,,0.00029095389782100617,467.328,0.5249999761581421,-2.4546058181921606
467.844828,,0.008118497510740301,467.794,0.5199999809265137,-2.4655663644448684
468.31034500000004,,0.01189332066946847,468.256,0.5239999890327454,-2.456965354733675
468.77586199999996,,0.008746820264070913,468.722,0.5170000195503235,-2.47237278226365
469.241379,,0.0018859867007878063,469.187,0.5419999957084656,-2.418102273700282
469.706897,,0.0031326109513998765,469.653,0.5479999780654907,-2.4052583676119017
470.172414,,0.0035059643429334137,470.118,0.515999972820282,-2.475228793057085
470.63793100000004,,0.0006011175043712936,470.584,0.5260000228881836,-2.453715129746289
471.10344799999996,,0.0021826327095788136,471.051,0.5339999794960022,-2.436570430246363
471.568966,,0.0022807109897466766,471.509,0.515999972820282,-2.4760735246839163
472.034483,,0.00017781256228157472,471.977,0.5230000019073486,-2.4611052219993392
472.5,,0.002751981864360971,472.44,0.5170000195503235,-2.4744460793672878
472.965517,,0.0035496492911704846,472.91,0.515999972820282,-2.4768725430885654
473.43103399999995,,0.003469622124844162,473.372,0.527999997138977,-2.450947499922624
473.89655200000004,,0.00445151417286464,473.836,0.492000013589859,-2.529562197146268
474.362069,,0.005899808328633602,474.306,0.5299999713897705,-2.446916151697191
474.827586,,0.0048137167005362375,474.764,0.5960000157356262,-2.303220270675416
475.293103,,0.00016571005712985348,475.229,0.5360000133514404,-2.4339815156609355
475.758621,,0.00442769877062047,475.695,0.5149999856948853,-2.4797224942384783
476.22413800000004,,0.003988838333134491,476.162,0.5339999794960022,-2.438265997859522
476.689655,,0.002130576157902268,476.627,0.5180000066757202,-2.4730122001893964
477.155172,,0.008912038022917344,477.091,0.5329999923706055,-2.440173399220026
477.62069,,0.010271806529581713,477.557,0.5379999876022339,-2.4290781891154145
478.086207,,0.00484043231001256,478.025,0.5139999985694885,-2.481126632152715
478.55172400000004,,0.0025533350746394013,478.49,0.5260000228881836,-2.4547140261511675
479.01724099999996,,0.005123062264820233,478.954,0.5210000276565552,-2.4653167825498588
479.482759,,0.0005059783621093618,479.417,0.5419999957084656,-2.4192611182154287
479.948276,,0.00680904662615457,479.88,0.5139999985694885,-2.4799543932180876
480.413793,,0.00983292814911002,480.35,0.5210000276565552,-2.464399813762673
480.87931000000003,,0.005902170027166648,480.816,0.527999997138977,-2.4488595271884472
481.344828,,0.0011760885011362235,481.274,0.49000000953674316,-2.5313815739868013
481.810345,,0.005512067311933846,481.739,0.5130000114440918,-2.481038182700759
482.275862,,0.004839174063057317,482.206,0.515999972820282,-2.4743069215434557
482.74137900000005,,0.0016550702752976159,482.672,0.5249999761581421,-2.454547984232411
483.206897,,0.000291788249272047,483.136,0.5419999957084656,-2.4174080862168994
483.672414,,0.000571410082380002,483.601,0.515999972820282,-2.4740014194549365
484.13793100000004,,0.003396079768471907,484.066,0.5239999890327454,-2.4565741077808165
484.603448,,0.006421355631936995,484.532,0.531000018119812,-2.441379204368908
485.068966,,0.008140380026987951,484.995,0.5419999957084656,-2.4175216137053916
485.534483,,0.00816042201501559,485.464,0.5299999713897705,-2.4438215442628217
486.0,,0.007577714120102844,485.926,0.5339999794960022,-2.4353074470132907
486.46551700000003,,0.007659244314060564,486.389,0.5299999713897705,-2.444261519025868
486.931034,,0.007892388136579765,486.858,0.5379999876022339,-2.4271038028884253
487.396552,,0.006546859985550028,487.32,0.5299999713897705,-2.444828743207088
487.862069,,0.003593420400652025,487.786,0.531000018119812,-2.442961501627402
488.327586,,0.0014996818431610578,488.25,0.5260000228881836,-2.454173209860506
488.79310300000003,,0.0019424677330248867,488.716,0.5419999957084656,-2.4196308839721756
489.258621,,0.003017388942155858,489.18,0.5210000276565552,-2.4656865841663738
489.724138,,0.0015452524110875741,489.645,0.49000000953674316,-2.5335090919458674
490.189655,,0.002432841724107992,490.11,0.5210000276565552,-2.4662279494584247
490.655172,,0.005437536788862746,490.576,0.5699999928474426,-2.3596946211871783
491.12069,,0.004946813980635455,491.044,0.5170000195503235,-2.475338562122134
491.586207,,0.0023604704341045587,491.509,0.5419999957084656,-2.420998276050168
492.05172400000004,,0.000988644976714537,491.97,0.5149999856948853,-2.479894555796389
492.517241,,0.002178478287382061,492.439,0.5249999761581421,-2.4581255166719136
492.982759,,0.004243901185143581,492.902,0.5320000052452087,-2.4428361627079243
493.448276,,0.004760995376609143,493.365,0.5419999957084656,-2.420954891808278
493.913793,,0.00310716323165537,493.836,0.515999972820282,-2.4774513794897013
494.37931000000003,,0.0006697421896236834,494.298,0.5249999761581421,-2.4576460993643745
494.844828,,0.0007128032623003798,494.764,0.5299999713897705,-2.4465120087043717
495.310345,,3.954803156703952e-05,495.228,0.5210000276565552,-2.465842079653086
495.775862,,0.0030028458990054036,495.694,0.5370000004768372,-2.430677198311131
496.241379,,0.007009716500130148,496.158,0.5870000123977661,-2.321416749355829
496.70689699999997,,0.009462152706777206,496.623,0.515999972820282,-2.4757603159679658
497.172414,,0.007776760891060861,497.087,0.5299999713897705,-2.4449175160221412
497.637931,,0.0024440271356913493,497.553,0.5270000100135803,-2.451121648157829
498.103448,,0.001932664448268878,498.018,0.5099999904632568,-2.4878471325678726
498.568966,,0.0007428977940256305,498.484,0.5379999876022339,-2.4265631076617935
499.03448299999997,,0.004931629000066358,498.947,0.5370000004768372,-2.428497506233799
499.5,,0.008695983520710101,499.409,0.5339999794960022,-2.4348340121394854
499.96551700000003,,0.006158394393183604,499.877,0.5239999890327454,-2.456472314847374
500.431034,,0.00015427099936498985,500.34,0.5419999957084656,-2.417164640215612
500.89655200000004,,0.003093174618974036,500.805,0.5199999809265137,-2.4650622425883375
501.362069,,0.001693805578173058,501.276,0.5379999876022339,-2.425874634401208
501.827586,,0.0004445319155569571,501.734,0.5400000214576721,-2.421605449565884
502.293103,,0.00039228688109019336,502.199,0.5329999923706055,-2.4370018561771265
502.758621,,0.0028199393554969314,502.664,0.5249999761581421,-2.454630942001214
503.224138,,0.0026359966163296018,503.13,0.5410000085830688,-2.420020961247185
503.68965499999996,,0.0015164480901535677,503.596,0.5329999923706055,-2.4377399273463505
504.15517200000005,,0.006452768688468908,504.062,0.5419999957084656,-2.4184545629759504
504.62068999999997,,0.008123778378015442,504.527,0.5299999713897705,-2.444944307544335
505.08620699999994,,0.005891588371574429,504.995,0.5260000228881836,-2.4540183295356592
505.55172400000004,,0.002957282082892186,505.458,0.5389999747276306,-2.4260586795759904
506.017241,,0.0029057030051210576,505.921,0.5429999828338623,-2.4176986125331252
506.48275899999993,,0.0058859572165136965,506.391,0.527999997138977,-2.4507139859407503
506.948276,,0.008159801697884337,506.851,0.5149999856948853,-2.47934382436022
507.413793,,0.005603894013360011,507.32,0.5339999794960022,-2.438219610284239
507.87931,,0.0020872458619436234,507.779,0.5419999957084656,-2.4210142413918194
508.344828,,0.01057845966036167,508.249,0.5379999876022339,-2.429898836550967
508.810345,,0.014468314769628636,508.715,0.5180000066757202,-2.47358276914128
509.27586199999996,,0.012038249776717445,509.18,0.5170000195503235,-2.475810466773455
509.74137900000005,,0.006547863256418828,509.645,0.5199999809265137,-2.4692601584240856
510.20689699999997,,0.0029219186764623145,510.11,0.515999972820282,-2.4778966765599533
510.67241399999995,,0.0035759441957954824,510.569,0.5410000085830688,-2.4232900071854715
511.13793100000004,,0.007329402203867119,511.036,0.5419999957084656,-2.420911506536506
511.603448,,0.011190044968052967,511.502,0.5379999876022339,-2.429371739963364
512.0689659999999,,0.012558995634488812,511.965,0.5419999957084656,-2.4203554495997963
512.534483,,0.01066050425746235,512.435,0.5519999861717224,-2.3982284006864627
513.0,,0.006935855368447004,512.899,0.5339999794960022,-2.4370744368513515
513.465517,,0.004052434374829942,513.361,0.5540000200271606,-2.3931136405780284
513.931034,,0.003965954983510047,513.825,0.5419999957084656,-2.4188630956010577
514.396552,,0.006500378964259076,514.294,0.5360000133514404,-2.431545992788583
514.862069,,0.009636409110377487,514.76,0.5239999890327454,-2.4573188434051008
515.327586,,0.011242056631776642,515.224,0.5199999809265137,-2.4656924871528374
515.793103,,0.010552098614469835,515.69,0.5260000228881836,-2.4523204000176566
516.258621,,0.008006286436548108,516.154,0.5170000195503235,-2.471678447502794
516.724138,,0.004156830963047152,516.62,0.527999997138977,-2.447521801218319
517.189655,,0.0005396496057233392,517.086,0.49900001287460327,-2.5105757951345526
517.655172,,0.004834976654970573,517.544,0.5379999876022339,-2.425550893366326
518.1206900000001,,0.006547266306558002,518.009,0.5199999809265137,-2.464779705986562
518.5862070000001,,0.004436032387419469,518.479,0.5419999957084656,-2.4169328078337933
519.051724,,0.0003818401316329312,518.939,0.5220000147819519,-2.4606572599100085
519.517241,,0.0014181075597733267,519.409,0.5070000290870667,-2.493553012999926
519.982759,,0.0015132676280312926,519.87,0.5230000019073486,-2.4589697381193307
520.448276,,0.007048434820501287,520.34,0.515999972820282,-2.474546201786433
520.9137929999999,,0.010521759909061464,520.799,0.5920000076293945,-2.3093343550343803
521.37931,,0.009561180790542117,521.269,0.527999997138977,-2.449160833908698
521.844828,,0.006163868359513339,521.734,0.5260000228881836,-2.4539276254888676
522.310345,,0.004141550023611005,522.199,0.5210000276565552,-2.4652361812241534
522.7758620000001,,0.005299395846722791,522.664,0.5270000100135803,-2.4525730349245554
523.241379,,0.008234418800927075,523.124,0.5460000038146973,-2.411567948757981
523.7068969999999,,0.010172750903895031,523.59,0.5170000195503235,-2.475106358051576
524.172414,,0.009540888844436745,524.055,0.5630000233650208,-2.375203377887963
524.637931,,0.007143650330231027,524.521,0.5339999794960022,-2.438646103986123
525.103448,,0.005265184350387012,524.991,0.5389999747276306,-2.4279535543386834
525.568966,,0.0053492837138831946,525.453,0.492000013589859,-2.5304844505424473
526.034483,,0.006371662045831581,525.914,0.5540000200271606,-2.3954725482681383
526.5,,0.00598771713462778,526.384,0.5730000138282776,-2.3540683714953996
526.9655170000001,,0.003356211100855639,526.847,0.5720000267028809,-2.3561609965503103
527.4310340000001,,1.0527275932497123e-05,527.31,0.574999988079071,-2.349464924198123
527.8965519999999,,0.0022537227616075757,527.775,0.5849999785423279,-2.3274483939579236
528.362069,,0.003347960982830641,528.239,0.5400000214576721,-2.4251948843592688
528.827586,,0.004189679610354155,528.705,0.5979999899864197,-2.2984873633735985
529.293103,,0.004844663822376737,529.169,0.6010000109672546,-2.2915613170413276
529.7586210000001,,0.0043620017624076005,529.635,0.5419999957084656,-2.419679416278495
530.224138,,0.0023546764549690112,530.106,0.5519999861717224,-2.3974536024000193
530.689655,,9.727021466162018e-05,530.564,0.5619999766349792,-2.3752249228494398
531.155172,,0.001408124172720155,531.029,0.5730000138282776,-2.3508276711041396
531.62069,,0.0008942138358121276,531.494,0.5709999799728394,-2.3547761708294854
532.086207,,0.0008473130451748854,531.962,0.5139999985694885,-2.4785872289759943
532.5517239999999,,0.0023979416427010185,532.424,0.5680000185966492,-2.360618091940767
533.017241,,0.002340726611335515,532.895,0.5889999866485596,-2.3146032121614137
533.482759,,0.00044501679540514703,533.358,0.5479999780654907,-2.403730612124019
533.9482760000001,,0.0016041782841539206,533.828,0.5640000104904175,-2.368748209607863
534.413793,,0.0013414564476296419,534.284,0.5699999928474426,-2.3556298700958442
534.87931,,0.0019076292588992288,534.75,0.5789999961853027,-2.336054017834514
535.344828,,0.005831804662973516,535.217,0.5849999785423279,-2.323091367214177
535.810345,,0.007259295514996826,535.682,0.6010000109672546,-2.288415546282021
536.275862,,0.005506422661750955,536.147,0.5830000042915344,-2.3278816103358104
536.7413789999999,,0.0028487838043473423,536.613,0.5860000252723694,-2.321656622936917
537.206897,,0.0016052407144130343,537.077,0.5989999771118164,-2.2936966494971633
537.672414,,0.0018137855085897793,537.543,0.5799999833106995,-2.3354936422382746
538.137931,,0.002111400970807141,538.006,0.5920000076293945,-2.309780904764003
538.6034480000001,,0.0016519757064082778,538.469,0.5929999947547913,-2.3080486916014147
539.0689659999999,,0.00036911455227008007,538.939,0.6079999804496765,-2.275816624474284
539.5344829999999,,0.0015921777670963864,539.402,0.6079999804496765,-2.2762513262333846
540.0,,0.0035976163980552464,539.866,0.5199999809265137,-2.4683823730013885
540.465517,,0.0043646883211909465,540.335,0.6110000014305115,-2.2704994521313133
540.931034,,0.0033179749018198887,540.794,0.5960000157356262,-2.303504657469907
541.396552,,0.0018183916742599438,541.264,0.5809999704360962,-2.3364503352148027
541.862069,,0.0018420599336289082,541.73,0.6460000276565552,-2.1950355219542863
542.327586,,0.0035354004922864488,542.195,0.6209999918937683,-2.249623114560565
542.7931030000001,,0.005338982094268782,542.66,0.6019999980926514,-2.291058720504825
543.258621,,0.00645607426451811,543.125,0.6129999756813049,-2.2670545274359455
543.7241379999999,,0.007522917535501997,543.584,0.6190000176429749,-2.2538640117088002
544.189655,,0.00846415032688309,544.051,0.6230000257492065,-2.2449545150739785
544.655172,,0.00751599809797321,544.517,0.6470000147819519,-2.192400970900782
545.12069,,0.0035586570386956983,544.98,0.6579999923706055,-2.1681058101730226
545.5862070000001,,0.001566829246591507,545.449,0.625,-2.2396170835199984
546.051724,,0.004209391807274232,545.91,0.6230000257492065,-2.243549199995069
546.517241,,0.0022347781266704248,546.38,0.6290000081062317,-2.230025133175959
546.982759,,0.003091362837328044,546.843,0.6079999804496765,-2.2753119310311036
547.448276,,0.008149767389942044,547.305,0.640999972820282,-2.202953593896439
547.9137929999999,,0.009696767331170381,547.771,0.6290000081062317,-2.2286502739923506
548.3793099999999,,0.0072001179482746635,548.235,0.609000027179718,-2.2718063524560694
548.844828,,0.003172607665427107,548.701,0.6449999809265137,-2.193001824057176
549.310345,,0.0011368101051883635,549.165,0.6349999904632568,-2.2144696447124117
549.775862,,0.0027111267285842167,549.631,0.6150000095367432,-2.2577887144740494
550.241379,,0.00625122968010085,550.099,0.6570000052452087,-2.1661045991756716
550.706897,,0.008199166576076316,550.565,0.6370000243186951,-2.2095746988338316
551.172414,,0.006010659418758582,551.025,0.621999979019165,-2.242233355011261
551.637931,,0.0003022826768936264,551.49,0.5419999957084656,-2.4165890327613107
552.103448,,0.005698636319527737,551.958,0.6129999756813049,-2.262053801920596
552.568966,,0.009211137598601872,552.42,0.6240000128746033,-2.238316452758362
553.034483,,0.010433932468440599,552.888,0.6190000176429749,-2.2495077832763815
553.5,,0.01148686191690971,553.35,0.6399999856948853,-2.204114704533176
553.965517,,0.013185106374773738,553.817,0.621999979019165,-2.2437376000378912
554.4310340000001,,0.014300676184194578,554.282,0.6110000014305115,-2.268146225105278
554.896552,,0.01416863386065553,554.748,0.6290000081062317,-2.22939679509874
555.3620689999999,,0.014200420980698791,555.213,0.621999979019165,-2.2451213311912745
555.827586,,0.015794710695063083,555.679,0.6499999761581421,-2.184585151325844
556.293103,,0.017903237489010636,556.143,0.6330000162124634,-2.2220648251337933
556.758621,,0.017784178815606934,556.608,0.6140000224113464,-2.263865093760935
557.224138,,0.013818767198509968,557.074,0.6119999885559082,-2.2685798960893253
557.689655,,0.007192250856659633,557.539,0.6060000061988831,-2.281949916568691
558.155172,,0.0012667214449210312,558.002,0.6370000243186951,-2.214640873832065
558.6206900000001,,0.000617762314860903,558.465,0.6290000081062317,-2.2322219866809356
559.0862070000001,,0.0022272419593155055,558.933,0.6190000176429749,-2.254078144794017
559.5517239999999,,0.006591942240844847,559.395,0.6320000290870667,-2.2257411853207456
560.017241,,0.007489691954282174,559.865,0.6060000061988831,-2.282288019876447
560.482759,,0.002801783777501849,560.328,0.6499999761581421,-2.1862487577459446
560.948276,,0.004123435531198252,560.794,0.6489999890327454,-2.188172391003808
561.413793,,0.0074507008403248785,561.256,0.6269999742507935,-2.2357791383863534
561.87931,,0.004911332530445488,561.722,0.6169999837875366,-2.257184721247171
562.344828,,0.000387536090387971,562.187,0.6299999952316284,-2.2284366501093333
562.8103450000001,,0.00021912786120143997,562.654,0.593999981880188,-2.306411577872255
563.275862,,0.004497139611079253,563.114,0.5540000200271606,-2.393086410235155
563.7413789999999,,0.010062163397975471,563.579,0.6179999709129333,-2.253183139197966
564.206897,,0.011385314296461049,564.047,0.6179999709129333,-2.2527276068071367
564.672414,,0.008004420079425551,564.513,0.5070000290870667,-2.4941314021193777
565.137931,,0.0034959748929839158,564.98,0.5879999995231628,-2.3172799847493613
565.603448,,0.0013743196095491676,565.443,0.5920000076293945,-2.308240375192876
566.068966,,0.0028244815556391486,565.906,0.6119999885559082,-2.264406125322514
566.534483,,0.007017294164417554,566.369,0.5419999957084656,-2.4167222201297673
567.0,,0.011939674637271237,566.84,0.5950000286102295,-2.301143133448122
567.465517,,0.015521498949182056,567.302,0.5849999785423279,-2.3229003644508968
567.931034,,0.01712049415375061,567.768,0.5799999833106995,-2.333845359680334
568.396552,,0.017506898857259607,568.231,0.593999981880188,-2.303475153761613
568.862069,,0.016927698800210878,568.697,0.5889999866485596,-2.3145734710446573
569.327586,,0.014383503882893996,569.162,0.5730000138282776,-2.3497044372462073
569.793103,,0.009916830706227609,569.628,0.5830000042915344,-2.3282497238237134
570.2586210000001,,0.006395058154458914,570.095,0.6060000061988831,-2.2785204142806887
570.724138,,0.00685572987349502,570.56,0.5669999718666077,-2.3639028084802045
571.189655,,0.009964614975196727,571.025,0.5789999961853027,-2.338196935055544
571.655172,,0.010113784671505763,571.49,0.5540000200271606,-2.393110946370845
572.12069,,0.003336745632447215,571.951,0.5789999961853027,-2.339088587978838
572.586207,,0.00773558662912642,572.421,0.5419999957084656,-2.4201246957527633
573.051724,,0.01610190791375907,572.884,0.5669999718666077,-2.36605395805405
573.517241,,0.017390270988123152,573.347,0.5669999718666077,-2.366406140709778
573.982759,,0.013731162949685651,573.812,0.5690000057220459,-2.3623462007329543
574.4482760000001,,0.010794320589522755,574.276,0.5759999752044678,-2.3473289684423118
574.913793,,0.012112189152856329,574.742,0.5529999732971191,-2.397599920403335
575.37931,,0.016670286398562696,575.207,0.5720000267028809,-2.356291720204137
575.844828,,0.02081232795701794,575.673,0.574999988079071,-2.349763497255631
576.310345,,0.021330109722760355,576.14,0.5860000252723694,-2.3257266088612734
576.775862,,0.017407845587653573,576.605,0.5450000166893005,-2.414903071318466
577.241379,,0.011087184741993108,577.065,0.5789999961853027,-2.3406099652814203
577.706897,,0.00602003341084066,577.531,0.5860000252723694,-2.3250758774190747
578.172414,,0.004724633248503169,577.999,0.593999981880188,-2.3073070055226115
578.6379310000001,,0.006313769850158896,578.461,0.5460000038146973,-2.4114974680107197
579.1034480000001,,0.0069899786012208006,578.924,0.5809999704360962,-2.3348286293014895
579.5689659999999,,0.003374869504073839,579.394,0.5820000171661377,-2.332215038976783
580.034483,,0.00409812907780499,579.858,0.5920000076293945,-2.309988069997275
580.5,,0.011224922855006736,580.32,0.5509999990463257,-2.398880963139229
580.965517,,0.013959132399223478,580.786,0.550000011920929,-2.40065169222694
581.431034,,0.012219848515392952,581.25,0.5419999957084656,-2.417710750688054
581.896552,,0.009279551217011336,581.716,0.5540000200271606,-2.3912461825010687
582.362069,,0.0076256344337608025,582.18,0.5669999718666077,-2.3626620034134715
582.827586,,0.006580066936906884,582.646,0.5519999861717224,-2.395146359339172
583.2931030000001,,0.004468747107978933,583.113,0.5410000085830688,-2.418989001692671
583.758621,,0.0017999678672628706,583.579,0.5370000004768372,-2.427658354496039
584.2241379999999,,0.0006956646324536528,584.044,0.5730000138282776,-2.349259574980773
584.689655,,0.0016071313938651162,584.509,0.5540000200271606,-2.39076199076652
585.155172,,0.0023664143256599862,584.973,0.574999988079071,-2.345189745109211
585.6206900000001,,0.000985916517323231,585.435,0.5490000247955322,-2.4020790174535165
586.0862070000001,,0.0016541821733457068,585.903,0.5540000200271606,-2.391487733188361
586.551724,,0.0026146485751377922,586.365,0.5339999794960022,-2.4354109587091504
587.017241,,0.00019883056730448696,586.833,0.5490000247955322,-2.4031183921606973
587.482759,,0.003884147002770324,587.295,0.5839999914169312,-2.3272766802130422
587.948276,,0.0059459637603517445,587.76,0.5519999861717224,-2.3974137789654746
588.4137929999999,,0.004017359852348899,588.229,0.550000011920929,-2.402187771763309
588.87931,,0.00024308687199146503,588.694,0.5630000233650208,-2.3742656045023915
589.344828,,0.0034723690622121463,589.154,0.5929999947547913,-2.309276298517021
589.810345,,0.0038001655668219573,589.62,0.5529999732971191,-2.39674994601848
590.2758620000001,,0.0018528130350656431,590.084,0.5540000200271606,-2.3948470502217503
590.741379,,0.000569441329856148,590.549,0.5540000200271606,-2.3950633492722506
591.2068969999999,,0.002042608244709451,591.022,0.5540000200271606,-2.395213525638691
591.672414,,0.0021131413608200507,591.48,0.5419999957084656,-2.4214372388388767
592.137931,,0.0011552149714147218,591.95,0.5440000295639038,-2.4170876861213118
592.603448,,5.211456705151482e-05,592.413,0.5770000219345093,-2.345127715242104
593.068966,,0.0008262840492910229,592.881,0.5519999861717224,-2.399458711083463
593.534483,,0.0009379352901820247,593.343,0.5649999976158142,-2.37093495114279
594.0,,0.000497466355671982,593.809,0.5630000233650208,-2.3750317245178185
594.4655170000001,,0.00044912309034209546,594.272,0.5540000200271606,-2.3943285882734244
594.9310340000001,,0.0019058995624916164,594.737,0.5630000233650208,-2.3743696765330684
595.3965519999999,,0.0034882138823324827,595.202,0.5669999718666077,-2.3652752850500995
595.862069,,0.0044255236346263434,595.668,0.5529999732971191,-2.3953799102811364
596.327586,,0.004209611467725105,596.133,0.5669999718666077,-2.3644788215668195
596.793103,,0.003125819791911333,596.599,0.5540000200271606,-2.3924104746570034
597.2586210000001,,0.0021696232854250693,597.059,0.5540000200271606,-2.3920418593122745
597.724138,,0.002383008147880691,597.524,0.5809999704360962,-2.332883378913131
598.189655,,0.003842419324199159,597.995,0.550000011920929,-2.4001301043099987
598.655172,,0.005094052525957372,598.457,0.5460000038146973,-2.4086070653511085
599.12069,,0.004067476077504312,598.921,0.5460000038146973,-2.408431204485319
599.586207,,0.0001808586528871649,599.391,0.5429999828338623,-2.414858620712695
600.0517239999999,,0.004425650248096529,599.851,0.5720000267028809,-2.351639116037645
600.517241,,0.006370079298437318,600.314,0.5799999833106995,-2.334241114600244
600.982759,,0.004254453530735412,600.78,0.5490000247955322,-2.401878296637526
601.448276,,0.0002202213589835356,601.25,0.5540000200271606,-2.3911496416449434
601.913793,,0.0020161461553030945,601.709,0.5699999928474426,-2.356515805114177
602.37931,,0.0004490429068913651,602.181,0.5820000171661377,-2.3306479284064134
602.844828,,0.003794240855902127,602.639,0.5799999833106995,-2.3353229118764456
603.310345,,0.007401182151345683,603.106,0.5490000247955322,-2.403210252806593
603.775862,,0.007049059527488761,603.571,0.5669999718666077,-2.364365213566542
604.2413789999999,,0.001929831534461072,604.036,0.5509999990463257,-2.399603549028051
604.706897,,0.004953448088800193,604.502,0.5759999752044678,-2.3455144300649056
605.172414,,0.008779904203202554,604.965,0.5659999847412109,-2.367662494404805
605.637931,,0.007312093759375312,605.435,0.5540000200271606,-2.3941409481844786
606.1034480000001,,0.003161967151081724,605.899,0.5230000019073486,-2.4619776112701186
606.5689659999999,,0.0009760162282414814,606.361,0.5680000185966492,-2.364191728674293
607.0344829999999,,0.0026387719568753782,606.829,0.5730000138282776,-2.353497555006571
607.5,,0.006077353911060544,607.291,0.5699999928474426,-2.3601711113884294
607.965517,,0.00846762104859955,607.756,0.5419999957084656,-2.4212456834601155
608.431034,,0.009184971891775452,608.221,0.5669999718666077,-2.3667852828122697
608.896552,,0.009112001436782906,608.687,0.5379999876022339,-2.429905406239489
609.362069,,0.008431033238068897,609.154,0.5649999976158142,-2.370957008507027
609.827586,,0.00661420038923692,609.62,0.5099999904632568,-2.490598464690961
610.293103,,0.004258869401063092,610.084,0.5540000200271606,-2.3945009301452846
610.758621,,0.003365908975607947,610.55,0.5619999766349792,-2.3767892031063726
611.2241379999999,,0.005143166455163209,611.013,0.5460000038146973,-2.411327454307445
611.689655,,0.008237001774939565,611.476,0.5270000100135803,-2.4523753219252122
612.155172,,0.009687274345480256,611.939,0.546999990940094,-2.408441250983002
612.62069,,0.007387737484243378,612.409,0.5540000200271606,-2.392825796701514
613.0862070000001,,0.0016876729168559131,612.87,0.5339999794960022,-2.4360415959457513
613.551724,,0.004723806394051305,613.339,0.550000011920929,-2.4008450310504137
614.017241,,0.00858710462453558,613.805,0.550000011920929,-2.4005364975022716
614.4827590000001,,0.008821861319285588,614.268,0.5429999828338623,-2.415517637725026
614.948276,,0.00788485236538668,614.733,0.5400000214576721,-2.421831816343488
615.4137929999999,,0.009533073448234763,615.198,0.5329999923706055,-2.436915753966985
615.8793099999999,,0.014788979685566812,615.664,0.5320000052452087,-2.438988137432226
616.344828,,0.020729347680346098,616.129,0.5389999747276306,-2.4236950224432894
616.810345,,0.02360885454971424,616.595,0.5630000233650208,-2.3714286941239093
617.275862,,0.022627156889910113,617.054,0.5260000228881836,-2.452122791914259
617.741379,,0.020289485833977404,617.52,0.5239999890327454,-2.4566250076215113
618.206897,,0.019637135016844734,617.988,0.531000018119812,-2.44157579762987
618.672414,,0.021547855413957935,618.45,0.5180000066757202,-2.470149576932543
619.137931,,0.0241320294027103,618.921,0.5189999938011169,-2.468264273215023
619.603448,,0.024110824253849597,619.383,0.5519999861717224,-2.3966941840438234
620.068966,,0.019274181328904877,619.847,0.5170000195503235,-2.4732929616826818
620.534483,,0.010420489243158783,620.309,0.5460000038146973,-2.4104680300435266
621.0,,0.0008461597206819602,620.775,0.5170000195503235,-2.4740030382896063
621.465517,,0.0063475847114059505,621.239,0.5299999713897705,-2.446022165859349
621.9310340000001,,0.010179414015448987,621.705,0.5929999947547913,-2.3090838413124612
622.396552,,0.011142038063992518,622.17,0.4909999966621399,-2.5315870580925424
622.862069,,0.009717010932279882,622.635,0.5389999747276306,-2.4272501624621188
623.327586,,0.006437579848411396,623.103,0.5370000004768372,-2.4317955088679213
623.793103,,0.003023777117950566,623.569,0.5180000066757202,-2.473321488745519
624.258621,,0.002118314659852209,624.036,0.5339999794960022,-2.4385347884957893
624.724138,,0.0049338609463584395,624.494,0.5460000038146973,-2.412399975821384
625.189655,,0.009399676244282564,624.962,0.5360000133514404,-2.4341322397992573
625.655172,,0.011587217795252928,625.424,0.5210000276565552,-2.4666968973374974
626.1206900000001,,0.00952175915551838,625.892,0.5070000290870667,-2.497027019998071
626.5862070000001,,0.005361636933834747,626.354,0.5299999713897705,-2.446697390774228
627.0517239999999,,0.003314005326643125,626.825,0.503000020980835,-2.505257269069269
627.5172409999999,,0.00529705632504461,627.287,0.5239999890327454,-2.4592081785592295
627.982759,,0.009126305076722544,627.753,0.515999972820282,-2.476315351050194
628.448276,,0.011208581593029864,628.217,0.5210000276565552,-2.4650855267206513
628.913793,,0.010284966002943695,628.683,0.550000011920929,-2.401564023789023
629.37931,,0.007904164054719241,629.147,0.5419999957084656,-2.4186581051975686
629.844828,,0.006130626137050937,629.613,0.515999972820282,-2.474984356034544
630.3103450000001,,0.006026849497324935,630.08,0.5120000243186951,-2.483407961823479
630.7758620000001,,0.00778909580027113,630.539,0.5199999809265137,-2.465725485689459
631.2413789999999,,0.010654245340437884,631.006,0.5199999809265137,-2.4655173621379967
631.706897,,0.01231487470729756,631.469,0.5099999904632568,-2.4871474960218887
632.172414,,0.009862163251209992,631.936,0.5149999856948853,-2.4761547991831967
632.637931,,0.00272462816472426,632.406,0.515999972820282,-2.4739365370030972
633.103448,,0.00544251403326131,632.869,0.5149999856948853,-2.4761362513415452
633.568966,,0.009132876999879894,633.332,0.5130000114440918,-2.480574448087737
634.034483,,0.006151484765146854,633.797,0.515999972820282,-2.4741765874563724
634.5,,7.901157058624918e-05,634.26,0.5210000276565552,-2.4634734308098096
634.9655170000001,,0.00408392600399567,634.725,0.4880000054836273,-2.5356053595138737
635.431034,,0.0037113299335313206,635.192,0.5230000019073486,-2.459628027231652
635.8965519999999,,0.0010669817156752537,635.657,0.5099999904632568,-2.4882553072891285
636.362069,,0.0012484293016337693,636.125,0.5979999899864197,-2.296856643854999
636.827586,,0.002989102722413377,636.59,0.5210000276565552,-2.464940615459316
637.293103,,0.004935057681782431,637.054,0.5720000267028809,-2.3541529363166376
637.7586210000001,,0.006482268773573027,637.52,0.5130000114440918,-2.483002468215824
638.224138,,0.006027450591663932,637.98,0.5090000033378601,-2.4920036792407965
638.689655,,0.003199089160364989,638.45,0.503000020980835,-2.5053319863447925
639.155172,,0.00033301686830977277,638.914,0.5270000100135803,-2.453262641032108
639.62069,,0.0021652849602953415,639.376,0.49300000071525574,-2.527509841463716
640.086207,,0.0009500109699810876,639.84,0.5630000233650208,-2.3751265792936285
640.551724,,0.0025843253150806644,640.309,0.5260000228881836,-2.455803025230138
641.017241,,0.005897679605339918,640.775,0.5120000243186951,-2.486313224315345
641.482759,,0.006382430665835171,641.239,0.5419999957084656,-2.4209062759365234
641.9482760000001,,0.0035333836097746125,641.704,0.5249999761581421,-2.4578404432621306
642.413793,,0.0005637985957760364,642.169,0.5249999761581421,-2.457685799211655
642.87931,,0.0031015689322610356,642.635,0.5099999904632568,-2.49016493697272
643.344828,,0.002890522677170252,643.099,0.5249999761581421,-2.4572456502300426
643.810345,,0.0010104529295647455,643.564,0.5249999761581421,-2.4569746090162203
644.275862,,0.00037792471223039643,644.029,0.5410000085830688,-2.4218218508998404
644.7413789999999,,0.00013073463087163027,644.495,0.503000020980835,-2.504302535805443
645.206897,,0.001812915535260676,644.958,0.515999972820282,-2.4756693396102847
645.672414,,0.002101002475644295,645.42,0.5189999938011169,-2.4688296565691297
646.1379310000001,,0.0007837224578061329,645.884,0.5139999985694885,-2.4794357177521493
646.6034480000001,,0.005086473866774606,646.354,0.503000020980835,-2.5031395029004853
647.0689659999999,,0.006713803235720963,646.825,0.5049999952316284,-2.4985554109261123
647.534483,,0.004072911044862476,647.28,0.5139999985694885,-2.4787620843423612
648.0,,0.0004469955405689246,647.745,0.5299999713897705,-2.4437645516576953
648.465517,,0.00022649093801524293,648.21,0.503000020980835,-2.5024988410890314
648.931034,,0.0037867724839877872,648.676,0.5120000243186951,-2.482854921924799
649.396552,,0.007785312861046165,649.14,0.5239999890327454,-2.456728886662247
649.862069,,0.009914652938662871,649.606,0.5260000228881836,-2.452441310171372
650.327586,,0.011009372670124822,650.073,0.5249999761581421,-2.4547390816497034
650.7931030000001,,0.011819101706664309,650.539,0.5400000214576721,-2.4222230741803115
651.258621,,0.010146436359047363,650.999,0.5220000147819519,-2.4616417091819027
651.7241379999999,,0.00361001221976502,651.469,0.515999972820282,-2.4749495695719297
652.189655,,0.005645242926374121,651.932,0.5239999890327454,-2.457781913605747
652.655172,,0.011570827172836511,652.395,0.5199999809265137,-2.4667752801103946
653.12069,,0.010110782733931102,652.865,0.5379999876022339,-2.4278462820027475
653.5862070000001,,0.003369126022794946,653.328,0.5170000195503235,-2.473883223116771
654.051724,,0.0023334237799195025,653.793,0.5299999713897705,-2.4458361916482567
654.517241,,0.002089304260326477,654.256,0.5189999938011169,-2.470058062256234
654.982759,,0.003652400397283274,654.722,0.515999972820282,-2.4768246133202365
655.448276,,0.010125613278123278,655.187,0.5210000276565552,-2.4661287676398653
655.9137929999999,,0.012898847946309291,655.653,0.5370000004768372,-2.4314285292978015
656.37931,,0.011491548105013882,656.118,0.5170000195503235,-2.475115136771685
656.844828,,0.008885099065856477,656.584,0.515999972820282,-2.47736035444805
657.310345,,0.00827542024932208,657.05,0.5149999856948853,-2.4795569401701782
657.7758620000001,,0.010469920128746008,657.509,0.5339999794960022,-2.4381315710152016
658.241379,,0.013712891405221523,657.976,0.5270000100135803,-2.4533027560164755
658.7068969999999,,0.0152707326215984,658.439,0.5109999775886536,-2.4880367237352425
659.172414,,0.013293859275779167,658.907,0.515999972820282,-2.4769786830415845
659.637931,,0.008101913096641298,659.369,0.5199999809265137,-2.4680644599575414
660.103448,,0.002314676414235966,659.84,0.5360000133514404,-2.432977563053676
660.568966,,0.0009071984156090103,660.302,0.5120000243186951,-2.4850150053586244
661.034483,,0.0007346431396922249,660.768,0.5239999890327454,-2.458607887126761
661.5,,0.0004491739041598004,661.233,0.5289999842643738,-2.447446240293517
661.965517,,0.0001558763129524195,661.698,0.5149999856948853,-2.477682234499264
662.4310340000001,,0.00251138658463094,662.165,0.5289999842643738,-2.4469278598398025
662.8965519999999,,0.0043554720473048545,662.63,0.5170000195503235,-2.4728379393438593
663.362069,,0.00470637497237675,663.095,0.5329999923706055,-2.4377727340743793
663.827586,,0.005108465911215277,663.561,0.5180000066757202,-2.470278557225431
664.293103,,0.00677448509600506,664.025,0.5210000276565552,-2.4636071295164927
664.7586210000001,,0.00787604593357145,664.49,0.5260000228881836,-2.4526209899862828
665.224138,,0.005344306572445493,664.954,0.5210000276565552,-2.4634663403153096
665.689655,,0.0007972256935832735,665.416,0.5109999775886536,-2.485251556755487
666.155172,,0.0065027307213216135,665.884,0.5260000228881836,-2.452616743828049
666.62069,,0.007784958314306925,666.346,0.515999972820282,-2.474492841808436
667.086207,,0.004763490070139096,666.812,0.5199999809265137,-2.4659090671099233
667.5517239999999,,0.0009368213900768604,667.276,0.5199999809265137,-2.466076851181137
668.017241,,0.000802021036827142,667.741,0.503000020980835,-2.503313192622876
668.482759,,0.0004806525733904219,668.207,0.531000018119812,-2.442535579387108
668.948276,,0.00013636148192412877,668.672,0.5070000290870667,-2.495065266583668
669.413793,,0.00034016037421999017,669.139,0.5080000162124634,-2.4931388703795663
669.87931,,0.002384784477148563,669.605,0.5139999985694885,-2.4803215227785813
670.3448279999999,,0.005848807428288563,670.064,0.527999997138977,-2.4500685785520075
670.810345,,0.009604942233300905,670.53,0.515999972820282,-2.4764458904333666
671.275862,,0.011535258283291225,670.994,0.5239999890327454,-2.4592281241745146
671.7413789999999,,0.010210342460315673,671.464,0.5170000195503235,-2.4746615055307397
672.206897,,0.006625904908970494,671.925,0.5149999856948853,-2.4791677204379874
672.672414,,0.0034402008919833284,672.394,0.5210000276565552,-2.46620608503427
673.137931,,0.002278816302707779,672.858,0.503000020980835,-2.5054905287941516
673.6034480000001,,0.002133878112049339,673.321,0.5249999761581421,-2.457585705207272
674.068966,,0.0005649738378337118,673.786,0.5120000243186951,-2.485889246237541
674.5344829999999,,0.0035371110983151753,674.25,0.5289999842643738,-2.448789983492081
675.0,,0.008419222863313806,674.716,0.5040000081062317,-2.5031526758965796
675.465517,,0.010907390684737624,675.182,0.5040000081062317,-2.503012207354293
675.931034,,0.009478643649597133,675.648,0.5239999890327454,-2.4592666294524763
676.396552,,0.005525999566619295,676.113,0.5199999809265137,-2.467781477604502
676.862069,,0.0013848101245037552,676.579,0.5049999952316284,-2.500240884936889
677.327586,,0.0021071327806838607,677.044,0.5289999842643738,-2.4477198421619732
677.793103,,0.005208219337737889,677.509,0.503000020980835,-2.504125380964629
678.2586210000001,,0.007162565813767751,677.97,0.5070000290870667,-2.4951738570711655
