Trial: ,4
Threshold: ,0.0
Maximum EMG: ,0.24605251483410803
Success: ,True

EMG Time,Raw EMG,Filtered EMG,Force Time,Raw Force (V),Filtered Force (N)
0.0,samples,1.209206039434788e-07,0.471,0.5400000214576721,-2.423585120755167
0.46551699999999996,time,1.2901919890940057e-07,0.932,0.5299999713897705,-2.4453057474851727
0.9310339999999999,value,1.3700770412408984e-07,1.401,0.527999997138977,-2.449597629798845
1.396552,,1.4485289255271424e-07,1.86,0.5429999828338623,-2.416855075113946
1.862069,,1.5252061297280285e-07,2.325,0.5249999761581421,-2.4560120887790364
2.327586,,1.5997587178214012e-07,2.791,0.5540000200271606,-2.3927781981215177
2.793103,,1.6718292134214268e-07,3.258,0.5210000276565552,-2.464627772344125
3.258621,,1.7410535482409855e-07,3.724,0.5540000200271606,-2.39269507963359
3.724138,,1.8070620750106214e-07,4.191,0.5379999876022339,-2.4275255821703468
4.189654999999999,,1.8694806440275388e-07,4.65,0.5299999713897705,-2.444937152193149
4.655172,,1.9279317422456487e-07,5.121,0.550000011920929,-2.4013574865286462
5.12069,,1.9820356935477357e-07,5.58,0.550000011920929,-2.4013615880911137
5.586207,,2.0314119185640548e-07,6.05,0.49900001287460327,-2.512488001912891
6.051723999999999,,2.0756802521187953e-07,6.513,0.5440000295639038,-2.414475923519518
6.517241,,2.114462316097595e-07,6.976,0.5379999876022339,-2.427585557347462
6.982759,,2.1473829452364496e-07,7.446,0.5270000100135803,-2.4515972566024566
7.448276,,2.1740716630357825e-07,7.909,0.5289999842643738,-2.4472946952012085
7.913793000000001,,2.194164204704029e-07,8.372,0.5490000247955322,-2.403782510044318
8.379309999999998,,2.207304083733768e-07,8.837,0.5540000200271606,-2.392953675158343
8.844828000000001,,2.2131441984112172e-07,9.3,0.5360000133514404,-2.432235163929036
9.310345,,2.2113484742578136e-07,9.766,0.5460000038146973,-2.4105143417610555
9.775862,,2.2015935381017287e-07,10.231,0.5820000171661377,-2.3321458424395005
10.241379,,2.183570419178631e-07,10.697,0.5400000214576721,-2.423706725452633
10.706897,,2.1569862723659872e-07,11.162,0.546999990940094,-2.408507784015556
11.172414,,2.121566118364865e-07,11.628,0.5410000085830688,-2.4216243563199162
11.637931,,2.0770545953588248e-07,12.095,0.5320000052452087,-2.4412691968820734
12.103447999999998,,2.0232177164023297e-07,12.56,0.5649999976158142,-2.369401937306441
12.568966000000001,,1.959844626522449e-07,13.021,0.5419999957084656,-2.41952884845393
13.034483,,1.8867493532588382e-07,13.491,0.527999997138977,-2.4500378446930573
13.5,,1.8037725441193523e-07,13.954,0.5410000085830688,-2.421713821237885
13.965517,,1.710783184193598e-07,14.416,0.5419999957084656,-2.4195240557484903
14.431034,,1.607680286945596e-07,14.884,0.5450000166893005,-2.4129673675256895
14.896552,,1.49439455100092e-07,15.346,0.527999997138977,-2.4499750135111977
15.362069,,1.3708899755545965e-07,15.812,0.5460000038146973,-2.4107222317939425
15.827586000000002,,1.2371654268550782e-07,16.279,0.5509999990463257,-2.3997848544468043
16.293103,,1.0932561480681409e-07,16.745,0.5339999794960022,-2.436771744557934
16.758621,,9.392352046939805e-08,17.209,0.5419999957084656,-2.4192880502674043
17.224138,,7.752148576024707e-08,17.674,0.5419999957084656,-2.419230810967988
17.689655,,6.013478556668293e-08,18.139,0.5540000200271606,-2.3930281243967455
18.155172,,4.1782863991615175e-08,18.605,0.5460000038146973,-2.410398195868374
18.62069,,2.24894451093701e-08,19.065,0.5299999713897705,-2.4451991605749646
19.086207,,2.282633250173157e-09,19.531,0.5680000185966492,-2.3623561542505525
19.551724,,1.88049979963799e-08,19.998,0.5540000200271606,-2.3928068817265387
20.017241000000002,,4.073632886328817e-08,20.461,0.5540000200271606,-2.3927616038084474
20.482758999999998,,6.346962936963822e-08,20.932,0.5669999718666077,-2.364400380653304
20.948276,,8.695850895018452e-08,21.394,0.5460000038146973,-2.4101205035315036
21.413793000000002,,1.1115188052075279e-07,21.86,0.5379999876022339,-2.4275274083692735
21.87931,,1.3599393973099225e-07,22.326,0.527999997138977,-2.4493022879569883
22.344828,,1.6142416013432918e-07,22.791,0.5389999747276306,-2.4253370716125913
22.810344999999998,,1.8737730497976252e-07,23.25,0.5329999923706055,-2.4384202266235007
23.275862,,2.1378345630133095e-07,23.716,0.5339999794960022,-2.4362640388300605
23.741379,,2.40568061948616e-07,24.18,0.5630000233650208,-2.373115587599419
24.206897,,2.6765200116548567e-07,24.646,0.5389999747276306,-2.4254442052655585
24.672414,,2.949516692843974e-07,25.113,0.546999990940094,-2.408063408605408
25.137931,,3.2237908205994914e-07,25.579,0.5519999861717224,-2.397224791938275
25.603448,,3.498420001179864e-07,26.042,0.5460000038146973,-2.4103556824762014
26.068966,,3.7724407394544787e-07,26.505,0.5149999856948853,-2.477956336955014
26.534483,,4.044850097912834e-07,26.973,0.5669999718666077,-2.3647310649462847
27.0,,4.314607567902411e-07,27.436,0.5529999732971191,-2.395295611470928
27.465517,,4.58063715559144e-07,27.906,0.5320000052452087,-2.4411077523090925
27.931034,,4.841829684495263e-07,28.368,0.5450000166893005,-2.4128420449244143
28.396552,,5.097045315712506e-07,28.834,0.5370000004768372,-2.430322626065806
28.862069,,5.34511628629082e-07,29.297,0.5630000233650208,-2.3737217082635054
29.327586,,5.584849865382653e-07,29.763,0.5460000038146973,-2.410793659821011
29.793103000000002,,5.81503152706057e-07,30.228,0.5460000038146973,-2.4108185202155696
30.258620999999998,,6.034428337840632e-07,30.693,0.531000018119812,-2.4435129501843202
30.724138,,6.241792556112769e-07,31.158,0.5389999747276306,-2.4260884046870084
31.189655000000002,,6.43586543980086e-07,31.624,0.5339999794960022,-2.4369759290328963
31.655172000000004,,6.615381257674258e-07,32.088,0.5419999957084656,-2.4195307114650673
32.12069,,6.779071498808896e-07,32.554,0.546999990940094,-2.408611289990769
32.586207,,6.925669273752271e-07,33.017,0.5419999957084656,-2.4194685660395465
33.051724,,7.05391389998493e-07,33.486,0.5649999976158142,-2.3693145121324513
33.517241000000006,,7.162555663294346e-07,33.947,0.5370000004768372,-2.4302634020313674
33.982759,,7.25036074568799e-07,34.416,0.546999990940094,-2.4084174103188225
34.448276,,7.316116309474024e-07,34.88,0.5540000200271606,-2.393102758215749
34.913793,,7.358635726133481e-07,35.342,0.550000011920929,-2.401750274041262
35.37931,,7.376763937600418e-07,35.808,0.5299999713897705,-2.4452555444408492
35.844828,,7.369382936559819e-07,36.273,0.5419999957084656,-2.4190457862544466
36.310345,,7.335417351370536e-07,36.738,0.5540000200271606,-2.3928395547990062
36.775862,,7.273840120226044e-07,37.206,0.5540000200271606,-2.3927818621711747
37.241378999999995,,7.183678238183187e-07,37.671,0.5460000038146973,-2.4101597483704325
37.706897000000005,,7.064018559722374e-07,38.136,0.5410000085830688,-2.421009954059724
38.172414,,6.914013638556096e-07,38.595,0.5339999794960022,-2.43622765331379
38.637931,,6.732887585480232e-07,39.069,0.531000018119812,-2.4427421820250963
39.103448,,6.519941924168879e-07,39.527,0.5379999876022339,-2.4274827392058524
39.568965999999996,,6.274561423952699e-07,39.995,0.5199999809265137,-2.466702273709024
40.034483,,5.996219887797614e-07,40.457,0.5460000038146973,-2.4100739245976532
40.5,,5.684485872919586e-07,40.92,0.5410000085830688,-2.4209954358297643
40.965517,,5.339028320736841e-07,41.391,0.5329999923706055,-2.438463617608517
41.431034,,4.959622072177781e-07,41.856,0.5490000247955322,-2.403653693482346
41.896552,,4.5461532437357447e-07,42.32,0.550000011920929,-2.4015312439254655
42.362069000000005,,4.0986244390953007e-07,42.786,0.5360000133514404,-2.432094369888317
42.827586000000004,,3.6171597706535426e-07,43.246,0.5339999794960022,-2.436518335389255
43.293103,,3.102009664828508e-07,43.711,0.5540000200271606,-2.393014378188881
43.758621,,2.5535554246899357e-07,44.177,0.5540000200271606,-2.393083238041015
44.224138,,1.9723135231695637e-07,44.643,0.5669999718666077,-2.3648268501986096
44.689655,,1.3589395999134708e-07,45.11,0.5669999718666077,-2.364887485938425
45.155172,,7.142321347318742e-08,45.576,0.550000011920929,-2.4019781321463785
45.620689999999996,,3.913577058646101e-09,46.039,0.5329999923706055,-2.4390614721415176
46.086206999999995,,6.652557408642162e-08,46.501,0.5460000038146973,-2.4107773269317505
46.551724,,1.397696997960656e-07,46.965,0.5210000276565552,-2.4652731925157587
47.017241,,2.1567888384956278e-07,47.435,0.5540000200271606,-2.3933981496087258
47.482759,,2.940976686050558e-07,47.895,0.5379999876022339,-2.4282666659430583
47.948276,,3.7485493788408583e-07,48.366,0.5389999747276306,-2.4260875217326037
48.413793,,4.577638506082939e-07,48.831,0.5289999842643738,-2.447863391754323
48.879310000000004,,5.426218276166992e-07,49.294,0.5460000038146973,-2.410805985056209
49.344828,,6.292105940072956e-07,49.76,0.5379999876022339,-2.4282054283722365
49.810345,,7.172962792500309e-07,50.224,0.5379999876022339,-2.4281669818655947
50.275862,,8.066295772093698e-07,50.69,0.531000018119812,-2.443371680483376
50.741379,,8.969459680934622e-07,51.15,0.5429999828338623,-2.417176124921052
51.206897,,9.879660042133278e-07,51.615,0.5759999752044678,-2.3452232657083476
51.672414,,1.079395661289377e-06,52.08,0.5329999923706055,-2.438842989465866
52.137931,,1.170926756884001e-06,52.546,0.5419999957084656,-2.4191708257862685
52.603448,,1.2622374373678987e-06,53.017,0.5320000052452087,-2.4408932799625167
53.068966,,1.3529927346443309e-06,53.479,0.5370000004768372,-2.4299382181029303
53.534483,,1.4428451936597376e-06,53.947,0.5400000214576721,-2.423344244790535
54.0,,1.5314355715212753e-06,54.409,0.5419999957084656,-2.4189342208956255
54.465517,,1.6183936088220496e-06,54.872,0.5329999923706055,-2.4384959754788813
54.931034,,1.7033388735434019e-06,55.335,0.5479999780654907,-2.405778140603981
55.396552,,1.7858816776608873e-06,55.801,0.5410000085830688,-2.420999241392533
55.862069,,1.8656240663269274e-06,56.268,0.5210000276565552,-2.464552720907613
56.327586,,1.9421608792389563e-06,56.734,0.5460000038146973,-2.41007793444604
56.793102999999995,,2.0150808835277013e-06,57.198,0.5040000081062317,-2.5015838813596716
57.258621000000005,,2.0839679772165987e-06,57.663,0.5379999876022339,-2.4275241824764477
57.724138,,2.1484024620108372e-06,58.128,0.5619999766349792,-2.3752611865392304
58.189655,,2.207962383873796e-06,58.594,0.5370000004768372,-2.429760331266478
58.655172,,2.2622249395404414e-06,59.066,0.5450000166893005,-2.4123718452228746
59.120689999999996,,2.3107679468023176e-06,59.525,0.5320000052452087,-2.440742089300846
59.586207,,2.3531713760779653e-06,59.987,0.5490000247955322,-2.403758508944969
60.051724,,2.389018940456789e-06,60.45,0.5460000038146973,-2.4103519050737687
60.517241,,2.4178997410745554e-06,60.918,0.5370000004768372,-2.4300194572509928
60.982758999999994,,2.4394099643458038e-06,61.38,0.5429999828338623,-2.4170082721225796
61.448276,,2.453154627243565e-06,61.846,0.546999990940094,-2.4083535441255988
61.913793,,2.4587493664810033e-06,62.316,0.5419999957084656,-2.4193041229554746
62.379310000000004,,2.4558222671141045e-06,62.782,0.5529999732971191,-2.3953922315857987
62.84482800000001,,2.444015725750511e-06,63.246,0.5509999990463257,-2.3997968790639193
63.310345000000005,,2.4229883432183267e-06,63.712,0.5419999957084656,-2.419445181619985
63.775862000000004,,2.392416841221461e-06,64.176,0.5329999923706055,-2.439086085342255
64.241379,,2.351997997186209e-06,64.641,0.5299999713897705,-2.445647502641344
64.706897,,2.3014505911886464e-06,65.106,0.5419999957084656,-2.419520898917581
65.172414,,2.240517358545485e-06,65.571,0.5289999842643738,-2.447851850523708
65.637931,,2.1689669413536834e-06,66.032,0.5410000085830688,-2.421707564776925
66.103448,,2.086595831977878e-06,66.502,0.5400000214576721,-2.4238766279591673
66.56896599999999,,1.993230301211048e-06,66.965,0.5299999713897705,-2.4456447771748775
67.03448300000001,,1.8887283035742867e-06,67.428,0.5509999990463257,-2.3998661767459666
67.5,,1.7729813519776588e-06,67.891,0.5460000038146973,-2.4107241981715375
67.965517,,1.6459163537374213e-06,68.361,0.550000011920929,-2.4019666557172856
68.431034,,1.507497399736916e-06,68.827,0.5669999718666077,-2.3648797881070083
68.896552,,1.3577274983307653e-06,69.286,0.5019999742507935,-2.5064368932131225
69.362069,,1.196650245426158e-06,69.751,0.550000011920929,-2.4018040649380192
69.827586,,1.0243514220325477e-06,70.22,0.5109999775886536,-2.4867130425557007
70.293103,,8.409605104534957e-07,70.685,0.5410000085830688,-2.421295748245909
70.75862099999999,,6.466521202031928e-07,71.15,0.47600001096725464,-2.5628531406486665
71.22413800000001,,4.4164731466682334e-07,71.615,0.5299999713897705,-2.4451564992929624
71.689655,,2.2621482948985488e-07,72.08,0.5400000214576721,-2.4233254932373933
72.15517200000001,,6.721736779062987e-10,72.546,0.5360000133514404,-2.4320006078090515
72.62069,,2.3461339558258602e-07,73.009,0.5410000085830688,-2.421073482601954
73.086207,,4.792240333108442e-07,73.472,0.5460000038146973,-2.4101524846921545
73.551724,,7.326906111569751e-07,73.939,0.531000018119812,-2.442811164422852
74.017241,,9.94492174565586e-07,74.401,0.5410000085830688,-2.4210111607207656
74.482759,,1.2640555612087514e-06,74.869,0.5630000233650208,-2.3730746343625366
74.94827599999999,,1.5407551890129246e-06,75.331,0.5339999794960022,-2.436256401901694
75.41379300000001,,1.8239130218594404e-06,75.797,0.46299999952316284,-2.5909504408870716
75.87931,,2.112798720753928e-06,76.261,0.5400000214576721,-2.423215140713231
76.344828,,2.4066299879355674e-06,76.727,0.5329999923706055,-2.4384953360272172
76.810345,,2.704573111032104e-06,77.191,0.5490000247955322,-2.4036731067657326
77.275862,,3.0057437139604146e-06,77.657,0.546999990940094,-2.408072048312557
77.741379,,3.3092077208248873e-06,78.12,0.5490000247955322,-2.403760358060998
78.206897,,3.61398253857673e-06,78.586,0.5669999718666077,-2.364593185113647
78.67241399999999,,3.919038463666513e-06,79.054,0.546999990940094,-2.408215868323067
79.137931,,4.2233003173498865e-06,79.516,0.5410000085830688,-2.4213383148336423
79.603448,,4.52564931369269e-06,79.98,0.5659999847412109,-2.3669226982214178
80.068966,,4.824925163667036e-06,80.45,0.5820000171661377,-2.332112662776161
80.53448300000001,,5.11992841803496e-06,80.913,0.5410000085830688,-2.4214823872062863
81.0,,5.4094230509816254e-06,81.376,0.5400000214576721,-2.4237032331980144
81.465517,,5.692139285686743e-06,81.841,0.5669999718666077,-2.3649187490402332
81.931034,,5.9667766622118646e-06,82.311,0.5540000200271606,-2.393275302268525
82.396552,,6.232007347233892e-06,82.77,0.5460000038146973,-2.4107335639514456
82.86206899999999,,6.486479684272904e-06,83.235,0.5419999957084656,-2.419472128932112
83.327586,,6.728821982146863e-06,83.7,0.531000018119812,-2.4434561331826727
83.79310299999999,,6.957646538438784e-06,84.165,0.5460000038146973,-2.410790069527817
84.258621,,7.171553893785481e-06,84.631,0.5419999957084656,-2.4195123691191323
84.72413800000001,,7.3691373117933885e-06,85.096,0.5339999794960022,-2.4369429838141663
85.189655,,7.548987478358481e-06,85.561,0.5009999871253967,-2.5088341723123486
85.65517200000001,,7.709697413116561e-06,86.031,0.5249999761581421,-2.4565374497375205
86.12069,,7.849867584680017e-06,86.494,0.6209999918937683,-2.2473706228540467
86.586207,,7.968111220230543e-06,86.961,0.5239999890327454,-2.458673471699703
87.051724,,8.063059798937343e-06,87.423,0.5419999957084656,-2.4194236123638695
87.517241,,8.133368717560436e-06,87.891,0.546999990940094,-2.4084896112884593
87.98275899999999,,8.17772311548229e-06,88.354,0.5540000200271606,-2.393191521513297
88.448276,,8.19484384529193e-06,88.819,0.5509999990463257,-2.3996737747818226
88.913793,,8.183493573927707e-06,89.283,0.5519999861717224,-2.397436104326541
89.37931,,8.142482998272086e-06,89.749,0.5360000133514404,-2.4322316007087035
89.844828,,8.070677157988403e-06,90.214,0.5400000214576721,-2.4234522682540156
90.310345,,7.967001827299776e-06,90.68,0.49900001287460327,-2.5127127371052453
90.775862,,7.830449966338715e-06,91.14,0.5389999747276306,-2.425505500279659
91.241379,,7.660088211647235e-06,91.606,0.5339999794960022,-2.4363410907584133
91.706897,,7.4550633843859516e-06,92.073,0.5540000200271606,-2.3927146299163256
92.17241399999999,,7.2146089938216375e-06,92.538,0.5210000276565552,-2.4645623392920686
92.63793100000001,,6.93805171271095e-06,93.006,0.5540000200271606,-2.3926265789275867
93.103448,,6.624817800288557e-06,93.468,0.5210000276565552,-2.4644902869913947
93.568966,,6.2744394477057505e-06,93.936,0.515999972820282,-2.4753624660262674
94.03448300000001,,5.88656101995586e-06,94.398,0.5360000133514404,-2.4317800652247303
94.5,,5.4609451675705755e-06,94.869,0.550000011920929,-2.40128121409507
94.965517,,4.997478780681917e-06,95.331,0.5419999957084656,-2.4187238407512153
95.431034,,4.496178757423081e-06,95.797,0.5540000200271606,-2.392604465775907
95.896552,,3.957197558093003e-06,96.261,0.5419999957084656,-2.4187836140214687
96.36206899999999,,3.380828516039196e-06,96.726,0.5460000038146973,-2.4101148618294053
96.827586,,2.7675108758264275e-06,97.191,0.546999990940094,-2.4079920086317292
97.293103,,2.1178345289600133e-06,97.65,0.5419999957084656,-2.418949906098728
97.758621,,1.4325444172267979e-06,98.117,0.5429999828338623,-2.416843720743155
98.224138,,7.125445736090251e-07,98.582,0.5529999732971191,-2.3951357923260033
98.689655,,4.1098229279110186e-08,99.05,0.5370000004768372,-2.4300769082148657
99.155172,,8.271512531809551e-07,99.513,0.5130000114440918,-2.482450391544973
99.62069,,1.644213020349015e-06,99.976,0.5419999957084656,-2.4193571470890323
100.086207,,2.490711021266935e-06,100.446,0.5379999876022339,-2.4281580164400287
100.551724,,3.3648999329032407e-06,100.91,0.5339999794960022,-2.4369548205299876
101.017241,,4.264860375888821e-06,101.372,0.531000018119812,-2.443566627576797
101.482759,,5.188498238314912e-06,101.838,0.5419999957084656,-2.419668803200751
101.948276,,6.1335445930243294e-06,102.3,0.5400000214576721,-2.4240820389930184
102.413793,,7.0975562343132886e-06,102.766,0.5180000066757202,-2.4720552930486686
102.87931,,8.077916858872038e-06,103.231,0.5659999847412109,-2.367508244613337
103.344828,,9.071838914567895e-06,103.697,0.550000011920929,-2.4023772594056814
103.810345,,1.0076366139312496e-05,104.162,0.5540000200271606,-2.3936546276032615
104.275862,,1.1088376810755253e-05,104.628,0.5289999842643738,-2.448094431272223
104.741379,,1.2104587725906335e-05,105.095,0.5339999794960022,-2.4371571110154693
105.206897,,1.312155892801502e-05,105.561,0.5529999732971191,-2.39570170849792
105.672414,,1.4135699196113101e-05,106.024,0.5950000286102295,-2.304119835878433
106.13793100000001,,1.5143272310579195e-05,106.486,0.5400000214576721,-2.4238505557927303
106.603448,,1.6140404105889577e-05,106.954,0.5429999828338623,-2.4172067811151434
107.068966,,1.712309031939653e-05,107.416,0.5339999794960022,-2.436697784249921
107.534483,,1.8087205242518495e-05,107.884,0.550000011920929,-2.40171676121209
108.0,,1.9028511178140833e-05,108.346,0.5419999957084656,-2.4190209264682943
108.46551699999999,,1.994266870531506e-05,108.811,0.5419999957084656,-2.4188970388777067
108.931034,,2.0825247749512594e-05,109.276,0.5210000276565552,-2.4645301788751963
109.396552,,2.167173945374101e-05,109.741,0.5339999794960022,-2.4360990935155393
109.862069,,2.2477568842772004e-05,110.206,0.5339999794960022,-2.436003372002292
110.32758600000001,,2.3238108269567096e-05,110.672,0.5460000038146973,-2.4097794909742656
110.793103,,2.3948691629725837e-05,111.139,0.5460000038146973,-2.409717413602897
111.258621,,2.460462932642999e-05,111.605,0.515999972820282,-2.4750354362055234
111.724138,,2.5201223964923082e-05,112.065,0.527999997138977,-2.448873216637614
112.189655,,2.5733786752057243e-05,112.531,0.546999990940094,-2.4074844353604314
112.655172,,2.6197654572867155e-05,112.998,0.5410000085830688,-2.4205852281632905
113.12069,,2.658820771250477e-05,113.461,0.5329999923706055,-2.438066418929474
113.586207,,2.6900888188198e-05,113.928,0.5540000200271606,-2.392388651122551
114.051724,,2.7131218652193704e-05,114.391,0.5440000295639038,-2.414268811777099
114.51724100000001,,2.7274821822921446e-05,114.857,0.5379999876022339,-2.427451978728337
114.982759,,2.7327440397882192e-05,115.32,0.5339999794960022,-2.4362928255484593
115.448276,,2.728495739803809e-05,115.785,0.5370000004768372,-2.4298948838516705
115.913793,,2.7143416889769434e-05,116.25,0.5419999957084656,-2.4191475165088066
116.37931,,2.689904502678662e-05,116.716,0.5339999794960022,-2.4367261462785055
116.84482799999999,,2.6548271350753188e-05,117.187,0.5419999957084656,-2.4194455205010232
117.310345,,2.6087750285805286e-05,117.645,0.5509999990463257,-2.399980705549177
117.77586199999999,,2.5514382758659132e-05,118.117,0.5529999732971191,-2.395756038578705
118.241379,,2.482533787259647e-05,118.575,0.5289999842643738,-2.448161795993986
118.70689700000001,,2.4018074560325246e-05,119.043,0.5419999957084656,-2.4199400137888136
119.172414,,2.3090363137544643e-05,119.505,0.5329999923706055,-2.439627850490264
119.63793100000001,,2.20403066760174e-05,119.976,0.5540000200271606,-2.393932383727571
120.103448,,2.08663621120845e-05,120.439,0.5400000214576721,-2.4244634791407216
120.568966,,1.9567361003865294e-05,120.902,0.5669999718666077,-2.365642127329925
121.034483,,1.81425298478869e-05,121.372,0.5440000295639038,-2.415724232672005
121.5,,1.659150986359721e-05,121.83,0.550000011920929,-2.402597514425247
121.96551699999999,,1.4914376152154104e-05,122.302,0.5669999718666077,-2.365478671386089
122.431034,,1.3111656134065867e-05,122.76,0.5429999828338623,-2.4176590987520004
122.896552,,1.1184347168701813e-05,123.231,0.5389999747276306,-2.426244911796879
123.362069,,9.133933257414427e-06,123.69,0.5490000247955322,-2.4043118639661016
123.827586,,6.962400731031548e-06,124.155,0.5370000004768372,-2.4302957351678285
124.293103,,4.672252821805542e-06,124.62,0.5540000200271606,-2.3930897560784357
124.758621,,2.2665230195618014e-06,125.087,0.5419999957084656,-2.4190605733215995
125.22413800000001,,2.5121288821326615e-07,125.553,0.5540000200271606,-2.39274466411252
125.68965500000002,,2.8768261922496865e-06,126.021,0.5630000233650208,-2.3729705458773496
126.15517200000001,,5.605626152515382e-06,126.483,0.503000020980835,-2.5035347337834915
126.62069000000001,,8.43235250244907e-06,126.947,0.5210000276565552,-2.4641823495211526
127.086207,,1.1351169662963382e-05,127.416,0.5379999876022339,-2.4270312529274425
127.55172400000001,,1.4355662760859034e-05,127.88,0.531000018119812,-2.4421929157993394
128.017241,,1.7438835543952767e-05,128.342,0.5460000038146973,-2.4094522746725042
128.48275900000002,,2.0593110282453563e-05,128.808,0.5299999713897705,-2.4442796151363684
128.948276,,2.3810329742914713e-05,129.275,0.5180000066757202,-2.4704237499631585
129.413793,,2.7081761317436096e-05,129.741,0.4429999887943268,-2.633856809027208
129.87931,,3.0398103386685205e-05,130.205,0.5540000200271606,-2.3920949794567203
130.344828,,3.374949399074208e-05,130.671,0.5540000200271606,-2.3921924977138476
130.81034499999998,,3.7125521876748746e-05,131.135,0.5419999957084656,-2.4184582937358976
131.275862,,4.0515239986856106e-05,131.601,0.5529999732971191,-2.3946361828138647
131.741379,,4.390718144400997e-05,132.066,0.5379999876022339,-2.427475730665472
132.206897,,4.728937808670402e-05,132.531,0.5379999876022339,-2.4276480231182735
132.67241399999997,,5.0649381596954037e-05,132.995,0.5849999785423279,-2.3254305390747403
133.13793099999998,,5.397428725841885e-05,133.457,0.5519999861717224,-2.397505213679351
133.60344800000001,,5.725076037381613e-05,133.92,0.550000011920929,-2.4020370857918514
134.06896600000002,,6.046506536256324e-05,134.39,0.5360000133514404,-2.432704003560548
134.53448300000002,,6.360309755092504e-05,134.856,0.5339999794960022,-2.4372141560921627
135.0,,6.665041765788403e-05,135.32,0.550000011920929,-2.402490981631574
135.465517,,6.959228897047768e-05,135.785,0.5460000038146973,-2.411318912940658
135.931034,,7.241371719248957e-05,136.25,0.5490000247955322,-2.404870720522388
136.396552,,7.509949294015284e-05,136.716,0.546999990940094,-2.4092877885994555
136.862069,,7.763423684794724e-05,137.18,0.5649999976158142,-2.3701016021234174
137.327586,,8.000244723666731e-05,137.646,0.5379999876022339,-2.428923497470687
137.793103,,8.218855028473272e-05,138.105,0.5429999828338623,-2.417998089290008
138.258621,,8.417695263223029e-05,138.571,0.5189999938011169,-2.4702246938270167
138.724138,,8.595209633544885e-05,139.039,0.5370000004768372,-2.4309215154555037
139.189655,,8.749851607772433e-05,139.501,0.5379999876022339,-2.4286311788542956
139.655172,,8.880089853028576e-05,139.965,0.5450000166893005,-2.4132473233520484
140.12069,,8.984414374451837e-05,140.435,0.5400000214576721,-2.42398942197987
140.586207,,9.0613428444676e-05,140.895,0.5379999876022339,-2.42818221105532
141.05172399999998,,9.109427107761877e-05,141.364,0.5540000200271606,-2.393150334976238
141.51724099999998,,9.127259846366625e-05,141.831,0.5460000038146973,-2.4104019076096783
141.982759,,9.113481388018244e-05,142.294,0.5540000200271606,-2.392795784475977
142.44827600000002,,9.066786639709277e-05,142.76,0.4699999988079071,-2.57563280858736
142.913793,,8.985932127122105e-05,143.225,0.5339999794960022,-2.4360437921926974
143.37931,,8.869743119417354e-05,143.69,0.5329999923706055,-2.438084597269373
143.844828,,8.717120817653749e-05,144.15,0.5329999923706055,-2.437967198317934
144.310345,,8.527049583945381e-05,144.615,0.5460000038146973,-2.4095508121010565
144.77586200000002,,8.298604187322091e-05,145.08,0.5419999957084656,-2.4181971828138003
145.241379,,8.03095704115404e-05,145.546,0.5440000295639038,-2.413799002093555
145.706897,,7.723385405938188e-05,146.016,0.5339999794960022,-2.435573540884953
146.172414,,7.375278530227715e-05,146.478,0.550000011920929,-2.4007321203138616
146.637931,,6.986144701521048e-05,146.941,0.5339999794960022,-2.435636105776773
147.103448,,6.555618178020645e-05,147.41,0.5419999957084656,-2.4182797468255295
147.568966,,6.083465971328844e-05,147.872,0.5339999794960022,-2.435807275563916
148.034483,,5.569594449374454e-05,148.335,0.5339999794960022,-2.435928370986113
148.5,,5.014055728165171e-05,148.8,0.515999972820282,-2.475285014930809
148.965517,,4.4170538203427814e-05,149.265,0.5630000233650208,-2.373044959879298
149.43103399999998,,3.778950507986313e-05,149.731,0.5320000052452087,-2.440750008193832
149.89655199999999,,3.100270906668187e-05,150.198,0.5419999957084656,-2.419136072599769
150.362069,,2.381708687425498e-05,150.664,0.5789999961853027,-2.3386988513865066
150.82758600000003,,1.6241309230681503e-05,151.128,0.5419999957084656,-2.4194761797566566
151.293103,,8.285825251128279e-06,151.594,0.5460000038146973,-2.4109193127281374
151.758621,,3.7097623881898194e-08,152.057,0.5419999957084656,-2.419778355036524
152.224138,,8.713338457568601e-06,152.52,0.5540000200271606,-2.393761474889321
152.68965500000002,,1.7726892747516526e-05,152.991,0.5730000138282776,-2.352472430805602
153.155172,,2.7059847788498613e-05,153.453,0.5400000214576721,-2.4244482592502585
153.62069,,3.669236379340718e-05,153.917,0.546999990940094,-2.409251969376867
154.086207,,4.660266109208815e-05,154.387,0.5419999957084656,-2.4201722326531243
154.551724,,5.67670137203816e-05,154.845,0.49000000953674316,-2.5334622280222137
155.017241,,6.715974970276962e-05,155.315,0.5630000233650208,-2.3743950501920237
155.482759,,7.775325832169163e-05,155.78,0.5299999713897705,-2.4462384055379376
155.948276,,8.851800465478548e-05,156.24,0.5419999957084656,-2.4200170248525437
156.413793,,9.94225516480288e-05,156.705,0.6480000019073486,-2.188977608723274
156.87931,,0.00011043358997797585,157.172,0.531000018119812,-2.4437527659026936
157.34482799999998,,0.00012151597593999893,157.638,0.5460000038146973,-2.410927852890737
157.81034499999998,,0.00013263277758164703,158.102,0.5419999957084656,-2.419484713190517
158.275862,,0.00014374532928092658,158.568,0.6060000061988831,-2.2798840314954467
158.741379,,0.00015481329494849592,159.036,0.5429999828338623,-2.416966184519258
159.20689700000003,,0.00016579474001045827,159.498,0.550000011920929,-2.4015431202616173
159.672414,,0.0001766462123046541,159.961,0.5410000085830688,-2.42098495448585
160.137931,,0.00018732283199811688,160.431,0.5429999828338623,-2.4164731120163703
160.60344800000001,,0.00019777839060669533,160.895,0.5299999713897705,-2.4446571810472637
161.06896600000002,,0.0002079654591697979,161.357,0.5299999713897705,-2.4445393850936568
161.534483,,0.0002178355056038201,161.823,0.5389999747276306,-2.424837718601603
162.0,,0.00022733902122712811,162.286,0.5370000004768372,-2.429127392131883
162.465517,,0.000236425656417543,162.752,0.5669999718666077,-2.363727778579482
162.931034,,0.00024504436533016714,163.217,0.5410000085830688,-2.420360133362664
163.396552,,0.00025314355956918314,163.682,0.5379999876022339,-2.426912099504204
163.862069,,0.00026067127067201727,164.15,0.5540000200271606,-2.3920977187115784
164.327586,,0.0002675753212280753,164.616,0.5669999718666077,-2.3638453657119194
164.793103,,0.0002738035044172243,165.081,0.5370000004768372,-2.4292983135290718
165.258621,,0.0002793037717154014,165.546,0.515999972820282,-2.4751655953408735
165.72413799999998,,0.00028402442847629293,166.009,0.5540000200271606,-2.392511703058609
166.189655,,0.000287914337059049,166.472,0.5339999794960022,-2.436234334944007
166.655172,,0.0002909231271326066,166.935,0.5350000262260437,-2.4342154605414477
167.12069,,0.00029300141274750906,167.405,0.5789999961853027,-2.338520004029028
167.58620699999997,,0.00029410101572626535,167.865,0.5400000214576721,-2.4236517623536824
168.051724,,0.00029417519488342833,168.335,0.5210000276565552,-2.465206300598222
168.517241,,0.0002931788805468316,168.801,0.5419999957084656,-2.419607153095492
168.98275900000002,,0.00029106891381196074,169.266,0.527999997138977,-2.450248334860214
169.44827600000002,,0.00028780428992240337,169.731,0.5419999957084656,-2.4198708842499568
169.913793,,0.0002833464051308811,170.191,0.5370000004768372,-2.430867587742249
170.37931,,0.00027765930635768486,170.657,0.5440000295639038,-2.4156971132554186
170.844828,,0.0002707099429265835,171.12,0.5519999861717224,-2.398322210965437
171.310345,,0.0002624684196226331,171.586,0.5360000133514404,-2.4332071441875494
171.775862,,0.00025290825028195134,172.05,0.5699999928474426,-2.3591312255809895
172.241379,,0.0002420066110906177,172.52,0.5270000100135803,-2.4527826803133834
172.706897,,0.00022974459273859788,172.984,0.5329999923706055,-2.4396536907198754
173.172414,,0.0002161074505451688,173.446,0.5460000038146973,-2.411249453477243
173.637931,,0.00020108485164493716,173.917,0.5460000038146973,-2.4111448659242263
174.103448,,0.00018467111829836326,174.379,0.5299999713897705,-2.4458790518407993
174.568966,,0.000166865466367872,174.845,0.5410000085830688,-2.42177389769901
175.034483,,0.00014767223798035938,175.307,0.5419999957084656,-2.419443620219079
175.5,,0.00012710112737945644,175.773,0.5519999861717224,-2.3974977240744146
175.96551699999998,,0.00010516739895651757,176.24,0.5389999747276306,-2.4256574532509636
176.43103399999998,,8.189209643798094e-05,176.705,0.5419999957084656,-2.418960358690092
176.896552,,5.730224219848095e-05,177.172,0.5389999747276306,-2.4253417231839425
177.36206900000002,,3.143102566419495e-05,177.63,0.5419999957084656,-2.4186620265453396
177.827586,,4.317979770086482e-06,178.095,0.5440000295639038,-2.4141759119695676
178.293103,,2.3990855561762643e-05,178.56,0.531000018119812,-2.442388398447639
178.758621,,5.3442783948522656e-05,179.031,0.5419999957084656,-2.4183354750190236
179.224138,,8.397831809388508e-05,179.494,0.5419999957084656,-2.4182721129229634
179.68965500000002,,0.00011553106135887236,179.961,0.5379999876022339,-2.4269494789686785
180.155172,,0.00014802760633803456,180.424,0.527999997138977,-2.448726172398375
180.62069,,0.00018138745139478839,180.887,0.5460000038146973,-2.4095284946450946
181.086207,,0.00021552293608069966,181.357,0.47600001096725464,-2.5620799757857964
181.551724,,0.0002503391963387146,181.815,0.527999997138977,-2.448864188887971
182.01724099999998,,0.00028573414036027223,182.28,0.5270000100135803,-2.451141713170085
182.482759,,0.0003215984459128648,182.745,0.5460000038146973,-2.4098668802795027
182.948276,,0.00035781557988284,183.21,0.5630000233650208,-2.372965187719253
183.413793,,0.00039426184072891045,183.675,0.5419999957084656,-2.4188634702072958
183.87931,,0.00043080642453741677,184.142,0.5320000052452087,-2.440804025266875
184.34482799999998,,0.0004673115153447865,184.608,0.5419999957084656,-2.4191751828635026
184.81034499999998,,0.0005036324002469547,185.073,0.5440000295639038,-2.4149741626307533
185.27586200000002,,0.0005396176096068337,185.538,0.5529999732971191,-2.3955165644540943
185.74137900000002,,0.0005751090826482505,186.006,0.5299999713897705,-2.4457651581790025
186.206897,,0.0006099423589695243,186.468,0.5419999957084656,-2.4197470311873914
186.672414,,0.0006439467965752011,186.935,0.5920000076293945,-2.310921860253378
187.137931,,0.0006769458163867878,187.398,0.5519999861717224,-2.3981525296689115
187.60344800000001,,0.0007087571723541275,187.864,0.46299999952316284,-2.5921143167610445
188.06896600000002,,0.0007391932467254077,188.327,0.5460000038146973,-2.411326843735494
188.534483,,0.0007680613718931829,188.793,0.5540000200271606,-2.3939138782374663
189.0,,0.0007951641805971828,189.257,0.5370000004768372,-2.430941233002212
189.465517,,0.0008202999825008163,189.723,0.5460000038146973,-2.4112984454765476
189.931034,,0.0008432631611712398,190.188,0.5440000295639038,-2.4155967381476424
190.39655199999999,,0.0008638445898080282,190.653,0.5419999957084656,-2.419872954076883
190.862069,,0.0008818320754565659,191.12,0.5540000200271606,-2.393628123034048
191.327586,,0.0008970108414014963,191.586,0.550000011920929,-2.4022246278551043
191.793103,,0.0009091640337219903,192.046,0.5460000038146973,-2.410807539310933
192.25862099999998,,0.0009180732188974069,192.516,0.5460000038146973,-2.4106663757873434
192.72413799999998,,0.0009235188726197515,192.98,0.5429999828338623,-2.4170560356872226
193.189655,,0.0009252809255037053,193.442,0.5540000200271606,-2.3929434965385945
193.655172,,0.0009231394149910041,193.906,0.5659999847412109,-2.366655186747267
194.12069000000002,,0.000916875144652285,194.375,0.5329999923706055,-2.4384128770554665
194.586207,,0.0009062701674088851,194.841,0.5440000295639038,-2.4143216046376477
195.051724,,0.0008911081459127338,195.303,0.5490000247955322,-2.4033177176135214
195.517241,,0.0008711750060254529,195.768,0.5460000038146973,-2.4097612612026245
195.98275900000002,,0.0008462601016753337,196.235,0.5540000200271606,-2.392260243584536
196.448276,,0.0008161572056582707,196.701,0.550000011920929,-2.400925542324348
196.913793,,0.0007806643262910729,197.161,0.5419999957084656,-2.4183294010694434
197.37931,,0.0007395829568810226,197.627,0.5460000038146973,-2.4096142843470085
197.844828,,0.0006927192937306012,198.091,0.5320000052452087,-2.4401398907252605
198.310345,,0.0006398881922571522,198.557,0.5419999957084656,-2.4184023747520964
198.775862,,0.0005809152558124213,199.024,0.5429999828338623,-2.416295438487167
199.241379,,0.0005156317957012226,199.487,0.5630000233650208,-2.372813938176108
199.706897,,0.0004438679297785258,199.95,0.5649999976158142,-2.368564547375642
200.172414,,0.0003654588347718058,200.42,0.5339999794960022,-2.43622373948213
200.63793099999998,,0.0002802652930720712,200.88,0.5370000004768372,-2.429819436548054
201.103448,,0.00018817856336738993,201.35,0.515999972820282,-2.4757104714863245
201.568966,,8.908331655250745e-05,201.816,0.5640000104904175,-2.3712779399327997
202.034483,,1.7180687716945594e-05,202.276,0.5429999828338623,-2.417170498885847
202.5,,0.0001307717488140301,202.741,0.5529999732971191,-2.3955186082202093
202.965517,,0.0002517288932258835,203.206,0.546999990940094,-2.40871497537315
203.431034,,0.00037997352322974054,203.672,0.5730000138282776,-2.35218044422269
203.896552,,0.0005155509631683397,204.139,0.5669999718666077,-2.365344834881416
204.36206900000002,,0.0006588187842209931,204.605,0.531000018119812,-2.443848376671803
204.827586,,0.0008100994582698631,205.065,0.5410000085830688,-2.422113393477106
205.293103,,0.0009690152270643993,205.531,0.5389999747276306,-2.4265004975900686
205.758621,,0.0011346710337957993,205.995,0.5440000295639038,-2.415614208006207
206.224138,,0.001307167475518191,206.465,0.5419999957084656,-2.419955837835164
206.689655,,0.001488430956542176,206.925,0.5389999747276306,-2.426453903553045
207.155172,,0.001679764411369421,207.395,0.5440000295639038,-2.4155016994016916
207.62069,,0.0018781861585663463,207.862,0.5540000200271606,-2.3936369604108307
208.086207,,0.0020785454880881972,208.326,0.546999990940094,-2.408791880155018
208.551724,,0.002282738289015979,208.792,0.5249999761581421,-2.4566124099515574
209.01724099999998,,0.002502707975360189,209.251,0.5370000004768372,-2.430348630562485
209.482759,,0.0027438896361819125,209.716,0.5389999747276306,-2.4258646912635937
209.948276,,0.002985833089504014,210.183,0.5339999794960022,-2.4366278746871233
210.413793,,0.0032007894179888687,210.649,0.5540000200271606,-2.392924839346058
210.87930999999998,,0.003408381170221228,211.113,0.5490000247955322,-2.4036912823620176
211.344828,,0.0036809907092828454,211.579,0.5540000200271606,-2.3926776853217775
211.810345,,0.004035631127228079,212.046,0.5440000295639038,-2.414353684433155
212.27586200000002,,0.004336602081523015,212.509,0.5519999861717224,-2.396827219476583
212.741379,,0.004440293288249417,212.977,0.5540000200271606,-2.39238815733828
213.206897,,0.004511539849871178,213.44,0.5659999847412109,-2.366180264110265
213.672414,,0.0049798412995470005,213.902,0.5289999842643738,-2.4467456346046337
214.137931,,0.0058520171591504005,214.365,0.5540000200271606,-2.39225616690909
214.60344800000001,,0.00622261602546162,214.831,0.5410000085830688,-2.420577630376264
215.068966,,0.005177288069462977,215.302,0.5630000233650208,-2.372668111094249
215.534483,,0.0033975632076346262,215.76,0.5370000004768372,-2.429354964763487
216.0,,0.002959412400021081,216.228,0.5260000228881836,-2.4533827085982334
216.465517,,0.004858480793304712,216.694,0.5440000295639038,-2.4142491787580016
216.93103399999998,,0.007440364947123841,217.162,0.5419999957084656,-2.418705459050256
217.39655199999999,,0.008002250728067707,217.62,0.5540000200271606,-2.3926739275709505
217.862069,,0.005460944470504129,218.092,0.5659999847412109,-2.3666520656262247
218.327586,,0.0009500303887116989,218.55,0.5460000038146973,-2.4103526200857255
218.793103,,0.0037988279842160614,219.02,0.5540000200271606,-2.3930535177953063
219.25862099999998,,0.008173531361090655,219.483,0.546999990940094,-2.4084333015943
219.724138,,0.01275544717164216,219.946,0.5669999718666077,-2.3649846847205227
220.18965500000002,,0.017862533204950588,220.416,0.550000011920929,-2.4021373278671705
220.65517200000002,,0.022419727375688918,220.877,0.5429999828338623,-2.417492169627291
221.12069,,0.024755730050636793,221.346,0.5230000019073486,-2.4611559509050926
221.586207,,0.02448988299523892,221.805,0.6330000162124634,-2.221578236862438
222.051724,,0.023095493128281585,222.277,0.5669999718666077,-2.365421272810323
222.517241,,0.022274942520071516,222.735,0.5389999747276306,-2.4264534857692355
222.98275900000002,,0.021872667657058656,223.202,0.5289999842643738,-2.4482497507545498
223.448276,,0.019623814399848415,223.668,0.5370000004768372,-2.430810694550819
223.913793,,0.013421191596760867,224.135,0.5540000200271606,-2.3937441120444505
224.37931,,0.004209319030929578,224.601,0.5339999794960022,-2.437268474251569
224.844828,,0.00396863581601849,225.065,0.5379999876022339,-2.4284876769763963
225.31034499999998,,0.007805079616449974,225.532,0.5400000214576721,-2.42404866190689
225.775862,,0.008304630139822158,225.995,0.5410000085830688,-2.4217749773729333
226.241379,,0.009482155040633761,226.457,0.5540000200271606,-2.3933462530341756
226.706897,,0.013832917651541748,226.92,0.5540000200271606,-2.3932311229905476
227.172414,,0.020194347720648972,227.391,0.5299999713897705,-2.4453980881484694
227.63793099999998,,0.025548595577250345,227.857,0.5789999961853027,-2.338521113066198
228.103448,,0.027497667540542593,228.32,0.5339999794960022,-2.436437624350017
228.56896600000002,,0.025334096989712174,228.785,0.5360000133514404,-2.4319619163421033
229.03448300000002,,0.02029146661088098,229.25,0.5669999718666077,-2.3643133303192574
229.5,,0.014958178039302062,229.716,0.5299999713897705,-2.444823067941556
229.965517,,0.011437941843208376,230.176,0.5299999713897705,-2.4447365718096052
230.431034,,0.009783580139499952,230.642,0.5630000233650208,-2.3727707423182673
230.896552,,0.008527750530098355,231.106,0.4860000014305115,-2.5404747925500315
231.362069,,0.0065391567259348,231.572,0.5260000228881836,-2.4532979820667418
231.827586,,0.0039887715394302335,232.039,0.546999990940094,-2.4075371134172148
232.293103,,0.0017457932174074482,232.501,0.5360000133514404,-2.4315131827509817
232.758621,,0.0003919883166218425,232.965,0.5299999713897705,-2.4446161265346964
233.224138,,0.00011343337797653237,233.435,0.546999990940094,-2.407629127940467
233.689655,,0.00035597317079607855,233.898,0.5529999732971191,-2.3946243602622292
234.155172,,0.0013374775504599885,234.361,0.5730000138282776,-2.3511325581443923
234.62069,,0.003853391381566907,234.826,0.5329999923706055,-2.4383716809672977
235.086207,,0.007440327986594454,235.293,0.5429999828338623,-2.416688595963407
235.55172399999998,,0.010302550691017697,235.759,0.5410000085830688,-2.421157181439733
236.01724099999998,,0.010850102227227466,236.22,0.5289999842643738,-2.447417502277311
236.482759,,0.009169222649247539,236.685,0.4959999918937683,-2.51943255423535
236.94827600000002,,0.0067516969137407234,237.15,0.5419999957084656,-2.419334899270515
237.413793,,0.005182176842770352,237.616,0.5669999718666077,-2.3649846829711816
237.87931,,0.005302697197554061,238.08,0.5299999713897705,-2.4457021565524224
238.344828,,0.0069218152574620564,238.546,0.5419999957084656,-2.4196550444065204
238.810345,,0.008632504461703015,239.013,0.550000011920929,-2.40230931788613
239.27586200000002,,0.008412528529866292,239.475,0.5529999732971191,-2.3958409036071386
239.741379,,0.0054108056983979925,239.943,0.550000011920929,-2.4024261626667336
240.206897,,0.0012132143409392566,240.406,0.5529999732971191,-2.3959203558897713
240.672414,,0.0013587360851644013,240.876,0.5410000085830688,-2.422074213488659
241.137931,,0.0009287698940965945,241.339,0.5249999761581421,-2.4569233994965565
241.603448,,0.0012883622574604106,241.805,0.550000011920929,-2.4024290731934634
242.068966,,0.0029849799685697947,242.269,0.5249999761581421,-2.456849245680104
242.534483,,0.0029602208397508573,242.735,0.5669999718666077,-2.365282673775487
243.0,,0.0018356044843793582,243.201,0.5929999947547913,-2.3085573786280777
243.465517,,0.0011562726717075046,243.66,0.527999997138977,-2.4500738287636117
243.93103399999998,,0.0020381861527699226,244.125,0.503000020980835,-2.5044339758624745
244.39655199999999,,0.004238262236679418,244.59,0.546999990940094,-2.4084614217527127
244.862069,,0.0060891545426666055,245.058,0.5440000295639038,-2.4148811262162897
245.327586,,0.005628668700242987,245.521,0.5860000252723694,-2.3232592247460406
245.793103,,0.002503033110014921,245.991,0.5429999828338623,-2.416822602903228
246.258621,,0.0011624302676245461,246.453,0.515999972820282,-2.4755321096159513
246.724138,,0.0025324996106309817,246.917,0.5630000233650208,-2.3730300916219917
247.18965500000002,,0.0010813225628131195,247.387,0.5490000247955322,-2.403436316324212
247.655172,,0.0007260328348780677,247.845,0.5419999957084656,-2.4186049624135384
248.12069,,0.00016471395562251177,248.315,0.5450000166893005,-2.4120026295037906
248.586207,,0.0027011617732727953,248.781,0.546999990940094,-2.4075964842474917
249.051724,,0.004919150233654583,249.242,0.5720000267028809,-2.3530994725328322
249.517241,,0.0034800503257801448,249.707,0.5419999957084656,-2.418446990589878
249.982759,,0.0014903172018407883,250.172,0.5370000004768372,-2.4293480342652924
250.44827600000002,,0.006114376371964152,250.638,0.550000011920929,-2.401053593834386
250.913793,,0.005936354080216169,251.106,0.5419999957084656,-2.418530136471189
251.37931000000003,,0.0005170259018965435,251.571,0.5419999957084656,-2.418595575165747
251.844828,,0.005360491231417636,252.032,0.5389999747276306,-2.425213611013005
252.31034499999998,,0.005986940252320191,252.502,0.5419999957084656,-2.41877411760252
252.77586200000002,,0.0004639716434141557,252.965,0.5460000038146973,-2.410167706926092
253.241379,,0.006364468165553717,253.428,0.5630000233650208,-2.373247046929682
253.706897,,0.008672019587348265,253.895,0.5759999752044678,-2.3450451991244012
254.172414,,0.004738350541849524,254.358,0.5339999794960022,-2.4366697107872253
254.63793099999998,,0.002262191573299148,254.824,0.546999990940094,-2.408467065211
255.10344800000001,,0.007226352418960344,255.287,0.5339999794960022,-2.436905199707462
255.56896600000002,,0.006937486145850835,255.752,0.48500001430511475,-2.543768432051461
256.03448299999997,,0.0023482940476806783,256.217,0.5239999890327454,-2.4589027432571733
256.5,,0.0025700775923518746,256.682,0.5490000247955322,-2.4045260937844666
256.965517,,0.004875490918702898,257.147,0.5419999957084656,-2.4198501701144024
257.431034,,0.005081772090135253,257.613,0.550000011920929,-2.4024755421391526
257.896552,,0.004829972602362731,258.08,0.5460000038146973,-2.411223994606224
258.362069,,0.003527696536177878,258.546,0.5210000276565552,-2.4657024945474753
258.827586,,0.0005594084902729832,259.009,0.550000011920929,-2.4025123493653746
259.29310300000003,,0.006331185624314362,259.472,0.6209999918937683,-2.2477953084739046
259.758621,,0.009576292561243552,259.935,0.5419999957084656,-2.419850948625457
260.224138,,0.007675432503491114,260.405,0.5360000133514404,-2.4328437636568547
260.689655,,0.0028810848586647993,260.869,0.5659999847412109,-2.367387235208442
261.155172,,0.00026503275642455603,261.331,0.5419999957084656,-2.4195617839057215
261.62068999999997,,0.0005532038048526377,261.797,0.5299999713897705,-2.445580519625739
262.086207,,0.004436345776833519,262.261,0.5379999876022339,-2.4280184413777874
262.551724,,0.008994063301024724,262.727,0.5289999842643738,-2.447489633146052
263.017241,,0.01144509965122007,263.194,0.5360000133514404,-2.432102560515064
263.482759,,0.009487228303688876,263.66,0.5759999752044678,-2.3448235051871067
263.94827599999996,,0.0033960136671952403,264.125,0.5669999718666077,-2.3643038998575996
264.413793,,0.0028527975590783355,264.591,0.5440000295639038,-2.4142947626385562
264.87931,,0.0043826147487072194,265.054,0.5260000228881836,-2.4534069673578904
265.34482799999995,,0.000282802527537871,265.517,0.5220000147819519,-2.462036887000627
265.810345,,0.0049280416830684605,265.98,0.5109999775886536,-2.4859395182712576
266.27586199999996,,0.0055966759774353945,266.45,0.5329999923706055,-2.43797071337767
266.741379,,0.0007734912316473888,266.913,0.5529999732971191,-2.394383565747707
267.206897,,0.004697558743239603,267.376,0.5339999794960022,-2.4357876103575675
267.672414,,0.005075316116391337,267.841,0.5490000247955322,-2.4031412301339157
268.137931,,0.00047681278477549,268.311,0.5419999957084656,-2.418448017037396
268.603448,,0.007093639269965177,268.777,0.5529999732971191,-2.394560004365745
269.06896600000005,,0.009168245204152912,269.236,0.5189999938011169,-2.468730172321788
269.53448299999997,,0.005719506302733413,269.702,0.5410000085830688,-2.4209129496586046
270.0,,0.00037187649856823855,270.169,0.546999990940094,-2.407967563490445
270.465517,,0.0031630316859778953,270.635,0.5400000214576721,-2.4233537009813104
270.931034,,0.0038932986043009503,271.095,0.5379999876022339,-2.4278521507889326
271.396552,,0.002294699429170574,271.561,0.5540000200271606,-2.393135971378095
271.86206899999996,,0.0009975070423942122,272.031,0.5540000200271606,-2.3932747278865767
272.327586,,0.004268892790235391,272.494,0.5389999747276306,-2.4260857304292354
272.793103,,0.004736742896421116,272.962,0.5460000038146973,-2.4109553087377864
273.258621,,0.0012721470983433532,273.424,0.5440000295639038,-2.4154183157521567
273.724138,,0.0038057716342349518,273.887,0.5389999747276306,-2.4263999787341546
274.18965499999996,,0.00690204202501925,274.357,0.5680000185966492,-2.3632869884800423
274.655172,,0.006601504345450484,274.815,0.5699999928474426,-2.3589743075526464
275.12069,,0.0042590295137748535,275.28,0.5419999957084656,-2.4199963122355475
275.586207,,0.0020229942799767633,275.745,0.5299999713897705,-2.446135984721569
276.051724,,0.0013375841847893988,276.21,0.531000018119812,-2.443930200814593
276.517241,,0.002681068123527002,276.676,0.5519999861717224,-2.3981293583167758
276.98275900000004,,0.005274965362863714,277.142,0.5360000133514404,-2.4329170991494853
277.448276,,0.006950325533346235,277.608,0.5460000038146973,-2.411040794422985
277.913793,,0.005486329519575739,278.073,0.5519999861717224,-2.3978622646669567
278.37931,,0.0009620585876175986,278.539,0.5360000133514404,-2.432600044734714
278.844828,,0.0032660378207808576,279.002,0.49000000953674316,-2.532688313905383
279.31034500000004,,0.002721789165107553,279.472,0.550000011920929,-2.4018352876765157
279.77586199999996,,0.003985981205905582,279.935,0.5669999718666077,-2.364661870331843
280.241379,,0.01277505188105311,280.399,0.5299999713897705,-2.445135780778197
280.706897,,0.016712310234317556,280.869,0.6449999809265137,-2.194458097631916
281.172414,,0.011980672427868006,281.331,0.5299999713897705,-2.4448752562200857
281.637931,,0.0014637819774354947,281.79,0.5260000228881836,-2.453473687046547
282.10344799999996,,0.007805011314450175,282.255,0.527999997138977,-2.449017605170491
282.568966,,0.010876450859487127,282.72,0.5170000195503235,-2.4729042345140546
283.034483,,0.008644163140289863,283.187,0.550000011920929,-2.4009528206356623
283.5,,0.005709290385488016,283.653,0.5419999957084656,-2.4183492635869843
283.965517,,0.005205504939346519,284.118,0.5529999732971191,-2.394375039537297
284.431034,,0.006326274380029948,284.583,0.5379999876022339,-2.4270695708960166
284.89655200000004,,0.006587011322863331,285.046,0.5379999876022339,-2.427108300036988
285.362069,,0.005324279520163114,285.516,0.5540000200271606,-2.3923113562951412
285.827586,,0.004200931321197648,285.98,0.5540000200271606,-2.392393294507617
286.293103,,0.004613730411041346,286.443,0.5669999718666077,-2.3641704374089905
286.758621,,0.005514670171652831,286.906,0.5299999713897705,-2.444894862366098
287.22413800000004,,0.004411657192467227,287.376,0.5410000085830688,-2.4210566661151374
287.689655,,0.00043505870003105027,287.841,0.550000011920929,-2.4015849685169264
288.155172,,0.004092076654506813,288.304,0.5429999828338623,-2.41697655308068
288.62069,,0.005458992455949393,288.77,0.5619999766349792,-2.375723730591935
289.086207,,0.0021129021462111255,289.236,0.550000011920929,-2.4020050570088824
289.55172400000004,,0.0033377286556251396,289.695,0.5450000166893005,-2.413028269869415
290.01724099999996,,0.005793194037706188,290.162,0.5490000247955322,-2.404432619213326
290.482759,,0.0020833101002988947,290.627,0.5419999957084656,-2.419787845577202
290.948276,,0.005771578915845558,291.094,0.5910000205039978,-2.3131205160783135
291.413793,,0.011982696864893248,291.561,0.4699999988079071,-2.5768036570076265
291.87931,,0.012109212526337062,292.024,0.527999997138977,-2.4504891423304596
292.344828,,0.006917375962732536,292.486,0.5509999990463257,-2.400406160917093
292.81034500000004,,0.0013062736462755315,292.954,0.5410000085830688,-2.4221947355799127
293.275862,,0.00034871139081617557,293.416,0.5509999990463257,-2.4003860251441553
293.74137900000005,,0.002155301874934776,293.884,0.5389999747276306,-2.426483776330796
294.206897,,0.005224512903574559,294.347,0.546999990940094,-2.408985852574509
294.672414,,0.004946175434702418,294.812,0.5540000200271606,-2.3936455390001243
295.13793100000004,,0.0006004658673295657,295.279,0.5540000200271606,-2.393536831297321
295.603448,,0.004564837255166693,295.745,0.5419999957084656,-2.4195560617641125
296.068966,,0.006395335776403353,296.205,0.5419999957084656,-2.4194194902049095
296.534483,,0.0042515593025883825,296.671,0.5360000133514404,-2.432347025031349
297.0,,0.001543161999380429,297.137,0.550000011920929,-2.4016979433101073
297.46551700000003,,0.0011277636325978373,297.603,0.5379999876022339,-2.427694174716428
297.931034,,0.0017965880633924022,298.068,0.527999997138977,-2.4493380515724463
298.396552,,0.0010249927576616404,298.534,0.5669999718666077,-2.3642372141998664
298.862069,,0.00041121047746718495,298.995,0.5299999713897705,-2.444726007176832
299.327586,,0.0005660462819805044,299.464,0.5339999794960022,-2.435906665047485
299.79310300000003,,0.004142725189912626,299.925,0.5460000038146973,-2.4096780384758314
300.258621,,0.006431973250444577,300.394,0.5669999718666077,-2.3638632791014778
300.724138,,0.0043251985865830535,300.86,0.5429999828338623,-2.4161106368291563
301.189655,,0.0007535748682823565,301.325,0.5329999923706055,-2.437881942653115
301.65517200000005,,0.005106286379084405,301.791,0.5540000200271606,-2.3921411912853956
302.12069,,0.006916733183478517,302.25,0.5440000295639038,-2.413964194141595
302.586207,,0.006807472280588013,302.716,0.5540000200271606,-2.3922387928796134
303.05172400000004,,0.005776381577007918,303.183,0.5339999794960022,-2.435896113363966
303.517241,,0.004246196247004445,303.649,0.5680000185966492,-2.3619270775150927
303.982759,,0.0024952584773110533,304.113,0.5400000214576721,-2.4230520335805426
304.448276,,0.0006943441950163826,304.579,0.5669999718666077,-2.3643656018815484
304.913793,,0.001350809162269427,305.047,0.5460000038146973,-2.41026448587808
305.37931000000003,,0.00359111266316767,305.509,0.5139999985694885,-2.4801357026124324
305.844828,,0.004832037305378494,305.972,0.550000011920929,-2.4018624037587433
306.310345,,0.0033640179815404353,306.435,0.5440000295639038,-2.4150908631783428
306.775862,,0.0008361036075189477,306.902,0.5540000200271606,-2.3934542995644192
307.241379,,0.004976036650113452,307.365,0.5540000200271606,-2.3935928423267003
307.70689699999997,,0.005417933288874428,307.831,0.5419999957084656,-2.41985978702935
308.172414,,0.0010310764734162393,308.302,0.546999990940094,-2.409070865869621
308.637931,,0.005567883817703449,308.76,0.5429999828338623,-2.4178679268113465
309.103448,,0.009957676707724461,309.231,0.5360000133514404,-2.4331765709201347
309.568966,,0.00909047005681107,309.69,0.5370000004768372,-2.4310302193991795
310.034483,,0.0031824201561553578,310.157,0.5320000052452087,-2.4419287922995663
310.5,,0.004897819057112608,310.623,0.550000011920929,-2.4026908487685037
310.96551700000003,,0.011857640679740659,311.088,0.5360000133514404,-2.433142094022452
311.431034,,0.015563384347474559,311.554,0.550000011920929,-2.402564592616088
311.896552,,0.015014899543365497,312.017,0.527999997138977,-2.450393950543794
312.362069,,0.010155235177169642,312.486,0.5669999718666077,-2.3653036321582084
312.827586,,0.002573605098164753,312.947,0.5540000200271606,-2.3934833078882605
313.29310300000003,,0.004328107396904886,313.416,0.5649999976158142,-2.369359432949232
313.758621,,0.007244155142463938,313.877,0.5410000085830688,-2.4214768570641723
314.224138,,0.005698219541403558,314.347,0.531000018119812,-2.443087628649066
314.689655,,0.0027459326251432583,314.805,0.5370000004768372,-2.4298403455722895
315.155172,,0.002557085077139199,315.272,0.5419999957084656,-2.418776988963201
315.62068999999997,,0.006818804433316233,315.738,0.5249999761581421,-2.455654320138987
316.086207,,0.013188645514910955,316.203,0.47999998927116394,-2.5535502950598414
316.551724,,0.017403802251433065,316.669,0.5370000004768372,-2.429245812903582
317.017241,,0.017162167994932167,317.136,0.550000011920929,-2.4008257442436474
317.482759,,0.013814182056134721,317.602,0.4429999887943268,-2.633870878606002
317.94827599999996,,0.010336196413414914,318.069,0.5379999876022339,-2.4268601327928416
318.413793,,0.008522756424383458,318.527,0.550000011920929,-2.400707888193179
318.87931000000003,,0.008403541296650717,318.995,0.5540000200271606,-2.3920134629345498
319.344828,,0.008860976578662414,319.458,0.546999990940094,-2.4073120422352443
319.810345,,0.007748772059925731,319.92,0.5170000195503235,-2.4727466417679635
320.275862,,0.002944247268953108,320.39,0.5400000214576721,-2.422738850863639
320.741379,,0.004963435901671816,320.856,0.5419999957084656,-2.4185055542180653
321.20689699999997,,0.011879141133228866,321.32,0.5429999828338623,-2.41646967738481
321.672414,,0.013773509207282604,321.786,0.5130000114440918,-2.481987115129718
322.137931,,0.010938007780604341,322.251,0.5040000081062317,-2.5017650861619454
322.603448,,0.007711102015683901,322.716,0.5389999747276306,-2.4256900499827907
323.068966,,0.007993183129526408,323.176,0.5630000233650208,-2.373580764247576
323.53448299999997,,0.011614309601826725,323.642,0.49900001287460327,-2.5131880205087547
324.0,,0.015098519449924783,324.106,0.5370000004768372,-2.430564554795295
324.465517,,0.015430170879037333,324.571,0.5440000295639038,-2.4154654593833023
324.931034,,0.01267977207075385,325.039,0.550000011920929,-2.4025259285812846
325.396552,,0.008998128998511639,325.502,0.550000011920929,-2.402634838669573
325.86206899999996,,0.005565482040078084,325.965,0.5339999794960022,-2.437575800971208
326.327586,,0.001539986374545431,326.435,0.527999997138977,-2.4507020671717936
326.793103,,0.0033903030504844095,326.895,0.550000011920929,-2.4027965869186
327.258621,,0.006584201097058645,327.364,0.5389999747276306,-2.4267558211884297
327.724138,,0.004603140029885592,327.83,0.546999990940094,-2.4092897830744406
328.189655,,0.0020485032941991205,328.294,0.5360000133514404,-2.433188414275882
328.655172,,0.008182836044200732,328.76,0.5339999794960022,-2.437451893319928
329.12068999999997,,0.0089021652794651,329.224,0.5410000085830688,-2.4220828256170397
329.586207,,0.004476073005180751,329.69,0.5360000133514404,-2.43283632661101
330.051724,,0.0003358480832398303,330.155,0.5659999847412109,-2.3673194359238128
330.517241,,0.0012957527307884756,330.62,0.5440000295639038,-2.415078357103354
330.982759,,0.001336659258212274,331.08,0.5419999957084656,-2.4192559787864742
331.44827599999996,,0.003428145225458789,331.545,0.5130000114440918,-2.4822548373787665
331.913793,,0.001117879986520786,332.013,0.5249999761581421,-2.4559332301378354
332.37931,,0.005533728011983695,332.475,0.5669999718666077,-2.3642606060194726
332.844828,,0.012417244981533855,332.946,0.5299999713897705,-2.4447136038168953
333.310345,,0.014620638661821964,333.409,0.5419999957084656,-2.418430023313071
333.77586199999996,,0.010473448916139591,333.877,0.5419999957084656,-2.418311899255196
334.241379,,0.003079371520093939,334.339,0.531000018119812,-2.4421839170705755
334.706897,,0.0023541054290351473,334.804,0.5419999957084656,-2.418153732230575
335.17241399999995,,0.0032092802006608925,335.269,0.5379999876022339,-2.426833017318691
335.637931,,0.0016073136104638069,335.735,0.5540000200271606,-2.391969681288777
336.103448,,0.0018851174716662045,336.202,0.5339999794960022,-2.4355683476472145
336.56896600000005,,0.006033853389036579,336.66,0.5450000166893005,-2.4116587275761017
337.034483,,0.011766125627491223,337.125,0.5199999809265137,-2.46620950518489
337.5,,0.015190817854767816,337.591,0.5669999718666077,-2.3639237745761092
337.965517,,0.01503705609737038,338.065,0.5540000200271606,-2.392378930691493
338.431034,,0.013474522131594236,338.523,0.5419999957084656,-2.4186736745771347
338.89655200000004,,0.012777354195524995,338.991,0.531000018119812,-2.4428043337067273
339.36206899999996,,0.012319646356806793,339.453,0.546999990940094,-2.408121835496702
339.827586,,0.00963400211723736,339.921,0.5419999957084656,-2.4191958134979874
340.293103,,0.003780616361989881,340.383,0.5400000214576721,-2.4237334279974263
340.758621,,0.003385060694489068,340.849,0.5410000085830688,-2.421729751008963
341.224138,,0.009206338746860167,341.311,0.5339999794960022,-2.437144939556559
341.68965499999996,,0.01257166968258972,341.777,0.5400000214576721,-2.4242225124860055
342.155172,,0.014301572517267906,342.243,0.550000011920929,-2.402565922104439
342.62069,,0.01632197278254976,342.708,0.5299999713897705,-2.44624526200639
343.086207,,0.020614256506790045,343.176,0.5180000066757202,-2.472469260798476
343.551724,,0.027681364936689667,343.635,0.5450000166893005,-2.413697897088332
344.01724099999996,,0.03548997270591252,344.102,0.5339999794960022,-2.4376849724400875
344.48275900000004,,0.040884001044140174,344.567,0.5090000033378601,-2.4921422432614713
344.948276,,0.04262720474509146,345.035,0.5440000295639038,-2.4158503457863287
345.413793,,0.04244437243203825,345.498,0.5669999718666077,-2.3656718536139034
345.87931,,0.04248791427059213,345.961,0.531000018119812,-2.4440038405836217
346.344828,,0.04204811180008174,346.431,0.5339999794960022,-2.4373426642262555
346.81034500000004,,0.03766354882225654,346.891,0.527999997138977,-2.450267345855549
347.275862,,0.027249899816679603,347.361,0.5820000171661377,-2.332454503815357
347.741379,,0.013675497564787606,347.827,0.5199999809265137,-2.46735050248738
348.206897,,0.002839006439452724,348.285,0.5360000133514404,-2.4323033325937646
348.672414,,0.0022823903570678276,348.751,0.5419999957084656,-2.419040321821993
349.13793100000004,,0.00471267660727561,349.217,0.5519999861717224,-2.39706512840386
349.60344799999996,,0.0099311036027365,349.683,0.5479999780654907,-2.405598600781746
350.068966,,0.019716333731420965,350.15,0.5339999794960022,-2.4359317428548124
350.534483,,0.030263357963061177,350.615,0.527999997138977,-2.4488546200028383
351.0,,0.03659675110895204,351.08,0.5329999923706055,-2.4378362853643716
351.465517,,0.038110878752406215,351.546,0.5419999957084656,-2.4181308060921047
351.93103399999995,,0.03843922072227997,352.009,0.531000018119812,-2.4420285513762763
352.396552,,0.039731665498886286,352.472,0.5649999976158142,-2.367919222708252
352.862069,,0.03906654649452573,352.939,0.5429999828338623,-2.415846871330311
353.32758600000005,,0.03231484670387606,353.401,0.546999990940094,-2.4071626466708196
353.793103,,0.020579799415847814,353.869,0.5759999752044678,-2.344044384829904
354.258621,,0.010513286862111365,354.332,0.5299999713897705,-2.444355077786242
354.72413800000004,,0.007886007982249428,354.797,0.5419999957084656,-2.418332871329657
355.189655,,0.012310086455117778,355.261,0.5419999957084656,-2.4184804526801664
355.655172,,0.01874686591161111,355.726,0.5260000228881836,-2.4535082962616652
356.12069,,0.02302420440713424,356.191,0.550000011920929,-2.4014075572150446
356.586207,,0.025390172624180717,356.657,0.527999997138977,-2.449536459932645
357.05172400000004,,0.02964490939116056,357.121,0.5210000276565552,-2.4649920422271188
357.517241,,0.03931358350523887,357.587,0.5370000004768372,-2.4303396812619167
357.982759,,0.05388346688897884,358.05,0.5339999794960022,-2.437075951967071
358.448276,,0.06798590812483243,358.519,0.5419999957084656,-2.4198349209373533
358.913793,,0.07423425357410292,358.98,0.5379999876022339,-2.428719727485857
359.37931000000003,,0.06764954523717356,359.45,0.5419999957084656,-2.4201519447843043
359.844828,,0.04895310051975893,359.913,0.5149999856948853,-2.4790947657614897
360.310345,,0.024515946837366596,360.376,0.5509999990463257,-2.4007514695939154
360.775862,,0.001718036746202467,360.841,0.6010000109672546,-2.2918711652962576
361.241379,,0.01732934582660689,361.311,0.5440000295639038,-2.4160670190042097
361.706897,,0.03667159379317569,361.777,0.5289999842643738,-2.448721262918519
362.172414,,0.059803760960846816,362.236,0.5529999732971191,-2.396371328492536
362.63793100000004,,0.08318813301069312,362.701,0.5460000038146973,-2.411523786475627
363.103448,,0.09837877101937213,363.165,0.5410000085830688,-2.4222859796523863
363.568966,,0.10028666738068115,363.63,0.5379999876022339,-2.42866201671907
364.034483,,0.09157582193370038,364.102,0.5419999957084656,-2.419763291254875
364.5,,0.07860044516331378,364.56,0.5419999957084656,-2.4195603130276075
364.96551700000003,,0.0648298652363535,365.028,0.5260000228881836,-2.45420300072309
365.431034,,0.04973738893931471,365.49,0.5690000057220459,-2.360299004541173
365.896552,,0.03307357670069405,365.961,0.5260000228881836,-2.453758416223704
366.362069,,0.017776599053068703,366.424,0.5540000200271606,-2.392540398980866
366.827586,,0.007698511485276994,366.887,0.5260000228881836,-2.453340174964654
367.29310300000003,,0.003524721134244735,367.35,0.5400000214576721,-2.4226565817903096
367.758621,,0.0020451978399514846,367.815,0.4650000035762787,-2.585899704375283
368.224138,,0.0007164092196074924,368.28,0.527999997138977,-2.448522248049206
368.689655,,0.006146827850354799,368.746,0.5429999828338623,-2.4157555064704117
369.155172,,0.012278109551562388,369.21,0.546999990940094,-2.4069902115739046
369.62068999999997,,0.015566179430789376,369.675,0.5339999794960022,-2.4352997277019575
370.086207,,0.013970597392685814,370.142,0.574999988079071,-2.345999981717948
370.55172400000004,,0.009387077207888273,370.608,0.5389999747276306,-2.4244928678758293
371.017241,,0.006649339914837559,371.076,0.5249999761581421,-2.4550911963116424
371.482759,,0.008953232560962292,371.542,0.5519999861717224,-2.3963986116493343
371.948276,,0.014553235887944847,372.002,0.531000018119812,-2.442310773842483
372.413793,,0.018969892834746028,372.465,0.5350000262260437,-2.4337819663979947
372.87931000000003,,0.020027410538864112,372.935,0.5260000228881836,-2.45359584842322
373.344828,,0.01968339385433709,373.398,0.5419999957084656,-2.4189577062703314
373.810345,,0.021149379238511536,373.865,0.5339999794960022,-2.436614505708457
374.275862,,0.025217832290621106,374.328,0.5,-2.5109173804577787
374.741379,,0.029814650926759556,374.793,0.5379999876022339,-2.428352732100845
375.20689699999997,,0.03282350519985,375.257,0.550000011920929,-2.4024202637836534
375.672414,,0.03453588471943277,375.723,0.5630000233650208,-2.3742887273786484
376.137931,,0.03631363335977512,376.187,0.5180000066757202,-2.472492779312912
376.603448,,0.03678801733668344,376.653,0.5419999957084656,-2.4203398533859297
377.068966,,0.031343832445065174,377.118,0.5070000290870667,-2.49669341461897
377.53448299999997,,0.01761803754710424,377.583,0.5419999957084656,-2.420504977390118
378.0,,0.0005790843985164237,378.046,0.5260000228881836,-2.455388342940958
378.465517,,0.011034942870506641,378.516,0.5540000200271606,-2.3943704760907822
378.931034,,0.013560933364171265,378.98,0.5360000133514404,-2.433529583523676
379.396552,,0.011059578888966559,379.442,0.5519999861717224,-2.3985751008186615
379.862069,,0.009250000230070339,379.906,0.5400000214576721,-2.424585766024049
380.327586,,0.009759905719106867,380.376,0.5440000295639038,-2.4157051289836593
380.79310300000003,,0.010834089110247495,380.841,0.5419999957084656,-2.4198684912384523
381.258621,,0.01103039065315391,381.304,0.5239999890327454,-2.458868282684883
381.724138,,0.010623429644628514,381.769,0.5410000085830688,-2.4216002259536977
382.189655,,0.010416348228886397,382.235,0.5659999847412109,-2.3668941498444718
382.655172,,0.01059245770387012,382.701,0.5419999957084656,-2.4189393132636248
383.12068999999997,,0.010830291945463217,383.165,0.5289999842643738,-2.447024926381621
383.586207,,0.010900096108798328,383.63,0.5360000133514404,-2.431551058556144
384.051724,,0.010860192297174344,384.095,0.5379999876022339,-2.4269909492015787
384.517241,,0.010870361105360151,384.561,0.5419999957084656,-2.4180998391214974
384.982759,,0.011002375754556171,385.024,0.5440000295639038,-2.413597603556182
385.44827599999996,,0.01118404330172675,385.487,0.5220000147819519,-2.4614195026451124
385.913793,,0.011255657112425817,385.954,0.5260000228881836,-2.4526370915256783
386.37931,,0.011158521528699023,386.416,0.5460000038146973,-2.409039080916878
386.84482799999995,,0.011120578605642369,386.88,0.5419999957084656,-2.4177715237718607
387.310345,,0.01146165776880842,387.35,0.5339999794960022,-2.435261019108
387.775862,,0.012000148712543153,387.815,0.5379999876022339,-2.426647739362957
388.241379,,0.01193680684154256,388.279,0.531000018119812,-2.442037827286056
388.70689699999997,,0.01099507322870935,388.745,0.5379999876022339,-2.4269611842608394
389.172414,,0.010603236631410284,389.209,0.5230000019073486,-2.459843931800994
389.637931,,0.012500698402744988,389.675,0.5339999794960022,-2.436105218403645
390.103448,,0.015084530154038744,390.139,0.5419999957084656,-2.4189185874095367
390.56896600000005,,0.01284095321740116,390.605,0.5189999938011169,-2.469278898011794
391.03448299999997,,0.0024041129919177076,391.07,0.46299999952316284,-2.5915374767623343
391.5,,0.011262458433613587,391.535,0.5299999713897705,-2.44581855888818
391.965517,,0.01850145400173763,391.998,0.5360000133514404,-2.432983960124657
392.431034,,0.015677866389246814,392.461,0.5370000004768372,-2.4310205844708537
392.896552,,0.008881038725009654,392.931,0.5329999923706055,-2.439921369300192
393.36206899999996,,0.005696546201353139,393.394,0.5529999732971191,-2.3964993043987155
393.827586,,0.00669898930786966,393.86,0.5329999923706055,-2.4401826514094775
394.293103,,0.007319867508371981,394.325,0.5180000066757202,-2.472929322155411
394.75862099999995,,0.00545656802420952,394.791,0.5410000085830688,-2.4228421370761852
395.224138,,0.00377472733219622,395.251,0.5460000038146973,-2.4119238845849997
395.68965499999996,,0.004886431819768074,395.716,0.5299999713897705,-2.4467108202822243
396.155172,,0.007225972220527735,396.183,0.5410000085830688,-2.4226299181124387
396.62069,,0.007189842953251805,396.649,0.515999972820282,-2.4769401910056854
397.086207,,0.004122611956206903,397.113,0.5419999957084656,-2.420103828033494
397.551724,,0.0012908162239860558,397.579,0.5239999890327454,-2.459098361954505
398.017241,,0.0017533600633070098,398.047,0.5249999761581421,-2.4566757850500265
398.48275900000004,,0.004814256732536112,398.509,0.5450000166893005,-2.4128433990976954
398.94827599999996,,0.007356217098719546,398.972,0.5410000085830688,-2.4212906627940156
399.413793,,0.007391038477633704,399.435,0.5170000195503235,-2.4733113622740306
399.87931,,0.005213865932198495,399.902,0.5249999761581421,-2.4556250507743993
400.344828,,0.002327625121619136,400.372,0.5379999876022339,-2.42706297617525
400.810345,,0.0007426572612211386,400.83,0.5370000004768372,-2.4290264951149747
401.27586199999996,,0.0023401750206228037,401.301,0.5419999957084656,-2.417949158587228
401.741379,,0.007004758513303661,401.766,0.4690000116825104,-2.5768444811551543
402.206897,,0.011476356747520948,402.232,0.5339999794960022,-2.4351304803689153
402.672414,,0.01158637165730887,402.69,0.5450000166893005,-2.4111095519178964
403.137931,,0.00642284216183062,403.155,0.5249999761581421,-2.4546736539351985
403.60344799999996,,8.03942129640898e-05,403.621,0.5210000276565552,-2.4634269075611694
404.068966,,0.00248195258822468,404.088,0.5230000019073486,-2.459155566211932
404.534483,,0.0008436337903575849,404.553,0.5130000114440918,-2.48107268330037
405.0,,0.006274836778748902,405.017,0.5429999828338623,-2.415884444536267
405.465517,,0.009362314340741217,405.486,0.5239999890327454,-2.457484624340912
405.931034,,0.009673359491598537,405.947,0.5299999713897705,-2.4446469902902344
406.39655200000004,,0.009831463762011546,406.416,0.5389999747276306,-2.4252944473276448
406.862069,,0.010522846104166903,406.877,0.5170000195503235,-2.473493080831468
407.327586,,0.008984953070457853,407.346,0.5189999938011169,-2.4694097187839605
407.793103,,0.003366848743956517,407.805,0.531000018119812,-2.4435367797223124
408.258621,,0.0034239824622589866,408.277,0.5180000066757202,-2.4721184730966366
408.72413800000004,,0.006294214896108221,408.735,0.5170000195503235,-2.4745368072553195
409.18965499999996,,0.003747764487823616,409.202,0.5339999794960022,-2.437712475834368
409.655172,,0.0006204340133055307,409.667,0.5329999923706055,-2.440069298104245
410.12069,,0.0022370999399313057,410.132,0.5170000195503235,-2.4750657678648857
410.586207,,0.00012315571161708542,410.598,0.5210000276565552,-2.4664453570190887
411.05172400000004,,0.004000587562861813,411.069,0.5210000276565552,-2.4664927052889656
411.51724099999996,,0.006184262394607525,411.527,0.5289999842643738,-2.4490622489684513
411.982759,,0.005787487662887601,411.995,0.5260000228881836,-2.45554769206334
412.448276,,0.004801449146854213,412.457,0.5379999876022339,-2.429305650551159
412.913793,,0.005789347480556007,412.92,0.5379999876022339,-2.429161951843696
413.37931,,0.009222754280019544,413.391,0.5289999842643738,-2.4485850508495375
413.844828,,0.013129267474429381,413.856,0.5270000100135803,-2.452722553812664
414.31034500000004,,0.014913410216526889,414.32,0.5320000052452087,-2.4415815509736527
414.775862,,0.01326496721250186,414.786,0.5049999952316284,-2.5001373723344282
415.241379,,0.008795400690062183,415.25,0.515999972820282,-2.4758936437967995
415.706897,,0.00356891078924938,415.715,0.5230000019073486,-2.4603621398552344
416.172414,,0.00014953852654283833,416.18,0.5759999752044678,-2.344617927846662
416.63793100000004,,0.00022782334637837747,416.645,0.5099999904632568,-2.4881456759645704
417.103448,,0.0031270804124350097,417.11,0.5170000195503235,-2.472654434874948
417.568966,,0.005933290187650636,417.575,0.5199999809265137,-2.465908911464629
418.034483,,0.0062376108616181815,418.036,0.531000018119812,-2.441771205847114
418.5,,0.004649507453000402,418.505,0.515999972820282,-2.4743210451063
418.96551700000003,,0.003510915327510841,418.969,0.515999972820282,-2.4742380610979833
419.43103399999995,,0.003486330338604231,419.431,0.5109999775886536,-2.4850983993815943
419.896552,,0.0030908810104224795,419.899,0.5139999985694885,-2.4785808395983087
420.362069,,0.001705059575021544,420.361,0.5130000114440918,-2.480828708859976
420.827586,,0.001083231684280229,420.826,0.515999972820282,-2.474410699962344
421.293103,,0.0027142443147905797,421.293,0.515999972820282,-2.4745733884112395
421.758621,,0.005020795102048491,421.759,0.5299999713897705,-2.4442744020441816
422.22413800000004,,0.004904574145803383,422.224,0.5210000276565552,-2.46411692771545
422.689655,,0.001726259780931055,422.689,0.5379999876022339,-2.427339868713204
423.15517200000005,,0.001737343751707577,423.155,0.5180000066757202,-2.4711895387772373
423.62069,,0.002469612205330901,423.62,0.5339999794960022,-2.436616229559915
424.086207,,0.00035199159319543837,424.084,0.5170000195503235,-2.4739376560418878
424.55172400000004,,0.0020551837114976142,424.55,0.5090000033378601,-2.4916423949153956
425.017241,,0.0021682201193486935,425.013,0.5950000286102295,-2.3045354190616822
425.482759,,0.00033921800393678294,425.475,0.5329999923706055,-2.4398401253412834
425.948276,,0.0033979862844575677,425.943,0.5329999923706055,-2.4400335952800676
426.413793,,0.004476759496320713,426.405,0.5379999876022339,-2.429294056200599
426.87931000000003,,0.0030210887168879387,426.876,0.5149999856948853,-2.4795124867884546
427.344828,,0.0012123836452009385,427.339,0.5099999904632568,-2.4904685856654747
427.810345,,0.0018582880678912866,427.805,0.5249999761581421,-2.4578035923194066
428.275862,,0.005119079818027796,428.269,0.5090000033378601,-2.49262793033358
428.741379,,0.00792795567884915,428.735,0.5249999761581421,-2.457688023482435
429.20689699999997,,0.007268810134674346,429.202,0.5130000114440918,-2.4837050448005527
429.672414,,0.0032886257980653997,429.66,0.5170000195503235,-2.474822620287015
430.137931,,0.0014377394218720878,430.132,0.5249999761581421,-2.457189690597976
430.603448,,0.004464375748313697,430.59,0.5009999871253967,-2.509243737819674
431.068966,,0.004300686717090678,431.058,0.515999972820282,-2.476308468458461
431.534483,,0.00032129141593511564,431.52,0.5210000276565552,-2.46514509637566
432.0,,0.006209983134637985,431.988,0.5260000228881836,-2.4539750856295317
432.46551700000003,,0.01181616130057619,432.45,0.5540000200271606,-2.392697010024629
432.931034,,0.013316531301536908,432.92,0.5090000033378601,-2.4904693729717167
433.396552,,0.010523213804738843,433.383,0.49000000953674316,-2.5316155296558756
433.862069,,0.005588884026609942,433.849,0.5149999856948853,-2.476928604781779
434.327586,,0.0006416644078816141,434.311,0.5320000052452087,-2.439704033322096
434.79310300000003,,0.002703137853501679,434.777,0.5360000133514404,-2.4308397009253464
435.258621,,0.002900853392243346,435.242,0.5170000195503235,-2.472126526160108
435.724138,,6.243021498240632e-05,435.708,0.5320000052452087,-2.439385188645581
436.189655,,0.003181841974186053,436.172,0.5070000290870667,-2.493837766811944
436.655172,,0.0027012844419388262,436.638,0.531000018119812,-2.441585279747537
437.12068999999997,,0.0017839221771465987,437.102,0.5379999876022339,-2.4264169308121515
437.586207,,0.006911855634972635,437.568,0.5249999761581421,-2.454865638629505
438.051724,,0.009280615494065406,438.031,0.5329999923706055,-2.4376031701751812
438.517241,,0.008388176767092775,438.501,0.49399998784065247,-2.5227734293979744
438.982759,,0.006006711346355837,438.962,0.5329999923706055,-2.4380396434498923
439.448276,,0.00402332166501127,439.431,0.5009999871253967,-2.50801336723668
439.913793,,0.003348691165967729,439.891,0.5260000228881836,-2.4538195579132642
440.37931000000003,,0.0039485699650711175,440.361,0.5149999856948853,-2.478064383083718
440.844828,,0.004801496607822538,440.82,0.5049999952316284,-2.500129124274839
441.310345,,0.003910305487903835,441.29,0.531000018119812,-2.4437526746802503
441.775862,,0.00024356701916159723,441.756,0.5249999761581421,-2.457074405953022
442.241379,,0.006232192428049549,442.22,0.5329999923706055,-2.439868068942284
442.70689699999997,,0.009516779039665498,442.686,0.5170000195503235,-2.474915675665588
443.172414,,0.006457267120188978,443.15,0.515999972820282,-2.477244720368959
443.637931,,0.001174984466585288,443.616,0.527999997138977,-2.4512076495123827
444.103448,,0.006988863892494173,444.081,0.515999972820282,-2.4774112176400505
444.568966,,0.00621122105595964,444.546,0.5049999952316284,-2.501387532855028
445.03448299999997,,0.0004322306771123999,445.009,0.531000018119812,-2.444705064424697
445.5,,0.004724660381604111,445.472,0.5170000195503235,-2.475120419180595
445.965517,,0.005837167381659624,445.939,0.5249999761581421,-2.457559834275881
446.431034,,0.004309937131395009,446.401,0.5149999856948853,-2.479173177077179
446.896552,,0.00334034882537356,446.869,0.5260000228881836,-2.4549984452557925
447.36206899999996,,0.003970062133004516,447.331,0.5090000033378601,-2.4917960955104177
447.827586,,0.004684517020590314,447.797,0.515999972820282,-2.4762838567745913
448.29310300000003,,0.004004374888514554,448.262,0.5070000290870667,-2.495615683735949
448.758621,,0.0024198956332953893,448.727,0.5519999861717224,-2.397294302884591
449.224138,,0.0014993085935505726,449.194,0.5199999809265137,-2.466730165202513
449.689655,,0.0016795242390089911,449.66,0.5139999985694885,-2.4795315142505086
450.155172,,0.0015944466661555778,450.125,0.515999972820282,-2.474923292104869
450.62068999999997,,0.0004926037598229178,450.59,0.5239999890327454,-2.457270235343457
451.086207,,0.0048251686121770125,451.054,0.5109999775886536,-2.485402843902275
451.551724,,0.009317841584065373,451.517,0.5139999985694885,-2.4787171254440046
452.017241,,0.010483688382965475,451.98,0.515999972820282,-2.4742550329338173
452.482759,,0.006277482254963949,452.45,0.5070000290870667,-2.4938060853728086
452.94827599999996,,0.0011238900529676513,452.91,0.5230000019073486,-2.458941055969741
453.413793,,0.006227575733075779,453.379,0.5460000038146973,-2.4088747728754867
453.87931,,0.0053602617059080645,453.845,0.5199999809265137,-2.465609787504472
454.344828,,0.0008763870681888169,454.308,0.527999997138977,-2.4483157943507905
454.810345,,0.0011620274466274429,454.773,0.4959999918937683,-2.5182097168832214
455.27586199999996,,0.0019647744214243566,455.239,0.5339999794960022,-2.4356351165115697
455.741379,,0.006309262183522409,455.704,0.5109999775886536,-2.4859881340433145
456.206897,,0.00611424428687636,456.169,0.515999972820282,-2.4753616603488924
456.672414,,0.0007485653831926102,456.635,0.5170000195503235,-2.473464453032924
457.137931,,0.00485032091819636,457.098,0.515999972820282,-2.47593081639418
457.603448,,0.005870485877650708,457.564,0.5139999985694885,-2.4805729858179815
458.06896600000005,,0.0020748077155603975,458.032,0.5350000262260437,-2.4350944828341348
458.53448299999997,,0.0031063344513673325,458.494,0.5320000052452087,-2.441882834117649
459.0,,0.00645263642844723,458.962,0.5289999842643738,-2.44864236567374
459.465517,,0.0075789799863879214,459.425,0.5270000100135803,-2.453187666369891
459.931034,,0.008297912425591945,459.887,0.531000018119812,-2.4446199165409173
460.39655200000004,,0.009905204599675916,460.357,0.5329999923706055,-2.440363695505816
460.86206899999996,,0.01153141984082468,460.815,0.5210000276565552,-2.4665595769934088
461.327586,,0.01142012321838938,461.287,0.5220000147819519,-2.4643830813446845
461.793103,,0.009468526314774421,461.745,0.5339999794960022,-2.438191363090523
462.258621,,0.007733322220663213,462.216,0.5410000085830688,-2.4228435063093756
462.724138,,0.00802340434322254,462.675,0.5170000195503235,-2.4749875388864253
463.18965499999996,,0.009394643746969978,463.14,0.5239999890327454,-2.459552331001982
463.655172,,0.008703723531703166,463.606,0.515999972820282,-2.4767616566692565
464.12069,,0.0037875571724672783,464.072,0.5249999761581421,-2.4569054848619003
464.58620699999994,,0.004136562255037104,464.538,0.5379999876022339,-2.4283134614225155
465.051724,,0.011245382552849839,465.006,0.5260000228881836,-2.4541742077624225
465.517241,,0.014313201269691586,465.468,0.5109999775886536,-2.4865668301185844
465.98275900000004,,0.01354450767181763,465.931,0.5189999938011169,-2.4688555749622294
466.448276,,0.012515646493622447,466.401,0.5320000052452087,-2.440264631139129
466.913793,,0.015116498974594756,466.86,0.4970000088214874,-2.5162706224393623
467.37931,,0.021987675645566977,467.326,0.515999972820282,-2.474659611958447
467.844828,,0.029353278392038783,467.791,0.5170000195503235,-2.472300558956121
468.31034500000004,,0.03156083743231097,468.258,0.5370000004768372,-2.4285884100896395
468.77586199999996,,0.026080443982282854,468.724,0.5429999828338623,-2.4154217155980917
469.241379,,0.01663706071182953,469.191,0.515999972820282,-2.4741975216795713
469.706897,,0.010233737602359589,469.657,0.527999997138977,-2.4480551051366057
470.172414,,0.01009353676891825,470.12,0.5239999890327454,-2.4568203678401517
470.63793100000004,,0.012335771211377574,470.586,0.527999997138977,-2.4482038954556025
471.10344799999996,,0.010484510527551496,471.05,0.5389999747276306,-2.4243811446820462
471.568966,,0.0025150186507834193,471.512,0.5080000162124634,-2.4921014734396403
472.034483,,0.007596041458026723,471.98,0.5120000243186951,-2.483604435373811
472.5,,0.014727666051088436,472.442,0.5289999842643738,-2.446813828226484
472.965517,,0.01748373033336485,472.906,0.5180000066757202,-2.471046005367354
473.43103399999995,,0.017959249774280664,473.376,0.5360000133514404,-2.432109736044103
473.89655200000004,,0.018067646936392293,473.842,0.5170000195503235,-2.4737872047947778
474.362069,,0.017453687370638224,474.304,0.5249999761581421,-2.4566365696362658
474.827586,,0.01515661036625516,474.77,0.5080000162124634,-2.4939391994354554
475.293103,,0.012412445166559658,475.236,0.5210000276565552,-2.4658617798392424
475.758621,,0.01240598255394808,475.701,0.503000020980835,-2.505294579529396
476.22413800000004,,0.01644887074433763,476.161,0.5109999775886536,-2.4880482631725243
476.689655,,0.021303199190125417,476.627,0.5170000195503235,-2.475119036980716
477.155172,,0.021798644494289234,477.092,0.5109999775886536,-2.4882890641517
477.62069,,0.016035942360543613,477.557,0.515999972820282,-2.477446078700476
478.086207,,0.00694407528858457,478.02,0.5149999856948853,-2.4796254607056807
478.55172400000004,,0.0010240977388774296,478.49,0.5220000147819519,-2.4643257955237075
479.01724099999996,,0.005569274113731652,478.954,0.5170000195503235,-2.475121386116384
479.482759,,0.007318715536510057,479.416,0.5170000195503235,-2.4749780796581007
479.948276,,0.008546252925800576,479.884,0.5419999957084656,-2.4203268352645892
480.413793,,0.01143342407860501,480.346,0.515999972820282,-2.476750068591001
480.87931000000003,,0.016345656071901738,480.811,0.5329999923706055,-2.4394615820481214
481.344828,,0.021092492141635923,481.275,0.5139999985694885,-2.4805826705875424
481.810345,,0.02246508097160397,481.741,0.5099999904632568,-2.4890110668463694
482.275862,,0.01913967652377613,482.205,0.5049999952316284,-2.4996144835342458
482.74137900000005,,0.013026094811561976,482.671,0.5170000195503235,-2.4731861505323365
483.206897,,0.0076952818775597575,483.135,0.527999997138977,-2.4489500636168056
483.672414,,0.005614090321233141,483.6,0.5170000195503235,-2.472665550935145
484.13793100000004,,0.006508608350187672,484.065,0.5400000214576721,-2.422335865251985
484.603448,,0.007657970973453344,484.531,0.5630000233650208,-2.3720407922469935
485.068966,,0.0059535820120647535,485.002,0.5109999775886536,-2.4851846501203707
485.534483,,0.0006783169683630334,485.464,0.5130000114440918,-2.4807275584918593
486.0,,0.00555667336600952,485.925,0.5249999761581421,-2.4545343527059873
486.46551700000003,,0.009352344017090288,486.395,0.5210000276565552,-2.4632508863843556
486.931034,,0.009933492012478,486.861,0.5210000276565552,-2.463304540424191
487.396552,,0.00915606782893744,487.326,0.5049999952316284,-2.498267179583793
487.862069,,0.008299428585099022,487.791,0.5090000033378601,-2.4897047684352787
488.327586,,0.006381608718051349,488.25,0.5529999732971191,-2.3940392774437242
488.79310300000003,,0.0025066010577375333,488.716,0.5270000100135803,-2.4509147762093915
489.258621,,0.001276772269855545,489.183,0.5210000276565552,-2.464246304251179
489.724138,,0.001257635490600414,489.649,0.5130000114440918,-2.4819571626567893
490.189655,,0.0036009571315021704,490.113,0.5249999761581421,-2.456108641445038
490.655172,,0.009905593926248166,490.579,0.5049999952316284,-2.4999813751607887
491.12069,,0.013037497790271819,491.047,0.5120000243186951,-2.4850263190528437
491.586207,,0.011572699959334458,491.509,0.5299999713897705,-2.4460926821346294
492.05172400000004,,0.008369183529410773,491.973,0.5130000114440918,-2.4833886770718654
492.517241,,0.007642426267505754,492.435,0.5299999713897705,-2.446579751136812
492.982759,,0.010745260667859675,492.906,0.5389999747276306,-2.4271612321720366
493.448276,,0.014521231054700516,493.369,0.48899999260902405,-2.5362385706698296
493.913793,,0.014182757293173084,493.835,0.5059999823570251,-2.499298788141965
494.37931000000003,,0.008051916351007733,494.298,0.5090000033378601,-2.492809358744849
494.844828,,0.0006759360008401895,494.764,0.5149999856948853,-2.4797311414106633
495.310345,,0.006637941493187475,495.229,0.515999972820282,-2.477492827697352
495.775862,,0.006723249603991417,495.694,0.5460000038146973,-2.4120210775469992
496.241379,,0.0026759137491218533,496.162,0.515999972820282,-2.4772184965782382
496.70689699999997,,0.0001412717151784181,496.62,0.5070000290870667,-2.4966196590082457
497.172414,,0.0025725324602694005,497.092,0.5180000066757202,-2.4724104317971167
497.637931,,0.00958219501308377,497.55,0.5289999842643738,-2.448170527124508
498.103448,,0.014639240395442758,498.02,0.5249999761581421,-2.456587444573903
498.568966,,0.012448759049204639,498.483,0.5289999842643738,-2.4475612172462347
499.03448299999997,,0.004149683145621881,498.951,0.46399998664855957,-2.5888586191293474
499.5,,0.003788525999761632,499.414,0.5170000195503235,-2.473083254917066
499.96551700000003,,0.005904010815315512,499.876,0.5329999923706055,-2.4379343698867686
500.431034,,0.0021394161652529757,500.346,0.5289999842643738,-2.4463822445056786
500.89655200000004,,0.0036658280249103857,500.812,0.515999972820282,-2.4744702146821833
501.362069,,0.007929447972707651,501.276,0.5130000114440918,-2.480811848919549
501.827586,,0.009209575408360801,501.735,0.5210000276565552,-2.46323506463619
502.293103,,0.007413605056472489,502.202,0.5170000195503235,-2.4718534226230884
502.758621,,0.0032115110398728457,502.667,0.5130000114440918,-2.480526389120358
503.224138,,0.0014494715197678517,503.132,0.5099999904632568,-2.4870771892033363
503.68965499999996,,0.003827133231552787,503.597,0.5189999938011169,-2.467540442569436
504.15517200000005,,0.0026311950506802757,504.062,0.5180000066757202,-2.4698442801285942
504.62068999999997,,0.0006033641259120411,504.528,0.515999972820282,-2.474377284391657
505.08620699999994,,0.002996516734066466,504.991,0.5180000066757202,-2.470240840691425
505.55172400000004,,0.002750105745430055,505.461,0.5170000195503235,-2.4726790704452637
506.017241,,0.00012015525551715852,505.921,0.5099999904632568,-2.488220274779716
506.48275899999993,,0.004492425119728792,506.391,0.5130000114440918,-2.4819972687059897
506.948276,,0.008751815400326489,506.857,0.5410000085830688,-2.4213204070128973
507.413793,,0.011121256886746672,507.32,0.5049999952316284,-2.5000790285315118
507.87931,,0.010281174431626587,507.786,0.5299999713897705,-2.4459322587001466
508.344828,,0.006297463313958689,508.251,0.5170000195503235,-2.474556299034342
508.810345,,0.0011586805422695485,508.716,0.515999972820282,-2.477009719429986
509.27586199999996,,0.002163744627185717,509.176,0.5080000162124634,-2.494678305786581
509.74137900000005,,0.002156344455658489,509.641,0.5270000100135803,-2.453480710694871
510.20689699999997,,0.0004220606783848502,510.106,0.5370000004768372,-2.431841193996619
510.67241399999995,,0.00022989528232514585,510.572,0.5149999856948853,-2.479863628226147
511.13793100000004,,0.0031334642659958944,511.035,0.5070000290870667,-2.497327737446741
511.603448,,0.007399787113329881,511.505,0.5329999923706055,-2.4406597500922653
512.0689659999999,,0.009883930378928065,511.969,0.5249999761581421,-2.4580073900108608
512.534483,,0.00902749242107729,512.431,0.515999972820282,-2.4774775086147147
513.0,,0.005917143901878488,512.899,0.5149999856948853,-2.479466787600279
513.465517,,0.0029312946744877943,513.361,0.5210000276565552,-2.4661595723356533
513.931034,,0.0015665717760295773,513.826,0.515999972820282,-2.4767787718560426
514.396552,,0.0012253393958564474,514.293,0.5090000033378601,-2.4917246362817442
514.862069,,0.00016648483621491678,514.759,0.503000020980835,-2.504471145073025
515.327586,,0.0020865054778032954,515.224,0.5090000033378601,-2.491063348013322
515.793103,,0.00386766887300438,515.69,0.5239999890327454,-2.458046954744527
516.258621,,0.003439219176302969,516.155,0.515999972820282,-2.475148517630724
516.724138,,0.0011229611717100667,516.62,0.5059999823570251,-2.4966266026351787
517.189655,,0.0013975330995143816,517.08,0.4880000054836273,-2.535563491361736
517.655172,,0.0031624232640380763,517.545,0.515999972820282,-2.474321215764769
518.1206900000001,,0.004604900247529012,518.013,0.5299999713897705,-2.443624991219843
518.5862070000001,,0.006569751274311648,518.475,0.5270000100135803,-2.4500158248539234
519.051724,,0.008900081208187971,518.946,0.5180000066757202,-2.469533357882211
519.517241,,0.009732189028950088,519.409,0.515999972820282,-2.4738585125514643
519.982759,,0.006803825740505205,519.872,0.5249999761581421,-2.4542778277053636
520.448276,,0.00045340992801367474,520.335,0.5540000200271606,-2.391182024637721
520.9137929999999,,0.005228768950752765,520.801,0.5130000114440918,-2.480646927101255
521.37931,,0.005842583327105408,521.266,0.5130000114440918,-2.4808393554009878
521.844828,,0.0015360494318316766,521.731,0.5210000276565552,-2.463649770393127
522.310345,,0.0029127062730711015,522.198,0.5090000033378601,-2.4900733662782297
522.7758620000001,,0.0034115640329862164,522.664,0.5419999957084656,-2.4184892068902992
523.241379,,0.0007032980561870244,523.129,0.5109999775886536,-2.486360399523703
523.7068969999999,,0.0015206259834093033,523.594,0.5170000195503235,-2.4736336633273375
524.172414,,0.001273219511168066,524.057,0.531000018119812,-2.443479741520496
524.637931,,0.0002054641855707383,524.52,0.5360000133514404,-2.432924340389406
525.103448,,0.0006269405434067389,524.987,0.5379999876022339,-2.4288848514473327
525.568966,,0.0010386319638837366,525.45,0.515999972820282,-2.4771034056364334
526.034483,,0.004142668508752451,525.92,0.5419999957084656,-2.420708692596452
526.5,,0.007202485252362653,526.383,0.531000018119812,-2.444877941873688
526.9655170000001,,0.009011031263065766,526.849,0.49799999594688416,-2.5169257453472835
527.4310340000001,,0.009319637790448441,527.312,0.5230000019073486,-2.462556208368912
527.8965519999999,,0.00843730457860789,527.777,0.5199999809265137,-2.469129886853777
528.362069,,0.006173342222401077,528.243,0.5130000114440918,-2.4843574135024036
528.827586,,0.00200423281470973,528.709,0.531000018119812,-2.445058525016
529.293103,,0.0030501271074060716,529.176,0.5400000214576721,-2.425308768674389
529.7586210000001,,0.005789701700468174,529.635,0.5339999794960022,-2.438183590811779
530.224138,,0.0037219919734845317,530.107,0.5299999713897705,-2.4466516451438944
530.689655,,0.0016556956652132573,530.565,0.5379999876022339,-2.428933844639202
531.155172,,0.005832316403538471,531.035,0.515999972820282,-2.4765423561440714
531.62069,,0.005496390333394297,531.498,0.5210000276565552,-2.465304176281067
532.086207,,0.0010617836393631407,531.965,0.5299999713897705,-2.4453390601260745
532.5517239999999,,0.004221828177381454,532.428,0.5009999871253967,-2.508160775049056
533.017241,,0.006637819254168535,532.895,0.5329999923706055,-2.438094411205135
533.482759,,0.004351575956522946,533.357,0.5210000276565552,-2.4639082231099856
533.9482760000001,,0.0010234461428295072,533.822,0.5389999747276306,-2.4243919806287066
534.413793,,0.0050368054393812,534.286,0.5249999761581421,-2.4546306433304346
534.87931,,0.0037000726042014155,534.751,0.5519999861717224,-2.3955906970039402
535.344828,,0.002711940402750751,535.216,0.550000011920929,-2.399783624920169
535.810345,,0.009090743396154061,535.682,0.5289999842643738,-2.445428304561402
536.275862,,0.009701760312723955,536.147,0.531000018119812,-2.4410255875089053
536.7413789999999,,0.003651937753287643,536.613,0.5339999794960022,-2.4345080599687474
537.206897,,0.004070020957552356,537.077,0.546999990940094,-2.4062670528244605
537.672414,,0.007094231607977273,537.542,0.5419999957084656,-2.4173023528577184
538.137931,,0.003042283013975504,538.005,0.5529999732971191,-2.3935357786084626
538.6034480000001,,0.0048384383408398455,538.475,0.5460000038146973,-2.4090354500414306
539.0689659999999,,0.010372616067091889,538.936,0.5410000085830688,-2.4202215752498573
539.5344829999999,,0.00922779059308406,539.405,0.550000011920929,-2.4009419906475142
540.0,,0.002323329098052685,539.869,0.5809999704360962,-2.3337572010381846
540.465517,,0.005140805590392043,540.331,0.5450000166893005,-2.4125556935619494
540.931034,,0.008493656027093552,540.797,0.5540000200271606,-2.393318845416857
541.396552,,0.007473080114027481,541.262,0.5669999718666077,-2.365360441551347
541.862069,,0.005242773308769759,541.728,0.5910000205039978,-2.3134177286357867
542.327586,,0.00438755006969937,542.194,0.5720000267028809,-2.355127046541138
542.7931030000001,,0.004913238007368488,542.66,0.5860000252723694,-2.324901635687985
543.258621,,0.005642046658981063,543.125,0.574999988079071,-2.34909508275466
543.7241379999999,,0.005829042332986262,543.59,0.5889999866485596,-2.3187679036318354
544.189655,,0.004991192028853517,544.054,0.5960000157356262,-2.3036313027602073
544.655172,,0.0025747970347156737,544.517,0.5960000157356262,-2.303681550902581
545.12069,,0.0011656592575236063,544.98,0.5709999799728394,-2.3581332747435333
545.5862070000001,,0.004368543352017061,545.45,0.5709999799728394,-2.358055324958124
546.051724,,0.004490003886766156,545.91,0.578000009059906,-2.3426661437739473
546.517241,,0.0006380617723144564,546.379,0.5879999995231628,-2.3206842089035793
546.982759,,0.004848754382296494,546.844,0.6019999980926514,-2.289935861959092
547.448276,,0.007724759149406616,547.307,0.5950000286102295,-2.3048941090796675
547.9137929999999,,0.005446282435466459,547.772,0.6190000176429749,-2.2522776697318294
548.3793099999999,,0.0005287764296397472,548.239,0.5929999947547913,-2.3085666824437356
548.844828,,0.006236988157230035,548.704,0.6050000190734863,-2.282050925163673
549.310345,,0.008659915774405565,549.169,0.593999981880188,-2.3056397270302846
549.775862,,0.007379123035928165,549.635,0.6029999852180481,-2.285662364162283
550.241379,,0.0035289710507823723,550.095,0.6119999885559082,-2.2657028131498604
550.706897,,0.0013671990767919041,550.56,0.6060000061988831,-2.2784510756938787
551.172414,,0.0050447595312954905,551.028,0.5669999718666077,-2.3631336349549636
551.637931,,0.0048788114244026825,551.491,0.6359999775886536,-2.2125697321134963
552.103448,,0.0007596866553568718,551.961,0.6079999804496765,-2.273388487454117
552.568966,,0.003305761330628489,552.424,0.5730000138282776,-2.349517475219395
553.034483,,0.0030579962505354625,552.887,0.5669999718666077,-2.3625313718400354
553.5,,0.0006246922015074706,553.357,0.6110000014305115,-2.266680129709722
553.965517,,0.002570697808636265,553.815,0.6069999933242798,-2.27546991693711
554.4310340000001,,0.0002125264208538509,554.28,0.597000002861023,-2.2973946231453173
554.896552,,0.005138955454852858,554.745,0.6079999804496765,-2.2736269320983475
555.3620689999999,,0.0078028848127836715,555.21,0.6050000190734863,-2.280413268261813
555.827586,,0.007126343594894882,555.676,0.6079999804496765,-2.274173267300171
556.293103,,0.00521717697140597,556.142,0.6079999804496765,-2.274505564307141
556.758621,,0.003328058372884667,556.608,0.6039999723434448,-2.2835789320569306
557.224138,,0.00027177944533927857,557.076,0.6029999852180481,-2.2861321352688635
557.689655,,0.004786821314094679,557.535,0.6060000061988831,-2.27997532955929
558.155172,,0.009652230365257712,558.005,0.6029999852180481,-2.286883651552496
558.6206900000001,,0.01047958636485063,558.468,0.6330000162124634,-2.221877843194108
559.0862070000001,,0.005776617477912963,558.931,0.6119999885559082,-2.2679533473844726
559.5517239999999,,0.001334665251324915,559.401,0.6029999852180481,-2.2878457389191946
560.017241,,0.005306787503124386,559.861,0.5960000157356262,-2.3033338100550824
560.482759,,0.0033519999716439285,560.326,0.5960000157356262,-2.303517746873076
560.948276,,0.001479133618627263,560.792,0.6179999709129333,-2.2557120134238255
561.413793,,0.003300214802756699,561.257,0.5849999785423279,-2.327668407211966
561.87931,,0.00018772104119917738,561.723,0.5839999914169312,-2.329843508698871
562.344828,,0.0052673212627268595,562.187,0.6140000224113464,-2.264416060098185
562.8103450000001,,0.006836850113058111,562.653,0.6069999933242798,-2.2795353396911704
563.275862,,0.004314239120334388,563.12,0.5950000286102295,-2.305488061762172
563.7413789999999,,0.0015285417418202225,563.586,0.6019999980926514,-2.2899930106688866
564.206897,,0.001511419497911668,564.046,0.6060000061988831,-2.2809873715208226
564.672414,,0.003408163799643548,564.516,0.625,-2.239263580006409
565.137931,,0.004568933819350565,564.976,0.5960000157356262,-2.302086039473466
565.603448,,0.0037505461025419363,565.446,0.6079999804496765,-2.2755663575970475
566.068966,,0.001694709863636627,565.906,0.5379999876022339,-2.427690866013326
566.534483,,9.353426714187217e-05,566.376,0.5820000171661377,-2.331457334234776
567.0,,0.0006191988893339793,566.835,0.6019999980926514,-2.28752990621356
567.465517,,0.00015024535795454661,567.305,0.6060000061988831,-2.278488091072809
567.931034,,0.0002775898234215638,567.771,0.574999988079071,-2.3457361011537636
568.396552,,0.0003776865631610224,568.235,0.5910000205039978,-2.3106339245469147
568.862069,,0.000980492376692038,568.701,0.5740000009536743,-2.3474812341053926
569.327586,,0.0024731275581710574,569.161,0.5820000171661377,-2.3299219527310497
569.793103,,0.0037069661525179496,569.627,0.5529999732971191,-2.3930368805809783
570.2586210000001,,0.0031718878608490053,570.091,0.5649999976158142,-2.366893637710193
570.724138,,0.0008654684826477641,570.557,0.46399998664855957,-2.5870061983650534
571.189655,,0.001595625403483115,571.024,0.5410000085830688,-2.4193872321564585
571.655172,,0.0027962825885971894,571.487,0.5740000009536743,-2.3476908424965925
572.12069,,0.0032496415523852306,571.954,0.5649999976158142,-2.3675506481034825
572.586207,,0.005004009500716056,572.416,0.5759999752044678,-2.3438818659764826
573.051724,,0.009287936769781827,572.88,0.546999990940094,-2.407394231203464
573.517241,,0.014764501088798327,573.35,0.5419999957084656,-2.418644858748349
573.982759,,0.018593246165002027,573.815,0.550000011920929,-2.4015882584466466
574.4482760000001,,0.019134553988232904,574.28,0.5329999923706055,-2.4390017171204317
574.913793,,0.017107020135412328,574.745,0.5400000214576721,-2.424119909207882
575.37931,,0.014325899219650294,575.209,0.531000018119812,-2.4440777774088946
575.844828,,0.012160400065023221,575.675,0.5419999957084656,-2.4204330890279566
576.310345,,0.011106782746164577,576.139,0.5339999794960022,-2.4381431158224562
576.775862,,0.010733969609750644,576.605,0.5400000214576721,-2.4253036429498627
577.241379,,0.009645792976958743,577.07,0.5419999957084656,-2.4211233708858053
577.706897,,0.00612483328003715,577.535,0.5429999828338623,-2.4190605593910277
578.172414,,0.0007563793032627911,577.998,0.5460000038146973,-2.4125755868632215
578.6379310000001,,0.010378775068286224,578.461,0.5149999856948853,-2.4800989622214704
579.1034480000001,,0.02028228611159728,578.931,0.5170000195503235,-2.4756626230837244
579.5689659999999,,0.026804662997777895,579.394,0.5360000133514404,-2.4341278351629407
580.034483,,0.02755972438277349,579.86,0.5320000052452087,-2.442644208044998
580.5,,0.024035447209547436,580.326,0.4970000088214874,-2.5186475176722793
580.965517,,0.02049364066385777,580.792,0.5379999876022339,-2.429030705571821
581.431034,,0.019423827751059226,581.25,0.5189999938011169,-2.4700984224682148
581.896552,,0.019253496173021814,581.716,0.5070000290870667,-2.49589135439854
582.362069,,0.017426998359144505,582.182,0.5839999914169312,-2.327770586439338
582.827586,,0.014208441484001993,582.647,0.492000013589859,-2.527837558574296
583.2931030000001,,0.011724788322039747,583.114,0.5149999856948853,-2.4773689913028196
583.758621,,0.01026282975605035,583.579,0.531000018119812,-2.442171407384862
584.2241379999999,,0.007733727555017825,584.043,0.5170000195503235,-2.472363499221882
584.689655,,0.002880216179782878,584.505,0.5199999809265137,-2.465558326687985
585.155172,,0.0026309312194327983,584.972,0.5180000066757202,-2.469694284563414
585.6206900000001,,0.005841087058628171,585.435,0.5070000290870667,-2.4934930018735844
586.0862070000001,,0.005466703398082278,585.906,0.515999972820282,-2.4737790496397687
586.551724,,0.0029930620410334747,586.368,0.5379999876022339,-2.425805190707852
587.017241,,0.001156604132738384,586.834,0.44699999690055847,-2.624083262980611
587.482759,,0.0013554740106747874,587.297,0.5360000133514404,-2.4302694950624115
587.948276,,0.0024323849114220907,587.763,0.515999972820282,-2.47398951729022
588.4137929999999,,0.0021193282090738903,588.228,0.515999972820282,-2.4741916858966944
588.87931,,0.00029792099557473964,588.693,0.5149999856948853,-2.4766216542323356
589.344828,,0.002925961920921498,589.157,0.5210000276565552,-2.463842200177923
589.810345,,0.002961117068171535,589.623,0.5220000147819519,-2.4619879230399855
590.2758620000001,,0.0005375617519254261,590.087,0.5130000114440918,-2.4819418639474464
590.741379,,0.005551729489401535,590.553,0.5049999952316284,-2.4997286918823107
591.2068969999999,,0.008897357073783967,591.021,0.5379999876022339,-2.42819121844297
591.672414,,0.009229852992974673,591.484,0.5210000276565552,-2.4655746815428556
592.137931,,0.00808827896237185,591.946,0.5329999923706055,-2.439755275205842
592.603448,,0.007878670210834564,592.416,0.5329999923706055,-2.440047416705022
593.068966,,0.009366332403128461,592.877,0.5049999952316284,-2.5013010875961768
593.534483,,0.011631601077015568,593.346,0.5049999952316284,-2.5015055114581313
594.0,,0.013899736719628155,593.812,0.5379999876022339,-2.429761340976975
594.4655170000001,,0.01642993100684152,594.277,0.5249999761581421,-2.4581764908666894
594.9310340000001,,0.019606380856409065,594.735,0.5339999794960022,-2.438599921879004
595.3965519999999,,0.022819027733685708,595.201,0.5329999923706055,-2.44074770813933
595.862069,,0.02441260700055426,595.667,0.5180000066757202,-2.4733359032938695
596.327586,,0.022679382565444228,596.131,0.5130000114440918,-2.484080779506743
596.793103,,0.0173824879388696,596.597,0.5049999952316284,-2.501310295980578
597.2586210000001,,0.010719394774443112,597.069,0.503000020980835,-2.5054233029780826
597.724138,,0.006179409512571013,597.527,0.5299999713897705,-2.446318537538024
598.189655,,0.005370153730178792,597.995,0.5009999871253967,-2.5091892102136852
598.655172,,0.005850268617865046,598.457,0.4390000104904175,-2.643937829420473
599.12069,,0.003202196206229388,598.925,0.5049999952316284,-2.4998135907620256
599.586207,,0.003933820245923612,599.387,0.5210000276565552,-2.464624281744839
600.0517239999999,,0.01169510088678465,599.852,0.5210000276565552,-2.4643040027729923
600.517241,,0.015120124999086224,600.315,0.5339999794960022,-2.435680879850284
600.982759,,0.013948867977033388,600.78,0.503000020980835,-2.5029465606328722
601.448276,,0.012737511646130028,601.246,0.5009999871253967,-2.507068931831784
601.913793,,0.01533040111245774,601.711,0.515999972820282,-2.474198753189144
602.37931,,0.02085441080047762,602.176,0.5139999985694885,-2.4784149852815087
602.844828,,0.02532109256462508,602.642,0.5210000276565552,-2.4630763982512622
603.310345,,0.025643613790753063,603.106,0.503000020980835,-2.502259572943604
603.775862,,0.021676775078466208,603.571,0.5299999713897705,-2.4434597635285487
604.2413789999999,,0.015592769773991893,604.035,0.5049999952316284,-2.498004462240685
604.706897,,0.010117593294583165,604.505,0.5019999742507935,-2.5046717226493187
605.172414,,0.00688154825993064,604.965,0.527999997138977,-2.448206693540663
605.637931,,0.0054734095548749275,605.435,0.5199999809265137,-2.4658580541491353
606.1034480000001,,0.0037332486603771113,605.898,0.527999997138977,-2.448686002838301
606.5689659999999,,0.00022333179572789515,606.361,0.4880000054836273,-2.536116949046023
607.0344829999999,,0.005575581306203307,606.826,0.5199999809265137,-2.4667051819403603
607.5,,0.00926488955096967,607.293,0.5080000162124634,-2.493164421800238
607.965517,,0.009732713154863853,607.758,0.515999972820282,-2.4760516812351363
608.431034,,0.008885573098540126,608.224,0.5,-2.5112180115146927
608.896552,,0.008905481313053205,608.689,0.5009999871253967,-2.509330341723384
609.362069,,0.008442113223942867,609.154,0.503000020980835,-2.5052385072384773
609.827586,,0.004334649225687923,609.62,0.492000013589859,-2.5294360877380133
610.293103,,0.002960599360147683,610.08,0.5139999985694885,-2.4816982908036693
610.758621,,0.007818836019594523,610.546,0.5230000019073486,-2.4622365225631273
611.2241379999999,,0.00471894326537669,611.013,0.5210000276565552,-2.46668855735581
611.689655,,0.005331970491313139,611.476,0.5009999871253967,-2.510302776142138
612.155172,,0.014757833296307902,611.943,0.5109999775886536,-2.4885033922602946
612.62069,,0.016379869472245425,612.405,0.49900001287460327,-2.5145809668684453
613.0862070000001,,0.010171413666886496,612.876,0.5080000162124634,-2.494856026718602
613.551724,,0.0026790175030592485,613.339,0.4950000047683716,-2.523014264488639
614.017241,,0.00013044698937520437,613.805,0.515999972820282,-2.4770563183949834
614.4827590000001,,0.0029884990474977054,614.265,0.515999972820282,-2.4768135234666886
614.948276,,0.007021104081418152,614.73,0.5049999952316284,-2.500506569999025
615.4137929999999,,0.008056928546872608,615.202,0.49399998784065247,-2.5241792494272537
615.8793099999999,,0.00506457237985469,615.66,0.5040000081062317,-2.5020890064395487
616.344828,,0.00019133999726868368,616.125,0.515999972820282,-2.4756390232792707
616.810345,,0.002962579381330362,616.59,0.4169999957084656,-2.691026720979286
617.275862,,0.0021823767992800213,617.057,0.5170000195503235,-2.4728813495971043
617.741379,,0.0009662733668684444,617.52,0.515999972820282,-2.474804094202397
618.206897,,0.0022200680858827848,617.987,0.5170000195503235,-2.47239921930135
618.672414,,0.0008182907145113831,618.45,0.5120000243186951,-2.4831027482411407
619.137931,,0.005590769590001088,618.921,0.49900001287460327,-2.511277726494425
619.603448,,0.007094779049569057,619.383,0.5070000290870667,-2.4937478081581657
620.068966,,0.003442894356981719,619.848,0.5040000081062317,-2.5002326728331097
620.534483,,0.0020271866460104234,620.311,0.4959999918937683,-2.517661747535412
621.0,,0.004491650779283459,620.777,0.503000020980835,-2.5024619856491674
621.465517,,0.0026377096008007024,621.243,0.5149999856948853,-2.4764180849219075
621.9310340000001,,0.0007951271043061588,621.709,0.5080000162124634,-2.4918137741703577
622.396552,,0.002918047959407834,622.173,0.49000000953674316,-2.5312160359726144
622.862069,,0.003941370498653681,622.639,0.49000000953674316,-2.5314391403584997
623.327586,,0.006058586269605327,623.105,0.492000013589859,-2.527335102737801
623.793103,,0.009724204309530478,623.571,0.503000020980835,-2.5036455368427286
624.258621,,0.012119160446353002,624.032,0.5009999871253967,-2.508292204810868
624.724138,,0.009968498082192615,624.501,0.4909999966621399,-2.530373148444511
625.189655,,0.0035874228395545646,624.961,0.4950000047683716,-2.5219498093794583
625.655172,,0.0026595562754117862,625.431,0.4880000054836273,-2.5374800024013155
626.1206900000001,,0.0041961082835174825,625.891,0.49399998784065247,-2.5246680015046836
626.5862070000001,,0.0003762606950690464,626.361,0.47999998927116394,-2.5554016667917763
627.0517239999999,,0.004947525066358747,626.827,0.45899999141693115,-2.6013525548887544
627.5172409999999,,0.00666552308889895,627.286,0.49900001287460327,-2.5143668882037793
627.982759,,0.002641344217058719,627.752,0.45100000500679016,-2.6190585296565447
628.448276,,0.004518512656234696,628.217,0.4819999933242798,-2.5515899599514213
628.913793,,0.00963159595902584,628.682,0.48399999737739563,-2.5472527928724618
629.37931,,0.009263097857529254,629.147,0.4869999885559082,-2.5406861718589595
629.844828,,0.004599292812602692,629.613,0.49399998784065247,-2.5253545896306555
630.3103450000001,,0.0002722043670284419,630.08,0.48899999260902405,-2.536118480036483
630.7758620000001,,0.00010592207894449839,630.545,0.5019999742507935,-2.5076219553646695
631.2413789999999,,0.002547410023017772,631.006,0.49300000071525574,-2.527015681820835
631.706897,,0.003978155794257214,631.475,0.47699999809265137,-2.561626763564242
632.172414,,0.001167524626291332,631.939,0.4779999852180481,-2.5591756272437767
632.637931,,0.0045981412592029655,632.401,0.4830000102519989,-2.5479928321149017
633.103448,,0.008990223007160614,632.872,0.5019999742507935,-2.5063001032060237
633.568966,,0.008734187058692212,633.335,0.4959999918937683,-2.519072668899593
634.034483,,0.0045806204386917675,633.801,0.4880000054836273,-2.5362106561374977
634.5,,0.00014051806757135293,634.261,0.4869999885559082,-2.538115424474942
634.9655170000001,,0.0020549504440866874,634.726,0.4880000054836273,-2.535688478350841
635.431034,,0.0024402618421555887,635.191,0.4519999921321869,-2.613905418162095
635.8965519999999,,0.002242279164793015,635.656,0.4860000014305115,-2.539657829518375
636.362069,,0.0010472648200434242,636.12,0.48399999737739563,-2.5438872841541844
636.827586,,0.0019728769590747694,636.586,0.4819999933242798,-2.5481657223469023
637.293103,,0.005165534515226814,637.054,0.4790000021457672,-2.5546743428916687
637.7586210000001,,0.004895802241182328,637.517,0.47200000286102295,-2.569950290766476
638.224138,,0.00020699389532543536,637.98,0.4790000021457672,-2.554777340655267
638.689655,,0.0068077179378608545,638.45,0.47600001096725464,-2.561440690268074
639.155172,,0.009883069641852699,638.913,0.47999998927116394,-2.5528995081784793
639.62069,,0.007611843829919666,639.376,0.47699999809265137,-2.5596495401988686
640.086207,,0.0025368960605904713,639.841,0.4779999852180481,-2.5577193753967187
640.551724,,0.001375263314058572,640.312,0.4830000102519989,-2.54710136907195
641.017241,,0.0019928338842757146,640.77,0.49000000953674316,-2.532144370985897
641.482759,,4.4273737520778635e-05,641.236,0.46799999475479126,-2.5803777420657976
641.9482760000001,,0.0018569392567639289,641.701,0.4880000054836273,-2.5371085368323927
642.413793,,0.0010379368063069795,642.169,0.47200000286102295,-2.5722623306171397
642.87931,,0.003391322471348704,642.635,0.47999998927116394,-2.5551113688463576
643.344828,,0.009484356318623275,643.099,0.4740000069141388,-2.5684359769316916
643.810345,,0.01329740675753358,643.565,0.4880000054836273,-2.538154386911063
644.275862,,0.011808774043357836,644.027,0.46399998664855957,-2.590621660242734
644.7413789999999,,0.0057308786893776695,644.49,0.4729999899864197,-2.5711486395922853
645.206897,,0.0006895737175585349,644.958,0.47600001096725464,-2.5646985923625096
645.672414,,0.003045540358525937,645.42,0.46700000762939453,-2.584340719766627
646.1379310000001,,0.0004372385988660948,645.891,0.4950000047683716,-2.5233197738440882
646.6034480000001,,0.003684210769604154,646.354,0.47699999809265137,-2.562463558379283
647.0689659999999,,0.0044971386889060385,646.819,0.4880000054836273,-2.5383753446949595
647.534483,,0.0003356308371171667,647.283,0.4819999933242798,-2.5512767228048197
648.0,,0.005710118410557102,647.748,0.47099998593330383,-2.5750291345817136
648.465517,,0.009083845472287192,648.213,0.4860000014305115,-2.5421010023410506
648.931034,,0.008244467469377745,648.679,0.47699999809265137,-2.561432118279035
649.396552,,0.005188817421727533,649.143,0.47600001096725464,-2.5633140007139725
649.862069,,0.0020751044338579404,649.609,0.5009999871253967,-2.5085397304524784
650.327586,,0.0010523307834009934,650.076,0.47999998927116394,-2.5539806725815577
650.7931030000001,,0.004543650019808133,650.542,0.5019999742507935,-2.5057464432041705
651.258621,,0.006736360635866618,651.002,0.48399999737739563,-2.5446739534747715
651.7241379999999,,0.005250245318472206,651.465,0.49799999594688416,-2.5139093991136194
652.189655,,0.00040989451516683877,651.935,0.49000000953674316,-2.5311078169701244
652.655172,,0.0043976376117194306,652.398,0.492000013589859,-2.5265596372541697
653.12069,,0.006070586590602588,652.869,0.49000000953674316,-2.5307720396688738
653.5862070000001,,0.004404931347227386,653.331,0.4830000102519989,-2.545928430110622
654.051724,,0.0014677195235383424,653.79,0.45100000500679016,-2.6156058066607524
654.517241,,0.00047873671147193156,654.257,0.4880000054836273,-2.5350131665802342
654.982759,,0.0004484631413409717,654.723,0.4779999852180481,-2.556872933059271
655.448276,,0.0008002870504625613,655.188,0.515999972820282,-2.4742102664257386
655.9137929999999,,0.001423487644475926,655.653,0.48399999737739563,-2.5441014012592533
656.37931,,0.00013173418169902686,656.12,0.49799999594688416,-2.5138182507247966
656.844828,,0.0024211198135997035,656.586,0.5059999823570251,-2.4966440135502035
657.310345,,0.003908831823880557,657.05,0.4819999933242798,-2.54921579573288
657.7758620000001,,0.002308204640253315,657.512,0.47699999809265137,-2.5604149161888197
658.241379,,0.002004792043320171,657.98,0.47999998927116394,-2.5541979418704046
658.7068969999999,,0.006024275393608357,658.443,0.4819999933242798,-2.550162979729184
659.172414,,0.006334280299018051,658.906,0.46700000762939453,-2.5831587891730496
659.637931,,0.0021580221488679834,659.376,0.47699999809265137,-2.5616728555702997
660.103448,,0.0035435341533781263,659.841,0.4959999918937683,-2.5205538044194595
660.568966,,0.006407658403822625,660.304,0.46799999475479126,-2.581797065041984
661.034483,,0.00449917196943423,660.769,0.47999998927116394,-2.5558531157604594
661.5,,0.000369007316245521,661.236,0.4650000035762787,-2.5886854140901825
661.965517,,0.005027671597298017,661.701,0.47699999809265137,-2.5626421513021542
662.4310340000001,,0.007687274336136229,662.166,0.48899999260902405,-2.536543013519428
662.8965519999999,,0.00800106639847786,662.632,0.49900001287460327,-2.514742654681075
663.362069,,0.0059324917105274405,663.091,0.47200000286102295,-2.57349389064283
663.827586,,0.0020723593933616637,663.557,0.4869999885559082,-2.5406857887903462
664.293103,,0.00150183232602861,664.02,0.4790000021457672,-2.5579341752929405
664.7586210000001,,0.0023217590901147564,664.49,0.4740000069141388,-2.5685995881810917
665.224138,,0.00010826821495012881,664.954,0.48899999260902405,-2.535651761562492
665.689655,,0.003714970718928675,665.417,0.5239999890327454,-2.459097472000073
666.155172,,0.005684141457038509,665.88,0.4429999887943268,-2.6352420173558917
666.62069,,0.004509040975733411,666.349,0.4790000021457672,-2.5564716922644424
667.086207,,0.0008304663114813586,666.815,0.47600001096725464,-2.5626663627644644
667.5517239999999,,0.002732191064267568,667.279,0.4860000014305115,-2.540545975980236
668.017241,,0.002957957964127755,667.745,0.46700000762939453,-2.5816240149100214
668.482759,,0.0013181102734156856,668.21,0.49000000953674316,-2.531226284856217
668.948276,,0.007385948753637268,668.676,0.4749999940395355,-2.563653499480109
669.413793,,0.010336091912871898,669.135,0.47600001096725464,-2.56126651399189
669.87931,,0.0074447359838953255,669.601,0.5109999775886536,-2.484856009642759
670.3448279999999,,0.00093596632977675,670.065,0.5080000162124634,-2.4912882981260123
670.810345,,0.004078134529625843,670.531,0.4819999933242798,-2.5478873934324864
671.275862,,0.004594649480104412,670.998,0.47200000286102295,-2.5696888020275654
671.7413789999999,,0.002349893373495576,671.461,0.4819999933242798,-2.5479786891060767
672.206897,,0.0013560853663212552,671.931,0.4779999852180481,-2.5568290562259546
672.672414,,0.0034829128792849295,672.394,0.4180000126361847,-2.6877404199187045
673.137931,,0.007040356838424961,672.86,0.4860000014305115,-2.539836961468966
673.6034480000001,,0.009081083865820514,673.326,0.4860000014305115,-2.5401251314240354
674.068966,,0.008031249351730775,673.791,0.4729999899864197,-2.568769563755262
674.5344829999999,,0.004196208019226876,674.251,0.48100000619888306,-2.551686669520564
675.0,,0.0010705469310982004,674.716,0.49000000953674316,-2.5324387248205675
675.465517,,0.006027748935616328,675.184,0.4880000054836273,-2.5371580160427385
675.931034,,0.009146050961763881,675.649,0.47999998927116394,-2.5549402123991047
676.396552,,0.010011630389594087,676.117,0.492000013589859,-2.529129513745468
676.862069,,0.009448109288770467,676.575,0.5,-2.512002872537238
677.327586,,0.00833196745386804,677.043,0.4860000014305115,-2.542766159108647
677.793103,,0.006966650736447967,677.505,0.4729999899864197,-2.571302900579761
678.2586210000001,,0.006067545247189295,677.976,0.47200000286102295,-2.57364186483746
