Trial: ,41
Threshold: ,0.0
Maximum EMG: ,0.0
Success: ,True

EMG Time,Raw EMG,Filtered EMG,Force Time,Raw Force (V),Filtered Force (N)
0.0,samples,0.0,0.467,0.503000020980835,-2.5043401869495856
0.46551699999999996,time,0.0,0.933,0.4909999966621399,-2.5304166431674537
0.9310339999999999,value,0.0,1.398,0.4749999940395355,-2.5652050198587393
1.396552,,0.0,1.864,0.4909999966621399,-2.530276537075475
1.862069,,0.0,2.327,0.5040000081062317,-2.501885349128761
2.327586,,0.0,2.797,0.49000000953674316,-2.532320458591757
2.793103,,0.0,3.26,0.4959999918937683,-2.5191873431597274
3.258621,,0.0,3.723,0.49799999594688416,-2.514775143754183
3.724138,,0.0,4.186,0.4729999899864197,-2.569194589904639
4.189654999999999,,0.0,4.656,0.49000000953674316,-2.5321205790874965
4.655172,,0.0,5.122,0.49300000071525574,-2.5255582379993275
5.12069,,0.0,5.585,0.4779999852180481,-2.558222519057032
5.586207,,0.0,6.051,0.47999998927116394,-2.5538613360823454
6.051723999999999,,0.0,6.515,0.4880000054836273,-2.5364397792882514
6.517241,,0.0,6.981,0.4959999918937683,-2.519028883558621
6.982759,,0.0,7.446,0.5040000081062317,-2.5016271625963515
7.448276,,0.0,7.911,0.47200000286102295,-2.5713798602356017
7.913793000000001,,0.0,8.371,0.49000000953674316,-2.5322079931797323
8.379309999999998,,0.0,8.837,0.4959999918937683,-2.5191863135219514
8.844828000000001,,0.0,9.305,0.4959999918937683,-2.519240732052166
9.310345,,0.0,9.767,0.49000000953674316,-2.5323696374546243
9.775862,,0.0,10.23,0.48500001430511475,-2.543321236534493
10.241379,,0.0,10.7,0.45899999141693115,-2.6000250020409355
10.706897,,0.0,11.161,0.492000013589859,-2.5281876612769634
11.172414,,0.0,11.63,0.4749999940395355,-2.5652801383643076
11.637931,,0.0,12.096,0.4690000116825104,-2.57840327480457
12.103447999999998,,0.0,12.559,0.46299999952316284,-2.5915216192070907
12.568966000000001,,0.0,13.025,0.49399998784065247,-2.5240235691834996
13.034483,,0.0,13.49,0.43799999356269836,-2.6460604893352793
13.5,,0.0,13.955,0.4690000116825104,-2.57854744968608
13.965517,,0.0,14.42,0.48399999737739563,-2.545884288171272
14.431034,,0.0,14.886,0.49000000953674316,-2.5328185548332094
14.896552,,0.0,15.346,0.47699999809265137,-2.5611363673508687
15.362069,,0.0,15.811,0.4779999852180481,-2.5589427130603686
15.827586000000002,,0.0,16.275,0.47699999809265137,-2.561096555726617
16.293103,,0.0,16.745,0.4970000088214874,-2.517489361322977
16.758621,,0.0,17.205,0.47600001096725464,-2.5631980359276554
17.224138,,0.0,17.675,0.4779999852180481,-2.558790694164572
17.689655,,0.0,18.145,0.4790000021457672,-2.5565565300242654
18.155172,,0.0,18.6,0.48399999737739563,-2.5456038932586074
18.62069,,0.0,19.066,0.47200000286102295,-2.5716861090223873
19.086207,,0.0,19.531,0.47200000286102295,-2.57162454663132
19.551724,,0.0,19.997,0.49000000953674316,-2.5323489729259356
20.017241000000002,,0.0,20.464,0.5080000162124634,-2.493075828958521
20.482758999999998,,0.0,20.93,0.44699999690055847,-2.6259202958179664
20.948276,,0.0,21.394,0.47999998927116394,-2.553978900011638
21.413793000000002,,0.0,21.86,0.4749999940395355,-2.5648347117719794
21.87931,,0.0,22.323,0.47600001096725464,-2.562627818678937
22.344828,,0.0,22.785,0.47600001096725464,-2.5626097092575684
22.810344999999998,,0.0,23.253,0.4909999966621399,-2.5299222125059764
23.275862,,0.0,23.715,0.4699999988079071,-2.575676425171917
23.741379,,0.0,24.186,0.4779999852180481,-2.5582604953119907
24.206897,,0.0,24.649,0.49000000953674316,-2.5321400149016595
24.672414,,0.0,25.115,0.47600001096725464,-2.5626735701671812
25.137931,,0.0,25.577,0.47699999809265137,-2.560535860085258
25.603448,,0.0,26.043,0.48100000619888306,-2.5518695592451044
26.068966,,0.0,26.508,0.49300000071525574,-2.5257796966913477
26.534483,,0.0,26.974,0.4880000054836273,-2.5367304589009594
27.0,,0.0,27.439,0.4480000138282776,-2.6239366076426043
27.465517,,0.0,27.904,0.4779999852180481,-2.55863935883679
27.931034,,0.0,28.371,0.48100000619888306,-2.552165249476374
28.396552,,0.0,28.836,0.47200000286102295,-2.5718323625045882
28.862069,,0.0,29.297,0.47699999809265137,-2.5609941889063808
29.327586,,0.0,29.767,0.4880000054836273,-2.5370780157126687
29.793103000000002,,0.0,30.227,0.4909999966621399,-2.5305829563928555
30.258620999999998,,0.0,30.696,0.49000000953674316,-2.5327928087693734
30.724138,,0.0,31.157,0.45899999141693115,-2.600352211667409
31.189655000000002,,0.0,31.627,0.4690000116825104,-2.5785772920564156
31.655172000000004,,0.0,32.085,0.5,-2.5110404594142346
32.12069,,0.0,32.556,0.4880000054836273,-2.537173975894853
32.586207,,0.0,33.022,0.46799999475479126,-2.580725733232784
33.051724,,0.0,33.486,0.4650000035762787,-2.5872310877587403
33.517241000000006,,0.0,33.951,0.5019999742507935,-2.5065819252460506
33.982759,,0.0,34.416,0.48100000619888306,-2.5522858639026587
34.448276,,0.0,34.881,0.4740000069141388,-2.5674819936595075
34.913793,,0.0,35.345,0.4959999918937683,-2.519492407130812
35.37931,,0.0,35.811,0.4480000138282776,-2.624005241326748
35.844828,,0.0,36.271,0.4690000116825104,-2.578191229672034
36.310345,,0.0,36.741,0.46399998664855957,-2.58902407695619
36.775862,,0.0,37.201,0.5049999952316284,-2.4996416729223205
37.241378999999995,,0.0,37.671,0.47200000286102295,-2.571482821524613
37.706897000000005,,0.0,38.142,0.45100000500679016,-2.6171861133221785
38.172414,,0.0,38.597,0.5009999871253967,-2.508213118747863
38.637931,,0.0,39.062,0.47999998927116394,-2.553931991275626
39.103448,,0.0,39.526,0.45100000500679016,-2.6170891524819826
39.568965999999996,,0.0,39.992,0.49399998784065247,-2.5233940920987425
40.034483,,0.0,40.457,0.48100000619888306,-2.5517132786414414
40.5,,0.0,40.922,0.45399999618530273,-2.6105438264927048
40.965517,,0.0,41.39,0.4740000069141388,-2.5669886674592424
41.431034,,0.0,41.856,0.49000000953674316,-2.5321578643855402
41.896552,,0.0,42.319,0.5090000033378601,-2.490798694843242
42.362069000000005,,0.0,42.782,0.4749999940395355,-2.5649140976060214
42.827586000000004,,0.0,43.25,0.4729999899864197,-2.5693186625181466
43.293103,,0.0,43.712,0.5040000081062317,-2.501832525853679
43.758621,,0.0,44.175,0.4880000054836273,-2.5367454689010818
44.224138,,0.0,44.645,0.4729999899864197,-2.569481144683862
44.689655,,0.0,45.11,0.46399998664855957,-2.5891457994757707
45.155172,,0.0,45.573,0.4729999899864197,-2.569594584944891
45.620689999999996,,0.0,46.039,0.49300000071525574,-2.5260759602751395
46.086206999999995,,0.0,46.504,0.4699999988079071,-2.576235047964648
46.551724,,0.0,46.969,0.492000013589859,-2.5283493488172675
47.017241,,0.0,47.435,0.4819999933242798,-2.5501735357457584
47.482759,,0.0,47.9,0.4830000102519989,-2.548024448912993
47.948276,,0.0,48.365,0.4749999940395355,-2.565474723078824
48.413793,,0.0,48.83,0.4830000102519989,-2.5480575442557494
48.879310000000004,,0.0,49.293,0.492000013589859,-2.5284521000485136
49.344828,,0.0,49.756,0.4909999966621399,-2.530623015870479
49.810345,,0.0,50.226,0.49000000953674316,-2.532783809057996
50.275862,,0.0,50.689,0.48500001430511475,-2.543649835864641
50.741379,,0.0,51.153,0.4740000069141388,-2.567579613502439
51.206897,,0.0,51.615,0.4779999852180481,-2.5588229647967853
51.672414,,0.0,52.081,0.4830000102519989,-2.5478819999977396
52.137931,,0.0,52.548,0.5109999775886536,-2.4868272083023992
52.603448,,0.0,53.015,0.4650000035762787,-2.5869885087062983
53.068966,,0.0,53.48,0.4860000014305115,-2.541178949917599
53.534483,,0.0,53.945,0.4749999940395355,-2.5650866670111485
54.0,,0.0,54.405,0.5019999742507935,-2.5062073427036804
54.465517,,0.0,54.87,0.46799999475479126,-2.5802285208315623
54.931034,,0.0,55.342,0.4970000088214874,-2.516999494511482
55.396552,,0.0,55.801,0.4880000054836273,-2.536564920897355
55.862069,,0.0,56.271,0.4779999852180481,-2.5583159456221707
56.327586,,0.0,56.734,0.46799999475479126,-2.5800755472510675
56.793102999999995,,0.0,57.197,0.46700000762939453,-2.5822372635652644
57.258621000000005,,0.0,57.66,0.4950000047683716,-2.521228285354957
57.724138,,0.0,58.126,0.49799999594688416,-2.5146946957942715
58.189655,,0.0,58.596,0.4740000069141388,-2.566993437353796
58.655172,,0.0,59.055,0.4819999933242798,-2.549584653746389
59.120689999999996,,0.0,59.526,0.4729999899864197,-2.5692218047238002
59.586207,,0.0,59.992,0.5099999904632568,-2.488648646520578
60.051724,,0.0,60.456,0.515999972820282,-2.475618839207156
60.517241,,0.0,60.922,0.492000013589859,-2.527951953688104
60.982758999999994,,0.0,61.386,0.4779999852180481,-2.5585021629540066
61.448276,,0.0,61.852,0.44699999690055847,-2.6260930594282375
61.913793,,0.0,62.312,0.4880000054836273,-2.5368242293042638
62.379310000000004,,0.0,62.775,0.4749999940395355,-2.5652032897839794
62.84482800000001,,0.0,63.245,0.5009999871253967,-2.5086134755687732
63.310345000000005,,0.0,63.708,0.45100000500679016,-2.6175980781190447
63.775862000000004,,0.0,64.171,0.4880000054836273,-2.5370365878113925
64.241379,,0.0,64.641,0.48100000619888306,-2.55233029836525
64.706897,,0.0,65.1,0.4729999899864197,-2.5697957735466574
65.172414,,0.0,65.566,0.49000000953674316,-2.53278703252425
65.637931,,0.0,66.032,0.49000000953674316,-2.5328060867975313
66.103448,,0.0,66.497,0.4880000054836273,-2.53717225534791
66.56896599999999,,0.0,66.962,0.492000013589859,-2.5284559809364264
67.03448300000001,,0.0,67.428,0.4740000069141388,-2.567659709420509
67.5,,0.0,67.893,0.47699999809265137,-2.5611023230719465
67.965517,,0.0,68.36,0.4690000116825104,-2.578501465329214
68.431034,,0.0,68.826,0.4950000047683716,-2.5218185459437477
68.896552,,0.0,69.29,0.48399999737739563,-2.5457379976974166
69.362069,,0.0,69.752,0.49000000953674316,-2.5326137614433333
69.827586,,0.0,70.22,0.48399999737739563,-2.545628296645055
70.293103,,0.0,70.682,0.48500001430511475,-2.5433888555587902
70.75862099999999,,0.0,71.145,0.4749999940395355,-2.565113258389436
71.22413800000001,,0.0,71.615,0.47200000286102295,-2.5715878659217006
71.689655,,0.0,72.081,0.49000000953674316,-2.532313377800897
72.15517200000001,,0.0,72.546,0.4909999966621399,-2.530079556420477
72.62069,,0.0,73.011,0.48500001430511475,-2.543101146466478
73.086207,,0.0,73.471,0.46799999475479126,-2.58009491078981
73.551724,,0.0,73.937,0.492000013589859,-2.527772531850085
74.017241,,0.0,74.401,0.4909999966621399,-2.5299255257660507
74.482759,,0.0,74.867,0.47699999809265137,-2.560410655549277
74.94827599999999,,0.0,75.33,0.47999998927116394,-2.5538695517446808
75.41379300000001,,0.0,75.8,0.47600001096725464,-2.5625901821950205
75.87931,,0.0,76.26,0.4779999852180481,-2.5582502501859024
76.344828,,0.0,76.73,0.43799999356269836,-2.645425066946182
76.810345,,0.0,77.194,0.48399999737739563,-2.5452474164536194
77.275862,,0.0,77.656,0.47200000286102295,-2.5714408462079335
77.741379,,0.0,78.122,0.4729999899864197,-2.569319382991707
78.206897,,0.0,78.592,0.47699999809265137,-2.5606678154938813
78.67241399999999,,0.0,79.05,0.4819999933242798,-2.5498413329475236
79.137931,,0.0,79.515,0.4880000054836273,-2.536837457937641
79.603448,,0.0,79.982,0.47200000286102295,-2.5717631012286897
80.068966,,0.0,80.449,0.4880000054836273,-2.536969306324269
80.53448300000001,,0.0,80.914,0.46700000762939453,-2.5827810178925557
81.0,,0.0,81.379,0.4749999940395355,-2.56540593229679
81.465517,,0.0,81.844,0.492000013589859,-2.5284150516006907
81.931034,,0.0,82.305,0.47200000286102295,-2.5720245507084605
82.396552,,0.0,82.775,0.4860000014305115,-2.5415493003358716
82.86206899999999,,0.0,83.238,0.45500001311302185,-2.609102222540372
83.327586,,0.0,83.701,0.48899999260902405,-2.5350317972310488
83.79310299999999,,0.0,84.171,0.49399998784065247,-2.52413002469327
84.258621,,0.0,84.634,0.4749999940395355,-2.565503438688663
84.72413800000001,,0.0,85.1,0.49000000953674316,-2.532791356725513
85.189655,,0.0,85.566,0.47200000286102295,-2.5719644695476083
85.65517200000001,,0.0,86.031,0.4729999899864197,-2.56973466781092
86.12069,,0.0,86.49,0.47200000286102295,-2.5718554026451796
86.586207,,0.0,86.956,0.47699999809265137,-2.5608992592626443
87.051724,,0.0,87.423,0.4650000035762787,-2.5869770649099304
87.517241,,0.0,87.889,0.49000000953674316,-2.532443649617771
87.98275899999999,,0.0,88.354,0.47699999809265137,-2.5606992858767574
88.448276,,0.0,88.819,0.4950000047683716,-2.5214187849049066
88.913793,,0.0,89.282,0.4830000102519989,-2.5475015457927683
89.37931,,0.0,89.745,0.4819999933242798,-2.549624994274319
89.844828,,0.0,90.213,0.47999998927116394,-2.553934854379015
90.310345,,0.0,90.675,0.4970000088214874,-2.5168593788068554
90.775862,,0.0,91.145,0.49000000953674316,-2.5320813358009104
91.241379,,0.0,91.608,0.47099998593330383,-2.5734581990897087
91.706897,,0.0,92.074,0.47099998593330383,-2.573453210950658
92.17241399999999,,0.0,92.541,0.49399998784065247,-2.5233519871845136
92.63793100000001,,0.0,93.007,0.48500001430511475,-2.5429793372385485
93.103448,,0.0,93.472,0.503000020980835,-2.5037941097329535
93.568966,,0.0,93.93,0.49799999594688416,-2.514727552918848
94.03448300000001,,0.0,94.397,0.492000013589859,-2.527848086858808
94.5,,0.0,94.863,0.4779999852180481,-2.558405693867017
94.965517,,0.0,95.327,0.4950000047683716,-2.521431596819986
95.431034,,0.0,95.79,0.4779999852180481,-2.5585363486692465
95.896552,,0.0,96.26,0.46799999475479126,-2.580393745627512
96.36206899999999,,0.0,96.722,0.4749999940395355,-2.5652158661301665
96.827586,,0.0,97.186,0.4869999885559082,-2.5391440084250956
97.293103,,0.0,97.656,0.4819999933242798,-2.550105731454177
97.758621,,0.0,98.122,0.47200000286102295,-2.571955271494019
98.224138,,0.0,98.584,0.48399999737739563,-2.545867380801077
98.689655,,0.0,99.05,0.4880000054836273,-2.5371993136428674
99.155172,,0.0,99.515,0.4729999899864197,-2.569914633220724
99.62069,,0.0,99.981,0.4729999899864197,-2.5699384154390383
100.086207,,0.0,100.445,0.49000000953674316,-2.532912396321774
100.551724,,0.0,100.911,0.46700000762939453,-2.583018913735362
101.017241,,0.0,101.376,0.48399999737739563,-2.545966073407428
101.482759,,0.0,101.842,0.4699999988079071,-2.5764382334151654
101.948276,,0.0,102.304,0.4959999918937683,-2.5197517083135
102.413793,,0.0,102.766,0.4410000145435333,-2.6395243378278286
102.87931,,0.0,103.236,0.48100000619888306,-2.552316212789077
103.344828,,0.0,103.699,0.4779999852180481,-2.558782152529901
103.810345,,0.0,104.16,0.47600001096725464,-2.5630627906486194
104.275862,,0.0,104.63,0.47200000286102295,-2.5716966171309243
104.741379,,0.0,105.096,0.48500001430511475,-2.543291448527401
105.206897,,0.0,105.56,0.46799999475479126,-2.5802462398918125
105.672414,,0.0,106.026,0.4729999899864197,-2.569273887961939
106.13793100000001,,0.0,106.49,0.4909999966621399,-2.52998443957702
106.603448,,0.0,106.956,0.47699999809265137,-2.560418927675511
107.068966,,0.0,107.416,0.492000013589859,-2.5276817406789025
107.534483,,0.0,107.881,0.4819999933242798,-2.5494218422355073
108.0,,0.0,108.345,0.45399999618530273,-2.6103908074786855
108.46551699999999,,0.0,108.811,0.44999998807907104,-2.619088011123385
108.931034,,0.0,109.279,0.4699999988079071,-2.5755144541837947
109.396552,,0.0,109.741,0.47699999809265137,-2.5602796456528436
109.862069,,0.0,110.212,0.48100000619888306,-2.5515960546678396
110.32758600000001,,0.0,110.674,0.48500001430511475,-2.5429266500205867
110.793103,,0.0,111.142,0.4869999885559082,-2.5386273703064237
111.258621,,0.0,111.604,0.4650000035762787,-2.5866270457325564
111.724138,,0.0,112.07,0.47699999809265137,-2.5605628076220004
112.189655,,0.0,112.534,0.503000020980835,-2.5040047695515906
112.655172,,0.0,113.0,0.4650000035762787,-2.5868847518662905
113.12069,,0.0,113.464,0.4729999899864197,-2.5695493982047704
113.586207,,0.0,113.93,0.47600001096725464,-2.5631073648609077
114.051724,,0.0,114.39,0.4869999885559082,-2.539233116740154
114.51724100000001,,0.0,114.856,0.47200000286102295,-2.571997623148884
114.982759,,0.0,115.324,0.48100000619888306,-2.5524661178940145
115.448276,,0.0,115.786,0.46700000762939453,-2.5830329228852027
115.913793,,0.0,116.256,0.4860000014305115,-2.541691594125772
116.37931,,0.0,116.719,0.49000000953674316,-2.533014971384298
116.84482799999999,,0.0,117.182,0.4830000102519989,-2.5482868133033882
117.310345,,0.0,117.645,0.47600001096725464,-2.5635414632980726
117.77586199999999,,0.0,118.111,0.4749999940395355,-2.565707172315645
118.241379,,0.0,118.581,0.4779999852180481,-2.5591414954910996
118.70689700000001,,0.0,119.046,0.4749999940395355,-2.565631564179436
119.172414,,0.0,119.507,0.48500001430511475,-2.5437841066176676
119.63793100000001,,0.0,119.973,0.4830000102519989,-2.5480667952534644
120.103448,,0.0,120.44,0.4429999887943268,-2.6351272084861144
120.568966,,0.0,120.905,0.48100000619888306,-2.5522451519414977
121.034483,,0.0,121.371,0.49000000953674316,-2.5325380118841716
121.5,,0.0,121.83,0.4880000054836273,-2.536791921569913
121.96551699999999,,0.0,122.301,0.49000000953674316,-2.53232999930301
122.431034,,0.0,122.763,0.48500001430511475,-2.5431205803187718
122.896552,,0.0,123.231,0.4860000014305115,-2.540844520697123
123.362069,,0.0,123.693,0.47600001096725464,-2.5625420392430716
123.827586,,0.0,124.156,0.47699999809265137,-2.5602861048506282
124.293103,,0.0,124.626,0.46700000762939453,-2.5820097400215904
124.758621,,0.0,125.085,0.4779999852180481,-2.5579985193190438
125.22413800000001,,0.0,125.556,0.48100000619888306,-2.551434412937179
125.68965500000002,,0.0,126.015,0.49000000953674316,-2.531817032696761
126.15517200000001,,0.0,126.482,0.44699999690055847,-2.6255089521331727
126.62069000000001,,0.0,126.948,0.4729999899864197,-2.5688944390866575
127.086207,,0.0,127.413,0.4830000102519989,-2.5471575477338866
127.55172400000001,,0.0,127.878,0.4860000014305115,-2.5406882997650264
128.017241,,0.0,128.346,0.46700000762939453,-2.5821645268034055
128.48275900000002,,0.0,128.811,0.45500001311302185,-2.608403970448145
128.948276,,0.0,129.271,0.4880000054836273,-2.536615370605048
129.413793,,0.0,129.741,0.4790000021457672,-2.5563371404614963
129.87931,,0.0,130.205,0.47099998593330383,-2.573883831684281
130.344828,,0.0,130.667,0.49799999594688416,-2.515177676971387
130.81034499999998,,0.0,131.133,0.4699999988079071,-2.5762932520827992
131.275862,,0.0,131.598,0.46399998664855957,-2.5894717509623257
131.741379,,0.0,132.064,0.4790000021457672,-2.5568888868242907
132.206897,,0.0,132.531,0.47099998593330383,-2.574401997383417
132.67241399999997,,0.0,132.996,0.47699999809265137,-2.561398140979226
133.13793099999998,,0.0,133.456,0.47999998927116394,-2.5549120920477204
133.60344800000001,,0.0,133.922,0.4860000014305115,-2.541869826008021
134.06896600000002,,0.0,134.39,0.4880000054836273,-2.537520547304685
134.53448300000002,,0.0,134.856,0.47999998927116394,-2.5549357276032105
135.0,,0.0,135.319,0.47999998927116394,-2.5549001429589415
135.465517,,0.0,135.782,0.4819999933242798,-2.5504867817298775
135.931034,,0.0,136.249,0.48100000619888306,-2.5525904202506178
136.396552,,0.0,136.711,0.47200000286102295,-2.572106723656112
136.862069,,0.0,137.175,0.4699999988079071,-2.57635903347391
137.327586,,0.0,137.645,0.47600001096725464,-2.5631719373838338
137.793103,,0.0,138.111,0.4819999933242798,-2.549977893558565
138.258621,,0.0,138.573,0.492000013589859,-2.52806533124222
138.724138,,0.0,139.039,0.4819999933242798,-2.5497255542579436
139.189655,,0.0,139.5,0.48100000619888306,-2.5517816834588825
139.655172,,0.0,139.966,0.4749999940395355,-2.564739096203839
140.12069,,0.0,140.43,0.48100000619888306,-2.551564385792109
140.586207,,0.0,140.896,0.4729999899864197,-2.5689058520015418
141.05172399999998,,0.0,141.361,0.4699999988079071,-2.575372107061753
141.51724099999998,,0.0,141.826,0.47200000286102295,-2.5709657102463437
141.982759,,0.0,142.297,0.47600001096725464,-2.562224128959001
142.44827600000002,,0.0,142.759,0.4779999852180481,-2.5578627644602743
142.913793,,0.0,143.22,0.4819999933242798,-2.549166888437701
143.37931,,0.0,143.689,0.4819999933242798,-2.549207838507307
143.844828,,0.0,144.153,0.47699999809265137,-2.5601631112027627
144.310345,,0.0,144.615,0.4830000102519989,-2.5471725942112866
144.77586200000002,,0.0,145.081,0.46399998664855957,-2.5886655813609307
145.241379,,0.0,145.546,0.45899999141693115,-2.5996723594889946
145.706897,,0.0,146.011,0.47600001096725464,-2.5627605439087815
146.172414,,0.0,146.478,0.4779999852180481,-2.558535854736726
146.637931,,0.0,146.944,0.4749999940395355,-2.5652071787617556
147.103448,,0.0,147.408,0.47600001096725464,-2.563162566519871
147.568966,,0.0,147.874,0.47999998927116394,-2.5545765125109385
148.034483,,0.0,148.341,0.5009999871253967,-2.5089431949378596
148.5,,0.0,148.807,0.49000000953674316,-2.5330120322885765
148.965517,,0.0,149.268,0.5139999985694885,-2.4808099655439158
149.43103399999998,,0.0,149.73,0.492000013589859,-2.528804518076725
149.89655199999999,,0.0,150.198,0.49000000953674316,-2.5332033938577285
150.362069,,0.0,150.66,0.45100000500679016,-2.6181895513816587
150.82758600000003,,0.0,151.126,0.4790000021457672,-2.5571839120430595
151.293103,,0.0,151.596,0.48399999737739563,-2.5462646337123274
151.758621,,0.0,152.055,0.48100000619888306,-2.5527520924001075
152.224138,,0.0,152.526,0.4860000014305115,-2.5417893731937595
152.68965500000002,,0.0,152.985,0.47099998593330383,-2.5743809322608837
153.155172,,0.0,153.452,0.48500001430511475,-2.543775749406732
153.62069,,0.0,153.918,0.47699999809265137,-2.561088217759307
154.086207,,0.0,154.383,0.47600001096725464,-2.563140972029508
154.551724,,0.0,154.848,0.4580000042915344,-2.60222606139242
155.017241,,0.0,155.312,0.4729999899864197,-2.5694153709893395
155.482759,,0.0,155.782,0.4880000054836273,-2.536607681705113
155.948276,,0.0,156.242,0.47600001096725464,-2.5626298260249585
156.413793,,0.0,156.711,0.47699999809265137,-2.5603396470690964
156.87931,,0.0,157.175,0.4749999940395355,-2.564599038017384
157.34482799999998,,0.0,157.638,0.46799999475479126,-2.579768415466274
157.81034499999998,,0.0,158.103,0.47999998927116394,-2.5535627025057943
158.275862,,0.0,158.567,0.47099998593330383,-2.5731295153607547
158.741379,,0.0,159.033,0.4860000014305115,-2.5404306121740214
159.20689700000003,,0.0,159.497,0.48899999260902405,-2.533897530699107
159.672414,,0.0,159.963,0.49000000953674316,-2.5317431322625668
160.137931,,0.0,160.428,0.48399999737739563,-2.5448600586768975
160.60344800000001,,0.0,160.893,0.4819999933242798,-2.5492819932988997
161.06896600000002,,0.0,161.357,0.4970000088214874,-2.5166844724066246
161.534483,,0.0,161.823,0.4740000069141388,-2.5668907784603925
162.0,,0.0,162.286,0.4659999907016754,-2.5844303781013047
162.465517,,0.0,162.756,0.4880000054836273,-2.5366205138984235
162.931034,,0.0,163.219,0.47999998927116394,-2.5541761982132374
163.396552,,0.0,163.682,0.45899999141693115,-2.600056829932879
163.862069,,0.0,164.149,0.47699999809265137,-2.560969450895045
164.327586,,0.0,164.612,0.4690000116825104,-2.5785222895467816
164.793103,,0.0,165.077,0.4699999988079071,-2.5764589137268046
165.258621,,0.0,165.542,0.4650000035762787,-2.5874556714712798
165.72413799999998,,0.0,166.008,0.4749999940395355,-2.5657577999574017
166.189655,,0.0,166.475,0.47999998927116394,-2.5549351081488094
166.655172,,0.0,166.94,0.4819999933242798,-2.550627644475799
167.12069,,0.0,167.405,0.4000000059604645,-2.7293057474406974
167.58620699999997,,0.0,167.871,0.4909999966621399,-2.531056933336695
168.051724,,0.0,168.339,0.48500001430511475,-2.5441141631984174
168.517241,,0.0,168.797,0.4830000102519989,-2.54843273471246
168.98275900000002,,0.0,169.26,0.47200000286102295,-2.5723364036324856
169.44827600000002,,0.0,169.73,0.4729999899864197,-2.5700756509731115
169.913793,,0.0,170.191,0.45100000500679016,-2.617906032604856
170.37931,,0.0,170.66,0.47200000286102295,-2.572040079454105
170.844828,,0.0,171.127,0.4749999940395355,-2.565378253313369
171.310345,,0.0,171.589,0.4749999940395355,-2.5652439570360595
171.775862,,0.0,172.055,0.45899999141693115,-2.59996386891263
172.241379,,0.0,172.521,0.47699999809265137,-2.5606098934526047
172.706897,,0.0,172.987,0.4699999988079071,-2.575726279352011
173.172414,,0.0,173.445,0.4880000054836273,-2.536384193214698
173.637931,,0.0,173.911,0.4749999940395355,-2.5645916250886196
174.103448,,0.0,174.376,0.4830000102519989,-2.547062306859452
174.568966,,0.0,174.842,0.4860000014305115,-2.5404443150116225
175.034483,,0.0,175.312,0.4699999988079071,-2.5752414081073884
175.5,,0.0,175.775,0.48500001430511475,-2.5425234752750825
175.96551699999998,,0.0,176.238,0.4880000054836273,-2.535973653142468
176.43103399999998,,0.0,176.701,0.43799999356269836,-2.6449177933790335
176.896552,,0.0,177.171,0.47699999809265137,-2.5599887106849484
177.36206900000002,,0.0,177.633,0.49000000953674316,-2.5317294454553636
177.827586,,0.0,178.099,0.47099998593330383,-2.5732094672349373
178.293103,,0.0,178.566,0.3779999911785126,-2.7759317582630247
178.758621,,0.0,179.032,0.4790000021457672,-2.5560172074715184
179.224138,,0.0,179.497,0.4830000102519989,-2.5474467620337116
179.68965500000002,,0.0,179.956,0.4650000035762787,-2.586815623665529
180.155172,,0.0,180.423,0.47600001096725464,-2.5630082733620707
180.62069,,0.0,180.888,0.46700000762939453,-2.582773755274692
181.086207,,0.0,181.353,0.46700000762939453,-2.5829263936569054
181.551724,,0.0,181.819,0.4740000069141388,-2.567818700447168
182.01724099999998,,0.0,182.282,0.47200000286102295,-2.572304278281213
182.482759,,0.0,182.745,0.4950000047683716,-2.522304405820957
182.948276,,0.0,183.216,0.5049999952316284,-2.5006032309712376
183.413793,,0.0,183.678,0.46799999475479126,-2.581271881992368
183.87931,,0.0,184.146,0.47600001096725464,-2.5638737298037926
184.34482799999998,,0.0,184.608,0.4779999852180481,-2.559519302553764
184.81034499999998,,0.0,185.074,0.49000000953674316,-2.533349375532571
185.27586200000002,,0.0,185.538,0.47999998927116394,-2.555081355627663
185.74137900000002,,0.0,186.004,0.49000000953674316,-2.53321338635378
186.206897,,0.0,186.471,0.48500001430511475,-2.5440007183817905
186.672414,,0.0,186.93,0.47600001096725464,-2.5634816537177447
187.137931,,0.0,187.401,0.47200000286102295,-2.572052818161629
187.60344800000001,,0.0,187.866,0.46799999475479126,-2.5806123377108183
188.06896600000002,,0.0,188.33,0.46799999475479126,-2.5804506811021706
188.534483,,0.0,188.793,0.4830000102519989,-2.5476075403486322
189.0,,0.0,189.256,0.47999998927116394,-2.5539830548791884
189.465517,,0.0,189.726,0.4860000014305115,-2.54075829018731
189.931034,,0.0,190.187,0.4880000054836273,-2.536260378868575
190.39655199999999,,0.0,190.657,0.4779999852180481,-2.557923000962241
190.862069,,0.0,191.115,0.45899999141693115,-2.599214741172739
191.327586,,0.0,191.585,0.45100000500679016,-2.6165669878684072
191.793103,,0.0,192.051,0.4779999852180481,-2.5576948500669756
192.25862099999998,,0.0,192.516,0.46799999475479126,-2.579461795863742
192.72413799999998,,0.0,192.975,0.4690000116825104,-2.577293162300318
193.189655,,0.0,193.442,0.4959999918937683,-2.5185086162152235
193.655172,,0.0,193.907,0.46399998664855957,-2.5882915604972925
194.12069000000002,,0.0,194.372,0.47600001096725464,-2.562239475625785
194.586207,,0.0,194.838,0.48100000619888306,-2.551460772273828
195.051724,,0.0,195.3,0.49000000953674316,-2.5319860500755897
195.517241,,0.0,195.77,0.47200000286102295,-2.571349214598811
195.98275900000002,,0.0,196.231,0.46700000762939453,-2.5824002478071684
196.448276,,0.0,196.7,0.48100000619888306,-2.552062630680621
196.913793,,0.0,197.161,0.4779999852180481,-2.5587622816718167
197.37931,,0.0,197.63,0.44699999690055847,-2.6264595421455352
197.844828,,0.0,198.096,0.4729999899864197,-2.5699650787980133
198.310345,,0.0,198.56,0.453000009059906,-2.6136749002923465
198.775862,,0.0,199.026,0.46399998664855957,-2.5898288617504512
199.241379,,0.0,199.49,0.5009999871253967,-2.509315510985994
199.706897,,0.0,199.955,0.4729999899864197,-2.57038777256617
200.172414,,0.0,200.419,0.49000000953674316,-2.533391958038708
200.63793099999998,,0.0,200.885,0.46000000834465027,-2.5987629789229314
201.103448,,0.0,201.349,0.48100000619888306,-2.552993177153795
201.568966,,0.0,201.815,0.45899999141693115,-2.600876329079763
202.034483,,0.0,202.278,0.49900001287460327,-2.5136552862628943
202.5,,0.0,202.741,0.49000000953674316,-2.5331616624610005
202.965517,,0.0,203.212,0.47600001096725464,-2.5635378744223956
203.431034,,0.0,203.674,0.46700000762939453,-2.5830022813024973
203.896552,,0.0,204.145,0.47600001096725464,-2.5632374177726716
204.36206900000002,,0.0,204.6,0.4560000002384186,-2.606645045226569
204.827586,,0.0,205.066,0.48100000619888306,-2.552010416705319
205.293103,,0.0,205.531,0.49000000953674316,-2.532235784012672
205.758621,,0.0,205.997,0.49000000953674316,-2.5320750932816747
206.224138,,0.0,206.464,0.47600001096725464,-2.562426803642591
206.689655,,0.0,206.93,0.49799999594688416,-2.514363404347269
207.155172,,0.0,207.39,0.4830000102519989,-2.5469302202178103
207.62069,,0.0,207.856,0.4880000054836273,-2.5359481036291847
208.086207,,0.0,208.327,0.5149999856948853,-2.4770622984511697
208.551724,,0.0,208.79,0.3919999897480011,-2.7450037341926565
209.01724099999998,,0.0,209.253,0.4830000102519989,-2.5467476872603094
209.482759,,0.0,209.715,0.47600001096725464,-2.562031880854835
209.948276,,0.0,210.183,0.4779999852180481,-2.5577383502050766
210.413793,,0.0,210.646,0.4749999940395355,-2.5643661580012136
210.87930999999998,,0.0,211.111,0.48500001430511475,-2.5426966398511515
211.344828,,0.0,211.581,0.46700000762939453,-2.5820507882290693
211.810345,,0.0,212.04,0.4650000035762787,-2.586564071210959
212.27586200000002,,0.0,212.511,0.4699999988079071,-2.5758396474718976
212.741379,,0.0,212.97,0.4729999899864197,-2.5694797090127746
213.206897,,0.0,213.435,0.46399998664855957,-2.5892649802434597
213.672414,,0.0,213.9,0.49000000953674316,-2.532792917124594
214.137931,,0.0,214.371,0.4880000054836273,-2.537312123852427
214.60344800000001,,0.0,214.83,0.4880000054836273,-2.5374573574171944
215.068966,,0.0,215.297,0.46799999475479126,-2.5811546133002827
215.534483,,0.0,215.767,0.4740000069141388,-2.568182543478637
216.0,,0.0,216.227,0.49000000953674316,-2.5333961921002315
216.465517,,0.0,216.696,0.49000000953674316,-2.533437344676568
216.93103399999998,,0.0,217.16,0.4690000116825104,-2.579197974069459
217.39655199999999,,0.0,217.623,0.49000000953674316,-2.533423281458531
217.862069,,0.0,218.088,0.47699999809265137,-2.561691208124753
218.327586,,0.0,218.552,0.49799999594688416,-2.515855030053092
218.793103,,0.0,219.018,0.4580000042915344,-2.6028893771686734
219.25862099999998,,0.0,219.482,0.47600001096725464,-2.563539416238754
219.724138,,0.0,219.947,0.4729999899864197,-2.569922979841507
220.18965500000002,,0.0,220.413,0.47600001096725464,-2.5632210346765416
220.65517200000002,,0.0,220.878,0.46799999475479126,-2.5804762410003756
221.12069,,0.0,221.345,0.46399998664855957,-2.589014688077357
221.586207,,0.0,221.811,0.46799999475479126,-2.580127646955934
222.051724,,0.0,222.271,0.47600001096725464,-2.5625350276873133
222.517241,,0.0,222.741,0.46399998664855957,-2.588529582674768
222.98275900000002,,0.0,223.204,0.48899999260902405,-2.5339327351315717
223.448276,,0.0,223.667,0.47200000286102295,-2.570861589076601
223.913793,,0.0,224.133,0.4729999899864197,-2.5686008380789076
224.37931,,0.0,224.598,0.48100000619888306,-2.5511182510123596
224.844828,,0.0,225.064,0.49000000953674316,-2.5314870213291933
225.31034499999998,,0.0,225.531,0.48100000619888306,-2.5511019024503465
225.775862,,0.0,225.996,0.47699999809265137,-2.5598540010290476
226.241379,,0.0,226.456,0.47999998927116394,-2.553385114984186
226.706897,,0.0,226.922,0.4749999940395355,-2.564372914757532
227.172414,,0.0,227.387,0.4699999988079071,-2.5753854915685546
227.63793099999998,,0.0,227.852,0.46700000762939453,-2.582062109450126
228.103448,,0.0,228.315,0.492000013589859,-2.5277531799872017
228.56896600000002,,0.0,228.785,0.4860000014305115,-2.5409932739679983
229.03448300000002,,0.0,229.246,0.4860000014305115,-2.541166723006351
229.5,,0.0,229.716,0.46399998664855957,-2.589270796971548
229.965517,,0.0,230.179,0.4749999940395355,-2.5654748232144273
230.431034,,0.0,230.641,0.49000000953674316,-2.532954007510811
230.896552,,0.0,231.107,0.4819999933242798,-2.5505262912849567
231.362069,,0.0,231.57,0.49000000953674316,-2.533219536534103
231.827586,,0.0,232.036,0.4860000014305115,-2.5420320877338733
232.293103,,0.0,232.501,0.48899999260902405,-2.5355664105371503
232.758621,,0.0,232.967,0.492000013589859,-2.529070691015449
233.224138,,0.0,233.431,0.46799999475479126,-2.5813676580273803
233.689655,,0.0,233.897,0.4749999940395355,-2.566095993616733
234.155172,,0.0,234.364,0.4819999933242798,-2.550794625389825
234.62069,,0.0,234.829,0.46299999952316284,-2.5921100103584247
235.086207,,0.0,235.29,0.4699999988079071,-2.5767553684388447
235.55172399999998,,0.0,235.759,0.47200000286102295,-2.572272126091141
236.01724099999998,,0.0,236.22,0.4659999907016754,-2.58520011407254
236.482759,,0.0,236.689,0.47200000286102295,-2.5719708085698363
236.94827600000002,,0.0,237.153,0.37400001287460327,-2.7853141691027252
237.413793,,0.0,237.615,0.5,-2.5106395037567153
237.87931,,0.0,238.08,0.49000000953674316,-2.5322626925739002
238.344828,,0.0,238.545,0.48399999737739563,-2.5451759470730138
238.810345,,0.0,239.011,0.48399999737739563,-2.5450270825261585
239.27586200000002,,0.0,239.476,0.4659999907016754,-2.584108682200444
239.741379,,0.0,239.941,0.46399998664855957,-2.5883514448995375
240.206897,,0.0,240.408,0.4699999988079071,-2.575188321774421
240.672414,,0.0,240.874,0.4729999899864197,-2.5685870611183788
241.137931,,0.0,241.339,0.4659999907016754,-2.583800026270322
241.603448,,0.0,241.805,0.47600001096725464,-2.5620048192916745
242.068966,,0.0,242.267,0.4749999940395355,-2.564203774323533
242.534483,,0.0,242.73,0.5770000219345093,-2.342028031741965
243.0,,0.0,243.197,0.4779999852180481,-2.5577839139992977
243.465517,,0.0,243.667,0.47600001096725464,-2.5622335825522953
243.93103399999998,,0.0,244.125,0.46799999475479126,-2.5797776592424055
244.39655199999999,,0.0,244.595,0.4959999918937683,-2.5189093343221836
244.862069,,0.0,245.061,0.4650000035762787,-2.5865961442031664
245.327586,,0.0,245.527,0.46399998664855957,-2.5889347726063106
245.793103,,0.0,245.985,0.47600001096725464,-2.5629578386991203
246.258621,,0.0,246.457,0.48100000619888306,-2.552233035804718
246.724138,,0.0,246.915,0.492000013589859,-2.528432207389631
247.18965500000002,,0.0,247.383,0.492000013589859,-2.528587016188086
247.655172,,0.0,247.849,0.48399999737739563,-2.5461568396019407
248.12069,,0.0,248.312,0.47600001096725464,-2.5637086102429056
248.586207,,0.0,248.782,0.47200000286102295,-2.5725246612406956
249.051724,,0.0,249.242,0.46799999475479126,-2.581316807271845
249.517241,,0.0,249.711,0.4970000088214874,-2.518186818906436
249.982759,,0.0,250.172,0.47999998927116394,-2.555245742880195
250.44827600000002,,0.0,250.641,0.4790000021457672,-2.5574164813550255
250.913793,,0.0,251.107,0.4659999907016754,-2.5857020042474606
251.37931000000003,,0.0,251.57,0.4729999899864197,-2.5703867541755083
251.844828,,0.0,252.036,0.4880000054836273,-2.53761593951262
252.31034499999998,,0.0,252.501,0.4860000014305115,-2.5418577236779463
252.77586200000002,,0.0,252.967,0.47999998927116394,-2.554792806803681
253.241379,,0.0,253.431,0.4699999988079071,-2.57642549572037
253.706897,,0.0,253.89,0.48500001430511475,-2.543579652922933
254.172414,,0.0,254.357,0.4830000102519989,-2.547763103352763
254.63793099999998,,0.0,254.823,0.4880000054836273,-2.5366930291621115
255.10344800000001,,0.0,255.286,0.47200000286102295,-2.571376990295504
255.56896600000002,,0.0,255.756,0.46700000762939453,-2.5821040059553417
256.03448299999997,,0.0,256.219,0.47200000286102295,-2.5710581428038006
256.5,,0.0,256.682,0.47999998927116394,-2.5534942965131653
256.965517,,0.0,257.145,0.49000000953674316,-2.531594522966472
257.431034,,0.0,257.615,0.4729999899864197,-2.5685430778256433
257.896552,,0.0,258.081,0.5009999871253967,-2.5074797917011247
258.362069,,0.0,258.545,0.4819999933242798,-2.548842030478299
258.827586,,0.0,259.01,0.4880000054836273,-2.5357682997306923
259.29310300000003,,0.0,259.476,0.47999998927116394,-2.5532265744900453
259.758621,,0.0,259.941,0.47600001096725464,-2.562000682494804
260.224138,,0.0,260.4,0.48500001430511475,-2.5424815217594428
260.689655,,0.0,260.866,0.4129999876022339,-2.6994608346121085
261.155172,,0.0,261.331,0.4830000102519989,-2.5470976032546915
261.62068999999997,,0.0,261.8,0.515999972820282,-2.475364253139052
262.086207,,0.0,262.264,0.46399998664855957,-2.5888293642557136
262.551724,,0.0,262.726,0.48500001430511475,-2.5432622010149575
263.017241,,0.0,263.194,0.4690000116825104,-2.578309290541094
263.482759,,0.0,263.656,0.46799999475479126,-2.5806754235010683
263.94827599999996,,0.0,264.121,0.49000000953674316,-2.532925579572513
264.413793,,0.0,264.592,0.47200000286102295,-2.5723088199017283
264.87931,,0.0,265.05,0.4650000035762787,-2.5877092278594844
265.34482799999995,,0.0,265.515,0.4860000014305115,-2.5420853492394238
265.810345,,0.0,265.981,0.49000000953674316,-2.5334716203303334
266.27586199999996,,0.0,266.446,0.48500001430511475,-2.5444351975711417
266.741379,,0.0,266.911,0.550000011920929,-2.402859390447138
267.206897,,0.0,267.378,0.4819999933242798,-2.551007707749265
267.672414,,0.0,267.844,0.46399998664855957,-2.590188866164904
268.137931,,0.0,268.305,0.48899999260902405,-2.5356558860528606
268.603448,,0.0,268.775,0.4880000054836273,-2.537736959638094
269.06896600000005,,0.0,269.238,0.4819999933242798,-2.5506830996955174
269.53448299999997,,0.0,269.701,0.4860000014305115,-2.541818398422909
270.0,,0.0,270.171,0.40799999237060547,-2.7115845906814062
270.465517,,0.0,270.634,0.46700000762939453,-2.5828641663667407
270.931034,,0.0,271.1,0.48899999260902405,-2.5347463521525064
271.396552,,0.0,271.566,0.46799999475479126,-2.5803068899627406
271.86206899999996,,0.0,272.031,0.4729999899864197,-2.569224909753637
272.327586,,0.0,272.49,0.4790000021457672,-2.5559722153367117
272.793103,,0.0,272.956,0.4749999940395355,-2.5645190877036637
273.258621,,0.0,273.423,0.47999998927116394,-2.553476013754323
273.724138,,0.0,273.888,0.46299999952316284,-2.5903857173078806
274.18965499999996,,0.0,274.353,0.48399999737739563,-2.5445332164559376
274.655172,,0.0,274.819,0.46399998664855957,-2.5880346884216077
275.12069,,0.0,275.287,0.47600001096725464,-2.5618509061746666
275.586207,,0.0,275.749,0.48500001430511475,-2.542235676094186
276.051724,,0.0,276.212,0.4699999988079071,-2.574940601366656
276.517241,,0.0,276.682,0.48899999260902405,-2.5336033144361516
276.98275900000004,,0.0,277.145,0.4749999940395355,-2.5641915372335067
277.448276,,0.0,277.608,0.48500001430511475,-2.542519737774253
277.913793,,0.0,278.074,0.47200000286102295,-2.570981390229485
278.37931,,0.0,278.539,0.4740000069141388,-2.5667839880567715
278.844828,,0.0,279.004,0.4819999933242798,-2.5495308563778654
279.31034500000004,,0.0,279.471,0.47200000286102295,-2.571504245833205
279.77586199999996,,0.0,279.93,0.47699999809265137,-2.5608035220585936
280.241379,,0.0,280.401,0.47600001096725464,-2.5631746665448496
280.706897,,0.0,280.86,0.46700000762939453,-2.582969543021188
281.172414,,0.0,281.33,0.47099998593330383,-2.574431319189906
281.637931,,0.0,281.793,0.48500001430511475,-2.5440903494685214
282.10344799999996,,0.0,282.256,0.4779999852180481,-2.559479775203034
282.568966,,0.0,282.726,0.4860000014305115,-2.542163715571341
283.034483,,0.0,283.19,0.4690000116825104,-2.579285015672324
283.5,,0.0,283.652,0.47999998927116394,-2.5553730604775104
283.965517,,0.0,284.118,0.4699999988079071,-2.5771799732456144
284.431034,,0.0,284.58,0.4830000102519989,-2.548844482957909
284.89655200000004,,0.0,285.046,0.48899999260902405,-2.535726003059765
285.362069,,0.0,285.513,0.4909999966621399,-2.531289245504506
285.827586,,0.0,285.978,0.515999972820282,-2.4767124015132596
286.293103,,0.0,286.445,0.4740000069141388,-2.5680767614788835
286.758621,,0.0,286.911,0.48399999737739563,-2.5461283180707395
287.22413800000004,,0.0,287.376,0.4729999899864197,-2.5699138051585675
287.689655,,0.0,287.842,0.49000000953674316,-2.5326846126952423
288.155172,,0.0,288.304,0.4749999940395355,-2.5651654031665303
288.62069,,0.0,288.767,0.47600001096725464,-2.562787023770898
289.086207,,0.0,289.234,0.49000000953674316,-2.532091469359477
289.55172400000004,,0.0,289.697,0.4790000021457672,-2.555872848702612
290.01724099999996,,0.0,290.16,0.5149999856948853,-2.477273394918999
290.482759,,0.0,290.63,0.492000013589859,-2.5272341571615042
290.948276,,0.0,291.096,0.3970000147819519,-2.7340841954547837
291.413793,,0.0,291.56,0.492000013589859,-2.52702325990365
291.87931,,0.0,292.025,0.4650000035762787,-2.5857913106695034
292.344828,,0.0,292.49,0.4729999899864197,-2.5683410916280613
292.81034500000004,,0.0,292.955,0.49000000953674316,-2.5313178477742766
293.275862,,0.0,293.415,0.4830000102519989,-2.5466159715769723
293.74137900000005,,0.0,293.881,0.48500001430511475,-2.5423384110273255
294.206897,,0.0,294.349,0.4779999852180481,-2.5576986921718508
294.672414,,0.0,294.815,0.48100000619888306,-2.551299161684488
295.13793100000004,,0.0,295.275,0.47999998927116394,-2.553637044443646
295.603448,,0.0,295.745,0.4749999940395355,-2.56470752295435
296.068966,,0.0,296.208,0.46700000762939453,-2.582327036821726
296.534483,,0.0,296.671,0.49900001287460327,-2.512807812607943
297.0,,0.0,297.137,0.4819999933242798,-2.550043039797117
297.46551700000003,,0.0,297.6,0.4519999921321869,-2.615595954580845
297.931034,,0.0,298.066,0.4869999885559082,-2.539526996771503
298.396552,,0.0,298.531,0.4830000102519989,-2.5484094761930303
298.862069,,0.0,298.997,0.4699999988079071,-2.576878775039073
299.327586,,0.0,299.464,0.49000000953674316,-2.533427321851906
299.79310300000003,,0.0,299.93,0.4659999907016754,-2.585807551169808
300.258621,,0.0,300.39,0.4970000088214874,-2.5183302405651595
300.724138,,0.0,300.856,0.4659999907016754,-2.5858955839167326
301.189655,,0.0,301.324,0.49000000953674316,-2.5336008076415535
301.65517200000005,,0.0,301.786,0.4959999918937683,-2.520487279999323
302.12069,,0.0,302.256,0.4790000021457672,-2.5574490401402445
302.586207,,0.0,302.719,0.5049999952316284,-2.5006976879736946
303.05172400000004,,0.0,303.183,0.47999998927116394,-2.5550292934099943
303.517241,,0.0,303.645,0.46700000762939453,-2.5831937254605073
303.982759,,0.0,304.111,0.4650000035762787,-2.5873755509299636
304.448276,,0.0,304.581,0.4169999957084656,-2.6917642628610476
304.913793,,0.0,305.04,0.4749999940395355,-2.565211468683305
305.37931000000003,,0.0,305.512,0.49000000953674316,-2.532339941954654
305.844828,,0.0,305.97,0.4690000116825104,-2.5779035355116395
306.310345,,0.0,306.441,0.46299999952316284,-2.59079722220186
306.775862,,0.0,306.907,0.46299999952316284,-2.5906345600756913
307.241379,,0.0,307.371,0.460999995470047,-2.594849589301455
307.70689699999997,,0.0,307.83,0.4410000145435333,-2.638305110183733
308.172414,,0.0,308.297,0.4779999852180481,-2.557605925455463
308.637931,,0.0,308.76,0.48899999260902405,-2.5335808991115436
309.103448,,0.0,309.23,0.46299999952316284,-2.5901961537924985
309.568966,,0.0,309.693,0.4869999885559082,-2.5379102178214636
310.034483,,0.0,310.161,0.47999998927116394,-2.5531931026710684
310.5,,0.0,310.623,0.5019999742507935,-2.505324224615639
310.96551700000003,,0.0,311.088,0.49000000953674316,-2.531555996274716
311.431034,,0.0,311.552,0.4749999940395355,-2.564348248388036
311.896552,,0.0,312.018,0.4729999899864197,-2.568840053010783
312.362069,,0.0,312.482,0.4690000116825104,-2.577707718225225
312.827586,,0.0,312.948,0.47200000286102295,-2.5713393044379504
313.29310300000003,,0.0,313.416,0.49000000953674316,-2.532300388244893
313.758621,,0.0,313.881,0.4819999933242798,-2.5499100876910696
314.224138,,0.0,314.346,0.4740000069141388,-2.567518439299741
314.689655,,0.0,314.812,0.4659999907016754,-2.585121149951608
315.155172,,0.0,315.275,0.5009999871253967,-2.5090311487428507
315.62068999999997,,0.0,315.737,0.5090000033378601,-2.4917480160260266
316.086207,,0.0,316.205,0.4880000054836273,-2.5376245351363926
316.551724,,0.0,316.668,0.4790000021457672,-2.557333500616941
317.017241,,0.0,317.134,0.47600001096725464,-2.5639448826485705
317.482759,,0.0,317.599,0.4790000021457672,-2.5574570203874214
317.94827599999996,,0.0,318.064,0.4690000116825104,-2.5792631069749588
318.413793,,0.0,318.53,0.4950000047683716,-2.522608818420721
318.87931000000003,,0.0,318.996,0.4970000088214874,-2.518212602147219
319.344828,,0.0,319.46,0.47699999809265137,-2.561718231414755
319.810345,,0.0,319.926,0.47999998927116394,-2.555089111954633
320.275862,,0.0,320.391,0.48100000619888306,-2.5527943740653116
320.741379,,0.0,320.856,0.47600001096725464,-2.5635520166096417
321.20689699999997,,0.0,321.319,0.4699999988079071,-2.5764729187946376
321.672414,,0.0,321.782,0.49000000953674316,-2.532737635252956
322.137931,,0.0,322.25,0.4830000102519989,-2.54781864838652
322.603448,,0.0,322.712,0.48500001430511475,-2.543289097086379
323.068966,,0.0,323.175,0.4819999933242798,-2.5496550003818887
323.53448299999997,,0.0,323.645,0.4699999988079071,-2.575635827351398
324.0,,0.0,324.11,0.46399998664855957,-2.588557021228426
324.465517,,0.0,324.573,0.4659999907016754,-2.5840657163761906
324.931034,,0.0,325.039,0.4749999940395355,-2.5643440563688285
325.396552,,0.0,325.5,0.47600001096725464,-2.5620743506969528
325.86206899999996,,0.0,325.966,0.5540000200271606,-2.3920721486334227
326.327586,,0.0,326.43,0.4790000021457672,-2.5554270314863996
326.793103,,0.0,326.896,0.47999998927116394,-2.55323076906061
327.258621,,0.0,327.361,0.48500001430511475,-2.542347828063884
327.724138,,0.0,327.827,0.4830000102519989,-2.5467430948963123
328.189655,,0.0,328.29,0.5080000162124634,-2.4923409480213397
328.655172,,0.0,328.759,0.45899999141693115,-2.5991834000723575
329.12068999999997,,0.0,329.22,0.4869999885559082,-2.5382928230099013
329.586207,,0.0,329.689,0.4099999964237213,-2.7061817478464953
330.051724,,0.0,330.15,0.4699999988079071,-2.575614719246152
330.517241,,0.0,330.62,0.46399998664855957,-2.588852631242032
330.982759,,0.0,331.085,0.46700000762939453,-2.582491038405905
331.44827599999996,,0.0,331.545,0.515999972820282,-2.475914224637264
331.913793,,0.0,332.01,0.4830000102519989,-2.5479826915140076
332.37931,,0.0,332.475,0.492000013589859,-2.5285394017489393
332.844828,,0.0,332.94,0.48500001430511475,-2.543941710763276
333.310345,,0.0,333.405,0.4560000002384186,-2.607257907673783
333.77586199999996,,0.0,333.871,0.4790000021457672,-2.5572648533657927
334.241379,,0.0,334.338,0.4880000054836273,-2.5377496463988787
334.706897,,0.0,334.804,0.48100000619888306,-2.553066298443895
335.17241399999995,,0.0,335.265,0.47600001096725464,-2.563997384525496
335.637931,,0.0,335.734,0.47699999809265137,-2.5618275373826243
336.103448,,0.0,336.197,0.4659999907016754,-2.585772347251478
336.56896600000005,,0.0,336.66,0.48899999260902405,-2.535614400707119
337.034483,,0.0,337.126,0.4880000054836273,-2.537716007861586
337.5,,0.0,337.596,0.46799999475479126,-2.581186071548283
337.965517,,0.0,338.055,0.4650000035762787,-2.587596783677877
338.431034,,0.0,338.526,0.4659999907016754,-2.585274596875954
338.89655200000004,,0.0,338.985,0.5049999952316284,-2.500148595818259
339.36206899999996,,0.0,339.457,0.4880000054836273,-2.5370150627976327
339.827586,,0.0,339.915,0.4729999899864197,-2.569517364809745
340.293103,,0.0,340.38,0.4740000069141388,-2.5671601513129123
340.758621,,0.0,340.845,0.4779999852180481,-2.5582712404864054
341.224138,,0.0,341.315,0.46700000762939453,-2.5820711264315563
341.68965499999996,,0.0,341.778,0.46399998664855957,-2.5884561630905023
342.155172,,0.0,342.241,0.4959999918937683,-2.5186066905608664
342.62069,,0.0,342.712,0.48899999260902405,-2.5337456056308367
343.086207,,0.0,343.175,0.47600001096725464,-2.561980580995499
343.551724,,0.0,343.637,0.460999995470047,-2.594600624112391
344.01724099999996,,0.0,344.103,0.48100000619888306,-2.550997834886031
344.48275900000004,,0.0,344.567,0.4659999907016754,-2.5836785560866993
344.948276,,0.0,345.032,0.4779999852180481,-2.5575665115979525
345.413793,,0.0,345.499,0.4659999907016754,-2.583772079467978
345.87931,,0.0,345.965,0.47999998927116394,-2.553361147769214
346.344828,,0.0,346.43,0.4880000054836273,-2.5360475200564663
346.81034500000004,,0.0,346.896,0.4729999899864197,-2.5688648648429995
347.275862,,0.0,347.36,0.4650000035762787,-2.5864503144555626
347.741379,,0.0,347.826,0.4729999899864197,-2.569192209061784
348.206897,,0.0,348.286,0.46700000762939453,-2.582445036907248
348.672414,,0.0,348.756,0.4339999854564667,-2.6545269390785102
349.13793100000004,,0.0,349.219,0.4729999899864197,-2.5697467512846623
349.60344799999996,,0.0,349.682,0.4880000054836273,-2.537248254985645
350.068966,,0.0,350.145,0.4790000021457672,-2.557025061830946
350.534483,,0.0,350.615,0.46799999475479126,-2.581142134141202
351.0,,0.0,351.081,0.48500001430511475,-2.5442356870847336
351.465517,,0.0,351.546,0.48500001430511475,-2.544340706786366
351.93103399999995,,0.0,352.012,0.4959999918937683,-2.520451338507921
352.396552,,0.0,352.471,0.44699999690055847,-2.6272497812666993
352.862069,,0.0,352.937,0.4699999988079071,-2.57715421075391
353.32758600000005,,0.0,353.401,0.47600001096725464,-2.5640638162843956
353.793103,,0.0,353.866,0.4729999899864197,-2.5705492928680784
354.258621,,0.0,354.339,0.6060000061988831,-2.2807051881845677
354.72413800000004,,0.0,354.797,0.4749999940395355,-2.565991246738682
355.189655,,0.0,355.26,0.4650000035762787,-2.5876334940342476
355.655172,,0.0,355.73,0.49399998784065247,-2.5242879128090903
356.12069,,0.0,356.194,0.4699999988079071,-2.5763946379353966
356.586207,,0.0,356.656,0.47200000286102295,-2.571846210536364
357.05172400000004,,0.0,357.122,0.47999998927116394,-2.5542215953462444
357.517241,,0.0,357.585,0.48100000619888306,-2.5518486130120785
357.982759,,0.0,358.05,0.4749999940395355,-2.5647331128799142
358.448276,,0.0,358.516,0.4690000116825104,-2.577630319482245
358.913793,,0.0,358.982,0.47699999809265137,-2.560044644732632
359.37931000000003,,0.0,359.449,0.45500001311302185,-2.607841366688662
359.844828,,0.0,359.915,0.4699999988079071,-2.5750554092349343
360.310345,,0.0,360.379,0.4749999940395355,-2.5640860136119143
360.775862,,0.0,360.844,0.45100000500679016,-2.6163296138773533
361.241379,,0.0,361.308,0.4699999988079071,-2.57492513349408
361.706897,,0.0,361.77,0.4690000116825104,-2.577127264818084
362.172414,,0.0,362.238,0.4659999907016754,-2.583719267419533
362.63793100000004,,0.0,362.701,0.4749999940395355,-2.5641980089174834
363.103448,,0.0,363.171,0.46799999475479126,-2.579562792762537
363.568966,,0.0,363.634,0.48500001430511475,-2.5426637869593702
364.034483,,0.0,364.1,0.4729999899864197,-2.568964985247137
364.5,,0.0,364.566,0.4880000054836273,-2.536456894505881
364.96551700000003,,0.0,365.032,0.4620000123977661,-2.593282737233992
365.431034,,0.0,365.493,0.48399999737739563,-2.5455376308415563
365.896552,,0.0,365.958,0.4950000047683716,-2.5217557491987312
366.362069,,0.0,366.423,0.47600001096725464,-2.563325630365016
366.827586,,0.0,366.888,0.47999998927116394,-2.554774266135967
367.29310300000003,,0.0,367.353,0.49000000953674316,-2.5331338919967212
367.758621,,0.0,367.819,0.4699999988079071,-2.5768318459211486
368.224138,,0.0,368.287,0.4129999876022339,-2.701116777571026
368.689655,,0.0,368.749,0.47600001096725464,-2.5639392164935684
369.155172,,0.0,369.212,0.4950000047683716,-2.522594006196683
369.62068999999997,,0.0,369.682,0.4699999988079071,-2.5770783495097294
370.086207,,0.0,370.146,0.4740000069141388,-2.568350946481064
370.55172400000004,,0.0,370.608,0.5099999904632568,-2.4898761124689717
371.017241,,0.0,371.074,0.48399999737739563,-2.5464472854342457
371.482759,,0.0,371.541,0.47200000286102295,-2.572490067946044
371.948276,,0.0,372.007,0.46399998664855957,-2.5897952609192707
372.413793,,0.0,372.472,0.49000000953674316,-2.533007123215974
372.87931000000003,,0.0,372.93,0.49000000953674316,-2.5328482825549328
373.344828,,0.0,373.397,0.49000000953674316,-2.532678128234481
373.810345,,0.0,373.863,0.5049999952316284,-2.499821807296802
374.275862,,0.0,374.331,0.49799999594688416,-2.514894175474384
374.741379,,0.0,374.793,0.4970000088214874,-2.5168984453966026
375.20689699999997,,0.0,375.26,0.46299999952316284,-2.5908080946847303
375.672414,,0.0,375.723,0.4650000035762787,-2.586302465471696
376.137931,,0.0,376.186,0.47200000286102295,-2.5709245806518743
376.603448,,0.0,376.656,0.46399998664855957,-2.588251029608304
377.068966,,0.0,377.122,0.4819999933242798,-2.548959874955237
377.53448299999997,,0.0,377.584,0.5180000066757202,-2.4704812151740962
378.0,,0.0,378.05,0.46700000762939453,-2.581573744470651
378.465517,,0.0,378.515,0.4779999852180481,-2.5576201477691387
378.931034,,0.0,378.981,0.4749999940395355,-2.5641977109214285
379.396552,,0.0,379.445,0.47699999809265137,-2.5599105919688943
379.862069,,0.0,379.911,0.4779999852180481,-2.5578283585787283
380.327586,,0.0,380.376,0.46700000762939453,-2.5819130678868167
380.79310300000003,,0.0,380.835,0.4740000069141388,-2.5668018370093306
381.258621,,0.0,381.305,0.47699999809265137,-2.560420421866621
381.724138,,0.0,381.767,0.48100000619888306,-2.551870377891046
382.189655,,0.0,382.235,0.4749999940395355,-2.565111733432559
382.655172,,0.0,382.697,0.4779999852180481,-2.5587449831797953
383.12068999999997,,0.0,383.16,0.4790000021457672,-2.5567300335939245
383.586207,,0.0,383.63,0.4790000021457672,-2.556883270239936
384.051724,,0.0,384.096,0.47600001096725464,-2.5635573666082485
384.517241,,0.0,384.56,0.4869999885559082,-2.5397111682907125
384.982759,,0.0,385.025,0.47200000286102295,-2.5724869332948956
385.44827599999996,,0.0,385.492,0.48399999737739563,-2.546413745897699
385.913793,,0.0,385.95,0.4690000116825104,-2.579136730764169
386.37931,,0.0,386.416,0.4749999940395355,-2.566079947933273
386.84482799999995,,0.0,386.881,0.49000000953674316,-2.533386570337389
387.310345,,0.0,387.349,0.47200000286102295,-2.572560274071507
387.775862,,0.0,387.815,0.4729999899864197,-2.5703131307377602
388.241379,,0.0,388.275,0.48500001430511475,-2.544076603939884
388.70689699999997,,0.0,388.745,0.4659999907016754,-2.585357040150912
389.172414,,0.0,389.208,0.47999998927116394,-2.5547245891271526
389.637931,,0.0,389.671,0.49000000953674316,-2.532793045419115
390.103448,,0.0,390.142,0.4650000035762787,-2.587104986251943
390.56896600000005,,0.0,390.604,0.47699999809265137,-2.5608029028164987
391.03448299999997,,0.0,391.07,0.4909999966621399,-2.5301441195570247
391.5,,0.0,391.534,0.47600001096725464,-2.562671067754971
391.965517,,0.0,392.0,0.4909999966621399,-2.529848182131652
392.431034,,0.0,392.465,0.4729999899864197,-2.568934653206238
392.896552,,0.0,392.93,0.49000000953674316,-2.53178623250655
393.36206899999996,,0.0,393.39,0.4860000014305115,-2.5404104706901487
393.827586,,0.0,393.856,0.47999998927116394,-2.553415574802852
394.293103,,0.0,394.327,0.4909999966621399,-2.5294091772674157
394.75862099999995,,0.0,394.789,0.4860000014305115,-2.5402876876185863
395.224138,,0.0,395.253,0.46700000762939453,-2.5816944722716713
395.68965499999996,,0.0,395.716,0.47200000286102295,-2.5708411030129446
396.155172,,0.0,396.186,0.4869999885559082,-2.538227205845739
396.62069,,0.0,396.649,0.46399998664855957,-2.5884255205994844
397.086207,,0.0,397.114,0.47600001096725464,-2.562392104977549
397.551724,,0.0,397.577,0.4950000047683716,-2.521125366711094
398.017241,,0.0,398.042,0.4779999852180481,-2.558302533985874
398.48275900000004,,0.0,398.508,0.48899999260902405,-2.5344856564331106
398.94827599999996,,0.0,398.974,0.4729999899864197,-2.5694961247694383
399.413793,,0.0,399.439,0.4699999988079071,-2.5761836803908906
399.87931,,0.0,399.904,0.4830000102519989,-2.548007902967759
400.344828,,0.0,400.371,0.4729999899864197,-2.5699314484834153
400.810345,,0.0,400.837,0.49000000953674316,-2.5330173315389706
401.27586199999996,,0.0,401.297,0.48399999737739563,-2.546194107368349
401.741379,,0.0,401.76,0.5019999742507935,-2.507061648724588
402.206897,,0.0,402.227,0.4790000021457672,-2.5572294592847684
402.672414,,0.0,402.697,0.4779999852180481,-2.5594417420217774
403.137931,,0.0,403.16,0.46399998664855957,-2.5899509640251503
403.60344799999996,,0.0,403.623,0.47200000286102295,-2.572504730106863
404.068966,,0.0,404.089,0.47699999809265137,-2.5615698945853485
404.534483,,0.0,404.553,0.46799999475479126,-2.581112788085117
405.0,,0.0,405.018,0.46700000762939453,-2.5832054546767345
405.465517,,0.0,405.482,0.46399998664855957,-2.5896374646280043
405.931034,,0.0,405.947,0.453000009059906,-2.613484096571966
406.39655200000004,,0.0,406.413,0.47699999809265137,-2.5610672233174476
406.862069,,0.0,406.878,0.48500001430511475,-2.543500866789938
407.327586,,0.0,407.346,0.46399998664855957,-2.5891113620050477
407.793103,,0.0,407.811,0.49000000953674316,-2.532325517134939
408.258621,,0.0,408.275,0.4790000021457672,-2.5561538563854365
408.72413800000004,,0.0,408.737,0.4790000021457672,-2.5560251218473846
409.18965499999996,,0.0,409.205,0.4749999940395355,-2.5646231889788305
409.655172,,0.0,409.667,0.4830000102519989,-2.547093053757521
410.12069,,0.0,410.133,0.47999998927116394,-2.5535465980821597
410.586207,,0.0,410.599,0.4650000035762787,-2.586164989948207
411.05172400000004,,0.0,411.064,0.47699999809265137,-2.559983219448898
411.51724099999996,,0.0,411.531,0.4830000102519989,-2.546897437064955
411.982759,,0.0,411.99,0.492000013589859,-2.5272996031789177
412.448276,,0.0,412.457,0.47699999809265137,-2.560012765191968
412.913793,,0.0,412.922,0.4659999907016754,-2.584034270638416
413.37931,,0.0,413.39,0.48500001430511475,-2.5427178317462347
413.844828,,0.0,413.855,0.45399999618530273,-2.6103532757889605
414.31034500000004,,0.0,414.317,0.48899999260902405,-2.5342143874555347
414.775862,,0.0,414.78,0.4779999852180481,-2.5583059624415676
415.241379,,0.0,415.252,0.4830000102519989,-2.5475475256527753
415.706897,,0.0,415.715,0.4860000014305115,-2.5411508268086713
416.172414,,0.0,416.175,0.47999998927116394,-2.5543620947195533
416.63793100000004,,0.0,416.645,0.4779999852180481,-2.5588549303268007
417.103448,,0.0,417.111,0.49000000953674316,-2.5328387478491856
417.568966,,0.0,417.574,0.4779999852180481,-2.559098435571673
418.034483,,0.0,418.039,0.4819999933242798,-2.550484602407438
418.5,,0.0,418.504,0.47699999809265137,-2.5614607907853824
418.96551700000003,,0.0,418.97,0.47099998593330383,-2.574595660596223
419.43103399999995,,0.0,419.434,0.4659999907016754,-2.585530440207799
419.896552,,0.0,419.9,0.4650000035762787,-2.587728325043587
420.362069,,0.0,420.365,0.46399998664855957,-2.5899035818964586
420.827586,,0.0,420.83,0.47200000286102295,-2.572448213687545
421.293103,,0.0,421.293,0.47200000286102295,-2.5723998042924108
421.758621,,0.0,421.756,0.4779999852180481,-2.559258365701058
422.22413800000004,,0.0,422.226,0.48899999260902405,-2.535204003088203
422.689655,,0.0,422.689,0.4740000069141388,-2.567777206672791
423.15517200000005,,0.0,423.15,0.49399998784065247,-2.5240835393393426
423.62069,,0.0,423.619,0.45899999141693115,-2.6002050360134557
424.086207,,0.0,424.085,0.4779999852180481,-2.55867344467479
424.55172400000004,,0.0,424.55,0.4779999852180481,-2.558534113317565
425.017241,,0.0,425.016,0.4690000116825104,-2.5780044260694424
425.482759,,0.0,425.475,0.4560000002384186,-2.606195915377501
425.948276,,0.0,425.94,0.4699999988079071,-2.5755746007802798
426.413793,,0.0,426.408,0.4749999940395355,-2.5645750308540434
426.87931000000003,,0.0,426.874,0.46799999475479126,-2.5797359181227897
427.344828,,0.0,427.338,0.48399999737739563,-2.5448070280771833
427.810345,,0.0,427.804,0.4099999964237213,-2.7059787042693095
428.275862,,0.0,428.265,0.48100000619888306,-2.551270863307882
428.741379,,0.0,428.735,0.4749999940395355,-2.564343150822239
429.20689699999997,,0.0,429.197,0.4729999899864197,-2.5687237247350643
429.672414,,0.0,429.66,0.453000009059906,-2.61234261626576
430.137931,,0.0,430.125,0.49000000953674316,-2.5317998769733365
430.603448,,0.0,430.596,0.4449999928474426,-2.6299255183509285
431.068966,,0.0,431.062,0.47699999809265137,-2.5603120078230894
431.534483,,0.0,431.526,0.47200000286102295,-2.571322042423007
432.0,,0.0,431.985,0.4790000021457672,-2.5561977913171026
432.46551700000003,,0.0,432.456,0.47200000286102295,-2.5715803464107525
432.931034,,0.0,432.915,0.49000000953674316,-2.532498301680368
433.396552,,0.0,433.38,0.4779999852180481,-2.5587732487460038
433.862069,,0.0,433.846,0.47200000286102295,-2.5719701221440343
434.327586,,0.0,434.316,0.49000000953674316,-2.5328699207474505
434.79310300000003,,0.0,434.778,0.47200000286102295,-2.572188146585543
435.258621,,0.0,435.242,0.492000013589859,-2.5287018296915726
435.724138,,0.0,435.711,0.503000020980835,-2.5048045825736276
436.189655,,0.0,436.175,0.4880000054836273,-2.537531239448514
436.655172,,0.0,436.637,0.46700000762939453,-2.5833083942168265
437.12068999999997,,0.0,437.103,0.4740000069141388,-2.568062510415832
437.586207,,0.0,437.567,0.4830000102519989,-2.5484385619313716
438.051724,,0.0,438.033,0.5049999952316284,-2.500471300001018
438.517241,,0.0,438.497,0.46799999475479126,-2.5810244188550127
438.982759,,0.0,438.963,0.4749999940395355,-2.565699808336882
439.448276,,0.0,439.431,0.4650000035762787,-2.587398011729187
439.913793,,0.0,439.896,0.4880000054836273,-2.537189112397301
440.37931000000003,,0.0,440.357,0.4749999940395355,-2.565402458756716
440.844828,,0.0,440.822,0.46700000762939453,-2.5827167339041486
441.310345,,0.0,441.286,0.4659999907016754,-2.5847786082152067
441.775862,,0.0,441.756,0.46399998664855957,-2.5890206736381494
442.241379,,0.0,442.216,0.4830000102519989,-2.547515498728559
442.70689699999997,,0.0,442.686,0.4740000069141388,-2.5670194644653206
443.172414,,0.0,443.146,0.492000013589859,-2.527709142706474
443.637931,,0.0,443.615,0.4819999933242798,-2.5494124347436107
444.103448,,0.0,444.081,0.49000000953674316,-2.531913329834434
444.568966,,0.0,444.541,0.5009999871253967,-2.5078931482475415
445.03448299999997,,0.0,445.007,0.4729999899864197,-2.5688563261250557
445.5,,0.0,445.472,0.4749999940395355,-2.564477846169366
445.965517,,0.0,445.938,0.4699999988079071,-2.5753687099315545
446.431034,,0.0,446.405,0.4959999918937683,-2.5187398479283316
446.896552,,0.0,446.871,0.47699999809265137,-2.560167436632432
447.36206899999996,,0.0,447.331,0.49900001287460327,-2.5122864289761515
447.827586,,0.0,447.8,0.4790000021457672,-2.555923253810005
448.29310300000003,,0.0,448.264,0.4000000059604645,-2.7281148749364896
448.758621,,0.0,448.727,0.47200000286102295,-2.5713447646545577
449.224138,,0.0,449.19,0.47099998593330383,-2.573626487628879
449.689655,,0.0,449.659,0.45100000500679016,-2.617308932760325
450.155172,,0.0,450.125,0.46700000762939453,-2.582563780503464
450.62068999999997,,0.0,450.589,0.4650000035762787,-2.587034574033011
451.086207,,0.0,451.054,0.5049999952316284,-2.499998068176593
451.551724,,0.0,451.519,0.46399998664855957,-2.589424251857682
452.017241,,0.0,451.984,0.4860000014305115,-2.541585068875757
452.482759,,0.0,452.449,0.4620000123977661,-2.593951189264769
452.94827599999996,,0.0,452.914,0.47200000286102295,-2.5722288473741304
453.413793,,0.0,453.379,0.4690000116825104,-2.5788128684261697
453.87931,,0.0,453.845,0.4699999988079071,-2.5766649391807417
454.344828,,0.0,454.308,0.46299999952316284,-2.591928155328758
454.810345,,0.0,454.77,0.47999998927116394,-2.554885464631056
455.27586199999996,,0.0,455.238,0.4880000054836273,-2.537431822494293
455.741379,,0.0,455.7,0.4650000035762787,-2.587498236771515
456.206897,,0.0,456.171,0.4690000116825104,-2.578724971966187
456.672414,,0.0,456.634,0.49000000953674316,-2.532900252792285
457.137931,,0.0,457.1,0.4620000123977661,-2.5938167641369634
457.603448,,0.0,457.565,0.47600001096725464,-2.563220399345047
458.06896600000005,,0.0,458.031,0.5009999871253967,-2.508651678112831
458.53448299999997,,0.0,458.49,0.47200000286102295,-2.5717250363224045
459.0,,0.0,458.955,0.49000000953674316,-2.5324004638049065
459.465517,,0.0,459.423,0.4740000069141388,-2.567151937704238
459.931034,,0.0,459.889,0.4830000102519989,-2.547442371652509
460.39655200000004,,0.0,460.356,0.47600001096725464,-2.562599494252592
460.86206899999996,,0.0,460.822,0.4779999852180481,-2.558159925850196
461.327586,,0.0,461.283,0.46399998664855957,-2.5885925025558376
461.793103,,0.0,461.745,0.4779999852180481,-2.558038924468887
462.258621,,0.0,462.216,0.4659999907016754,-2.5841476709875475
462.724138,,0.0,462.678,0.4659999907016754,-2.584131226424034
463.18965499999996,,0.0,463.142,0.42500001192092896,-2.673459298634103
463.655172,,0.0,463.612,0.49000000953674316,-2.5318705914547097
464.12069,,0.0,464.07,0.5109999775886536,-2.486159532829922
464.58620699999994,,0.0,464.541,0.460999995470047,-2.5951470095519853
465.051724,,0.0,465.0,0.47600001096725464,-2.562536251511048
465.517241,,0.0,465.465,0.503000020980835,-2.5037933744739447
465.98275900000004,,0.0,465.93,0.4819999933242798,-2.5496340246294222
466.448276,,0.0,466.397,0.46799999475479126,-2.5802302237133903
466.913793,,0.0,466.863,0.46399998664855957,-2.5890442953281902
467.37931,,0.0,467.33,0.46399998664855957,-2.589145591815554
467.844828,,0.0,467.793,0.46299999952316284,-2.5914244734363012
468.31034500000004,,0.0,468.256,0.4860000014305115,-2.5414114279690394
468.77586199999996,,0.0,468.726,0.4779999852180481,-2.558928684622768
469.241379,,0.0,469.19,0.47999998927116394,-2.554648829713579
469.706897,,0.0,469.652,0.47999998927116394,-2.5547135826620284
470.172414,,0.0,470.118,0.4779999852180481,-2.5591211464134545
470.63793100000004,,0.0,470.58,0.49000000953674316,-2.5330115675004876
471.10344799999996,,0.0,471.046,0.4699999988079071,-2.5766019613780213
471.568966,,0.0,471.513,0.48399999737739563,-2.546101310095396
472.034483,,0.0,471.978,0.48500001430511475,-2.543906113349918
472.5,,0.0,472.445,0.47099998593330383,-2.5743744490322165
472.965517,,0.0,472.911,0.4749999940395355,-2.565612302108462
473.43103399999995,,0.0,473.371,0.49000000953674316,-2.5328716866952647
473.89655200000004,,0.0,473.837,0.49000000953674316,-2.5327988460395687
474.362069,,0.0,474.301,0.47999998927116394,-2.5545027481094125
474.827586,,0.0,474.771,0.47699999809265137,-2.5609492574466977
475.293103,,0.0,475.231,0.47200000286102295,-2.571749437776479
475.758621,,0.0,475.7,0.46799999475479126,-2.5803705020484817
476.22413800000004,,0.0,476.164,0.4429999887943268,-2.6347461962169465
476.689655,,0.0,476.627,0.46399998664855957,-2.588910256154172
477.155172,,0.0,477.092,0.46700000762939453,-2.5822981641591287
477.62069,,0.0,477.556,0.46700000762939453,-2.5822318016171213
478.086207,,0.0,478.022,0.45100000500679016,-2.6170354975579637
478.55172400000004,,0.0,478.489,0.48399999737739563,-2.5450983282953703
479.01724099999996,,0.0,478.955,0.47600001096725464,-2.562498752451694
479.482759,,0.0,479.42,0.47200000286102295,-2.571197884212532
479.948276,,0.0,479.886,0.46399998664855957,-2.588625437979133
480.413793,,0.0,480.346,0.4749999940395355,-2.564672287512942
480.87931000000003,,0.0,480.812,0.4050000011920929,-2.7172037740321353
481.344828,,0.0,481.275,0.4790000021457672,-2.5560237592565125
481.810345,,0.0,481.745,0.4950000047683716,-2.521216081728841
482.275862,,0.0,482.205,0.4880000054836273,-2.536524366874947
482.74137900000005,,0.0,482.675,0.47099998593330383,-2.573624581983621
483.206897,,0.0,483.145,0.48399999737739563,-2.54536920264306
483.672414,,0.0,483.601,0.4729999899864197,-2.5694034443988123
484.13793100000004,,0.0,484.066,0.47699999809265137,-2.5607580489012283
484.603448,,0.0,484.531,0.4690000116825104,-2.578254897780691
485.068966,,0.0,484.996,0.49399998784065247,-2.523852870890491
485.534483,,0.0,485.461,0.46700000762939453,-2.5827351194187864
486.0,,0.0,485.927,0.46700000762939453,-2.5827876859783623
486.46551700000003,,0.0,486.394,0.47200000286102295,-2.5719401101624415
486.931034,,0.0,486.859,0.47200000286102295,-2.571977775546989
487.396552,,0.0,487.323,0.46399998664855957,-2.589436073011224
487.862069,,0.0,487.786,0.4779999852180481,-2.5589550813067294
488.327586,,0.0,488.256,0.4729999899864197,-2.56985898463752
488.79310300000003,,0.0,488.719,0.4860000014305115,-2.541537518803732
489.258621,,0.0,489.182,0.4779999852180481,-2.5589581659523866
489.724138,,0.0,489.645,0.48899999260902405,-2.534975272807069
490.189655,,0.0,490.111,0.4740000069141388,-2.5676289165144133
490.655172,,0.0,490.581,0.47600001096725464,-2.563238536122898
491.12069,,0.0,491.047,0.4699999988079071,-2.576271833517363
491.586207,,0.0,491.505,0.47999998927116394,-2.5544424077993377
492.05172400000004,,0.0,491.971,0.4749999940395355,-2.5652894561426822
492.517241,,0.0,492.437,0.4790000021457672,-2.5565266256385017
492.982759,,0.0,492.903,0.47200000286102295,-2.571728263466832
493.448276,,0.0,493.368,0.453000009059906,-2.613074744217613
493.913793,,0.0,493.834,0.47600001096725464,-2.562920540059069
494.37931000000003,,0.0,494.297,0.46399998664855957,-2.5890223492472453
494.844828,,0.0,494.766,0.45100000500679016,-2.6173069888613445
495.310345,,0.0,495.227,0.48500001430511475,-2.543200080278068
495.775862,,0.0,495.697,0.4830000102519989,-2.5475289406200465
496.241379,,0.0,496.16,0.4740000069141388,-2.567112607060454
496.70689699999997,,0.0,496.623,0.46299999952316284,-2.591058620241779
497.172414,,0.0,497.088,0.4690000116825104,-2.577973144331951
497.637931,,0.0,497.553,0.48500001430511475,-2.543106426255706
498.103448,,0.0,498.018,0.4699999988079071,-2.5757825362018383
498.568966,,0.0,498.482,0.4620000123977661,-2.5932129203332845
499.03448299999997,,0.0,498.948,0.4790000021457672,-2.556182016939536
499.5,,0.0,499.412,0.4690000116825104,-2.577978877944203
499.96551700000003,,0.0,499.877,0.47699999809265137,-2.560563941378843
500.431034,,0.0,500.342,0.4699999988079071,-2.5758322083326073
500.89655200000004,,0.0,500.808,0.4959999918937683,-2.5192078228403747
501.362069,,0.0,501.275,0.5009999871253967,-2.5083365448803154
501.827586,,0.0,501.738,0.4659999907016754,-2.5846124135349084
502.293103,,0.0,502.201,0.47699999809265137,-2.5606724244483847
502.758621,,0.0,502.672,0.45100000500679016,-2.617345019856102
503.224138,,0.0,503.13,0.4690000116825104,-2.5781598072133236
503.68965499999996,,0.0,503.601,0.4519999921321869,-2.6152299409166218
504.15517200000005,,0.0,504.066,0.4830000102519989,-2.5477266860351424
504.62068999999997,,0.0,504.531,0.4790000021457672,-2.556476780215702
505.08620699999994,,0.0,504.99,0.46700000762939453,-2.5826558298702973
505.55172400000004,,0.0,505.456,0.46299999952316284,-2.591405496418008
506.017241,,0.0,505.922,0.46799999475479126,-2.5805466999995526
506.48275899999993,,0.0,506.386,0.4790000021457672,-2.5566143030883715
506.948276,,0.0,506.852,0.4830000102519989,-2.5479294009150055
507.413793,,0.0,507.32,0.46399998664855957,-2.5893496704382493
507.87931,,0.0,507.782,0.48500001430511475,-2.5436195201546017
508.344828,,0.0,508.25,0.4690000116825104,-2.578494274554196
508.810345,,0.0,508.712,0.46399998664855957,-2.5893984061138515
509.27586199999996,,0.0,509.175,0.4580000042915344,-2.6024755897265055
509.74137900000005,,0.0,509.645,0.4909999966621399,-2.5305791977304506
510.20689699999997,,0.0,510.11,0.46700000762939453,-2.5828583895503767
510.67241399999995,,0.0,510.573,0.4790000021457672,-2.55669869167407
511.13793100000004,,0.0,511.039,0.46399998664855957,-2.5893552373294195
511.603448,,0.0,511.504,0.4959999918937683,-2.519607812958159
512.0689659999999,,0.0,511.97,0.46700000762939453,-2.582750564300635
512.534483,,0.0,512.434,0.46799999475479126,-2.5805275897204636
513.0,,0.0,512.9,0.4860000014305115,-2.54126223779204
513.465517,,0.0,513.365,0.46399998664855957,-2.589138367927505
513.931034,,0.0,513.831,0.46700000762939453,-2.5825453244441423
514.396552,,0.0,514.294,0.47200000286102295,-2.5715937656552996
514.862069,,0.0,514.756,0.492000013589859,-2.5279620354321137
515.327586,,0.0,515.223,0.5070000290870667,-2.495223615997973
515.793103,,0.0,515.686,0.46799999475479126,-2.580133956400845
516.258621,,0.0,516.157,0.47200000286102295,-2.5713667940540526
516.724138,,0.0,516.619,0.46799999475479126,-2.5800358018719773
517.189655,,0.0,517.085,0.49000000953674316,-2.53206813368407
517.655172,,0.0,517.549,0.46399998664855957,-2.588685182140207
518.1206900000001,,0.0,518.014,0.4880000054836273,-2.5363805289674546
518.5862070000001,,0.0,518.479,0.492000013589859,-2.527660250063621
519.051724,,0.0,518.945,0.45899999141693115,-2.5995621593962746
519.517241,,0.0,519.405,0.45100000500679016,-2.617011557232777
519.982759,,0.0,519.871,0.47200000286102295,-2.571294438714818
520.448276,,0.0,520.335,0.4830000102519989,-2.547376705496692
520.9137929999999,,0.0,520.801,0.45100000500679016,-2.617152669555062
521.37931,,0.0,521.272,0.4880000054836273,-2.536612513563583
521.844828,,0.0,521.733,0.4650000035762787,-2.5867998961394747
522.310345,,0.0,522.201,0.46700000762939453,-2.5825276561106882
522.7758620000001,,0.0,522.664,0.48500001430511475,-2.5434012886034285
523.241379,,0.0,523.13,0.46399998664855957,-2.5892436700786163
523.7068969999999,,0.0,523.593,0.39399999380111694,-2.7418401726276738
524.172414,,0.0,524.059,0.48399999737739563,-2.5458516380215475
524.637931,,0.0,524.524,0.46399998664855957,-2.589508687698563
525.103448,,0.0,524.989,0.5419999957084656,-2.4196468615668905
525.568966,,0.0,525.453,0.49000000953674316,-2.5329940032171443
526.034483,,0.0,525.919,0.4790000021457672,-2.556999689057476
526.5,,0.0,526.386,0.4779999852180481,-2.559201802320774
526.9655170000001,,0.0,526.852,0.47600001096725464,-2.5635645443393975
527.4310340000001,,0.0,527.312,0.47600001096725464,-2.563551641833208
527.8965519999999,,0.0,527.775,0.5249999761581421,-2.4567657186256966
528.362069,,0.0,528.245,0.47699999809265137,-2.5612890548370775
528.827586,,0.0,528.708,0.4880000054836273,-2.5372544967779023
529.293103,,0.0,529.176,0.5009999871253967,-2.5088472244061895
529.7586210000001,,0.0,529.638,0.4880000054836273,-2.537071278800877
530.224138,,0.0,530.103,0.5059999823570251,-2.497746673143303
530.689655,,0.0,530.567,0.47999998927116394,-2.5542753573697583
531.155172,,0.0,531.033,0.4790000021457672,-2.556334903782329
531.62069,,0.0,531.498,0.4970000088214874,-2.5170012377492808
532.086207,,0.0,531.964,0.5009999871253967,-2.5081729412293434
532.5517239999999,,0.0,532.43,0.49000000953674316,-2.5320320010023196
533.017241,,0.0,532.896,0.5009999871253967,-2.5079723265318896
533.482759,,0.0,533.361,0.5019999742507935,-2.5057136607918378
533.9482760000001,,0.0,533.827,0.5139999985694885,-2.4795067552673142
534.413793,,0.0,534.29,0.49000000953674316,-2.531750654983797
534.87931,,0.0,534.752,0.503000020980835,-2.5034062421039827
535.344828,,0.0,535.22,0.515999972820282,-2.475084605586665
535.810345,,0.0,535.682,0.5170000195503235,-2.472928971175217
536.275862,,0.0,536.15,0.5289999842643738,-2.4468301202751572
536.7413789999999,,0.0,536.612,0.5090000033378601,-2.490468745596408
537.206897,,0.0,537.078,0.527999997138977,-2.449159607015476
537.672414,,0.0,537.541,0.5040000081062317,-2.5015498434462997
538.137931,,0.0,538.007,0.531000018119812,-2.4428437957463913
538.6034480000001,,0.0,538.472,0.5170000195503235,-2.4734736819769987
539.0689659999999,,0.0,538.937,0.5429999828338623,-2.416964865343706
539.5344829999999,,0.0,539.405,0.5370000004768372,-2.430175360170863
540.0,,0.0,539.871,0.5460000038146973,-2.4107043044525103
540.465517,,0.0,540.338,0.5260000228881836,-2.4544082889962824
540.931034,,0.0,540.796,0.5419999957084656,-2.419671589085922
541.396552,,0.0,541.264,0.5419999957084656,-2.41977986383315
541.862069,,0.0,541.726,0.5669999718666077,-2.365404472438804
542.327586,,0.0,542.19,0.5540000200271606,-2.3937965496673974
542.7931030000001,,0.0,542.66,0.5669999718666077,-2.365520451799341
543.258621,,0.0,543.126,0.5450000166893005,-2.413472020431676
543.7241379999999,,0.0,543.589,0.5789999961853027,-2.339393704226968
544.189655,,0.0,544.055,0.5839999914169312,-2.3284695887738365
544.655172,,0.0,544.519,0.5789999961853027,-2.339305500945767
545.12069,,0.0,544.985,0.5669999718666077,-2.3653676381677773
545.5862070000001,,0.0,545.449,0.5669999718666077,-2.3652646289795465
546.051724,,0.0,545.915,0.5699999928474426,-2.35860771502219
546.517241,,0.0,546.38,0.574999988079071,-2.34757923836879
546.982759,,0.0,546.846,0.6069999933242798,-2.2777163136136647
547.448276,,0.0,547.308,0.5889999866485596,-2.316778675075726
547.9137929999999,,0.0,547.77,0.5849999785423279,-2.325337838465157
548.3793099999999,,0.0,548.238,0.5699999928474426,-2.3578658145366758
548.844828,,0.0,548.701,0.5730000138282776,-2.3511873704401225
549.310345,,0.0,549.171,0.5879999995231628,-2.31837908116364
549.775862,,0.0,549.634,0.574999988079071,-2.346590730081487
550.241379,,0.0,550.099,0.5920000076293945,-2.3094642099649696
550.706897,,0.0,550.566,0.574999988079071,-2.346436206626943
551.172414,,0.0,551.025,0.578000009059906,-2.339862041285799
551.637931,,0.0,551.497,0.5929999947547913,-2.307172431694462
552.103448,,0.0,551.955,0.5669999718666077,-2.3638361252965927
552.568966,,0.0,552.423,0.5669999718666077,-2.3638838491933845
553.034483,,0.0,552.889,0.5669999718666077,-2.3639596654476103
553.5,,0.0,553.354,0.5669999718666077,-2.3640612721602774
553.965517,,0.0,553.82,0.5759999752044678,-2.344577469810696
554.4310340000001,,0.0,554.282,0.5799999833106995,-2.336004983485708
554.896552,,0.0,554.745,0.5669999718666077,-2.364483012515199
555.3620689999999,,0.0,555.213,0.5820000171661377,-2.331967267694455
555.827586,,0.0,555.675,0.5730000138282776,-2.351742238707261
556.293103,,0.0,556.145,0.5680000185966492,-2.3628002908630967
556.758621,,0.0,556.608,0.5920000076293945,-2.31066970970906
557.224138,,0.0,557.074,0.5630000233650208,-2.373994160697901
557.689655,,0.0,557.539,0.5519999861717224,-2.3980857537706064
558.155172,,0.0,558.004,0.5809999704360962,-2.3350101672738797
558.6206900000001,,0.0,558.471,0.5529999732971191,-2.3960923816537343
559.0862070000001,,0.0,558.936,0.5540000200271606,-2.393966129788465
559.5517239999999,,0.0,559.401,0.5680000185966492,-2.363488217127232
560.017241,,0.0,559.867,0.5860000252723694,-2.3242643972217745
560.482759,,0.0,560.33,0.6060000061988831,-2.2806506611839317
560.948276,,0.0,560.793,0.5669999718666077,-2.365545266368305
561.413793,,0.0,561.261,0.574999988079071,-2.348014317305462
561.87931,,0.0,561.723,0.527999997138977,-2.4502845862337645
562.344828,,0.0,562.186,0.5180000066757202,-2.4719260444015805
562.8103450000001,,0.0,562.656,0.5239999890327454,-2.458696028034357
563.275862,,0.0,563.122,0.5180000066757202,-2.471601526215172
563.7413789999999,,0.0,563.585,0.5339999794960022,-2.4365735375652107
564.206897,,0.0,564.05,0.5189999938011169,-2.469085232007835
564.672414,,0.0,564.516,0.5419999957084656,-2.4188148403022955
565.137931,,0.0,564.981,0.5009999871253967,-2.5079896275691853
565.603448,,0.0,565.445,0.49399998784065247,-2.5231076409674795
566.068966,,0.0,565.911,0.49399998784065247,-2.522997357205292
566.534483,,0.0,566.376,0.503000020980835,-2.503304504557202
567.0,,0.0,566.835,0.48899999260902405,-2.53374827935478
567.465517,,0.0,567.305,0.48899999260902405,-2.5337202027329466
567.931034,,0.0,567.768,0.5090000033378601,-2.4901487332561634
568.396552,,0.0,568.231,0.5400000214576721,-2.422639875146609
568.862069,,0.0,568.7,0.5,-2.5098408245270685
569.327586,,0.0,569.161,0.48399999737739563,-2.5447788934462046
569.793103,,0.0,569.63,0.4819999933242798,-2.5492391713435554
570.2586210000001,,0.0,570.096,0.46700000762939453,-2.582042252335287
570.724138,,0.0,570.56,0.4790000021457672,-2.5560384405726717
571.189655,,0.0,571.026,0.47200000286102295,-2.5714408046299377
571.655172,,0.0,571.486,0.48899999260902405,-2.5345621214275313
572.12069,,0.0,571.952,0.4860000014305115,-2.541257204567765
572.586207,,0.0,572.417,0.4779999852180481,-2.5588411391309918
573.051724,,0.0,572.882,0.4880000054836273,-2.5372000069275447
573.517241,,0.0,573.349,0.47200000286102295,-2.5721899077855896
573.982759,,0.0,573.815,0.49000000953674316,-2.533087715339492
574.4482760000001,,0.0,574.275,0.4779999852180481,-2.559323364624269
574.913793,,0.0,574.745,0.4779999852180481,-2.559390766268115
575.37931,,0.0,575.208,0.46700000762939453,-2.5833972941903407
575.844828,,0.0,575.671,0.49000000953674316,-2.5333026697344794
576.310345,,0.0,576.142,0.492000013589859,-2.528931609589551
576.775862,,0.0,576.604,0.460999995470047,-2.5964287097548717
577.241379,,0.0,577.07,0.46700000762939453,-2.583290990257098
577.706897,,0.0,577.535,0.46399998664855957,-2.5897392155118566
578.172414,,0.0,578.0,0.4659999907016754,-2.585275152835682
578.6379310000001,,0.0,578.46,0.46700000762939453,-2.5829742766129042
579.1034480000001,,0.0,578.926,0.4620000123977661,-2.593733947652513
579.5689659999999,,0.0,579.39,0.46399998664855957,-2.5892362554812984
580.034483,,0.0,579.856,0.4650000035762787,-2.586914761700841
580.5,,0.0,580.327,0.48399999737739563,-2.545379395158171
580.965517,,0.0,580.79,0.49399998784065247,-2.5234571827719248
581.431034,,0.0,581.253,0.47699999809265137,-2.560367624380681
581.896552,,0.0,581.715,0.47600001096725464,-2.562433291116399
582.362069,,0.0,582.183,0.46299999952316284,-2.5906605587276412
582.827586,,0.0,582.645,0.45899999141693115,-2.5993012621727365
583.2931030000001,,0.0,583.11,0.4830000102519989,-2.5469631924552276
583.758621,,0.0,583.581,0.4659999907016754,-2.5839742383937327
584.2241379999999,,0.0,584.047,0.46399998664855957,-2.588330809335075
584.689655,,0.0,584.507,0.46299999952316284,-2.590534240124895
585.155172,,0.0,584.973,0.46299999952316284,-2.590583672388691
585.6206900000001,,0.0,585.438,0.45899999141693115,-2.599370634158089
586.0862070000001,,0.0,585.903,0.45100000500679016,-2.6168928129084623
586.551724,,0.0,586.368,0.44699999690055847,-2.6257183356672895
587.017241,,0.0,586.834,0.46799999475479126,-2.5800916013665054
587.482759,,0.0,587.297,0.47600001096725464,-2.5627961255148346
587.948276,,0.0,587.767,0.45399999618530273,-2.6108642417549697
588.4137929999999,,0.0,588.227,0.4729999899864197,-2.5696074625150587
588.87931,,0.0,588.697,0.4620000123977661,-2.5937051676557483
589.344828,,0.0,589.16,0.4560000002384186,-2.6069005604781763
589.810345,,0.0,589.623,0.46700000762939453,-2.5830459108950934
590.2758620000001,,0.0,590.089,0.47600001096725464,-2.5635315466887807
590.741379,,0.0,590.553,0.45399999618530273,-2.611535199677787
591.2068969999999,,0.0,591.019,0.47600001096725464,-2.5636560199498035
591.672414,,0.0,591.486,0.46299999952316284,-2.5920057130127163
592.137931,,0.0,591.945,0.47600001096725464,-2.5636856766020872
592.603448,,0.0,592.412,0.45399999618530273,-2.61159390806914
593.068966,,0.0,592.878,0.46799999475479126,-2.5810474845026725
593.534483,,0.0,593.343,0.47699999809265137,-2.5613724726737503
594.0,,0.0,593.808,0.45100000500679016,-2.617930671122699
594.4655170000001,,0.0,594.271,0.460999995470047,-2.59604171616426
594.9310340000001,,0.0,594.741,0.4650000035762787,-2.5872124101261647
595.3965519999999,,0.0,595.204,0.382999986410141,-2.765739923019897
595.862069,,0.0,595.667,0.46299999952316284,-2.5913247245565803
596.327586,,0.0,596.133,0.46299999952316284,-2.5912026177574297
596.793103,,0.0,596.599,0.45100000500679016,-2.617228087238273
597.2586210000001,,0.0,597.064,0.4620000123977661,-2.593152445667999
597.724138,,0.0,597.531,0.46399998664855957,-2.588695816376768
598.189655,,0.0,597.996,0.47999998927116394,-2.5537516626849146
598.655172,,0.0,598.461,0.4339999854564667,-2.6539002849281546
599.12069,,0.0,598.92,0.4749999940395355,-2.5645256718926523
599.586207,,0.0,599.386,0.453000009059906,-2.612426425429998
600.0517239999999,,0.0,599.852,0.47200000286102295,-2.5710235748199657
600.517241,,0.0,600.315,0.4790000021457672,-2.5557851522341988
600.982759,,0.0,600.785,0.4880000054836273,-2.5362087472214423
601.448276,,0.0,601.245,0.46399998664855957,-2.588545999368431
601.913793,,0.0,601.715,0.46799999475479126,-2.579898187879001
602.37931,,0.0,602.176,0.4659999907016754,-2.5843376194503285
602.844828,,0.0,602.646,0.45100000500679016,-2.6171123891351455
603.310345,,0.0,603.105,0.4790000021457672,-2.556215223050333
603.775862,,0.0,603.575,0.4620000123977661,-2.593363360517658
604.2413789999999,,0.0,604.04,0.46399998664855957,-2.5891198759855274
604.706897,,0.0,604.504,0.46799999475479126,-2.58051819934393
605.172414,,0.0,604.97,0.46700000762939453,-2.5828051861137356
605.637931,,0.0,605.435,0.47200000286102295,-2.572012190120333
606.1034480000001,,0.0,605.9,0.4729999899864197,-2.569922351423131
606.5689659999999,,0.0,606.36,0.4790000021457672,-2.5569247549766723
607.0344829999999,,0.0,606.826,0.4860000014305115,-2.5417314382930387
607.5,,0.0,607.29,0.4519999921321869,-2.615844232055284
607.965517,,0.0,607.759,0.46700000762939453,-2.5831844147081435
608.431034,,0.0,608.22,0.4490000009536743,-2.6224012519586664
608.896552,,0.0,608.689,0.4560000002384186,-2.6071333799966805
609.362069,,0.0,609.153,0.44699999690055847,-2.626706324587534
609.827586,,0.0,609.615,0.46799999475479126,-2.5809031875843744
610.293103,,0.0,610.081,0.43799999356269836,-2.646196151903781
610.758621,,0.0,610.546,0.3529999852180481,-2.8313042331095555
611.2241379999999,,0.0,611.011,0.46399998664855957,-2.5893904160184325
611.689655,,0.0,611.479,0.45500001311302185,-2.6089078216487085
612.155172,,0.0,611.945,0.4909999966621399,-2.5303795899441495
612.62069,,0.0,612.412,0.45899999141693115,-2.5999951274990925
613.0862070000001,,0.0,612.87,0.47600001096725464,-2.5628555640098396
613.551724,,0.0,613.342,0.45500001311302185,-2.608506824722725
614.017241,,0.0,613.8,0.49000000953674316,-2.5321586363542687
614.4827590000001,,0.0,614.268,0.45899999141693115,-2.5996087518889377
614.948276,,0.0,614.73,0.46700000762939453,-2.582101941822124
615.4137929999999,,0.0,615.201,0.4560000002384186,-2.6060028919239793
615.8793099999999,,0.0,615.663,0.45399999618530273,-2.6103117034798418
616.344828,,0.0,616.129,0.4959999918937683,-2.5187767362649636
616.810345,,0.0,616.593,0.4490000009536743,-2.621158753413972
617.275862,,0.0,617.059,0.45100000500679016,-2.6168057495021335
617.741379,,0.0,617.524,0.4519999921321869,-2.6146510517566397
618.206897,,0.0,617.989,0.45899999141693115,-2.599443287071243
618.672414,,0.0,618.45,0.44699999690055847,-2.625647491383823
619.137931,,0.0,618.916,0.4490000009536743,-2.621366825805922
619.603448,,0.0,619.382,0.45399999618530273,-2.6105642662639794
620.068966,,0.0,619.848,0.4690000116825104,-2.5779859979178057
620.534483,,0.0,620.31,0.46000000834465027,-2.59770263744084
621.0,,0.0,620.78,0.44600000977516174,-2.6283168242294033
621.465517,,0.0,621.242,0.44999998807907104,-2.6197168584532724
621.9310340000001,,0.0,621.712,0.43799999356269836,-2.645973511003863
622.396552,,0.0,622.175,0.5059999823570251,-2.4979321288771956
622.862069,,0.0,622.637,0.45899999141693115,-2.600424437640733
623.327586,,0.0,623.103,0.4490000009536743,-2.622293468487941
623.793103,,0.0,623.567,0.44200000166893005,-2.6376121097227587
624.258621,,0.0,624.033,0.4429999887943268,-2.6354853783401975
624.724138,,0.0,624.497,0.4339999854564667,-2.655127447815962
625.189655,,0.0,624.963,0.43799999356269836,-2.646428393873959
625.655172,,0.0,625.428,0.45500001311302185,-2.6093872099980895
626.1206900000001,,0.0,625.893,0.3720000088214874,-2.7901920364012076
626.5862070000001,,0.0,626.36,0.45899999141693115,-2.600609101795467
627.0517239999999,,0.0,626.826,0.42899999022483826,-2.6659103833358606
627.5172409999999,,0.0,627.29,0.46399998664855957,-2.5895819642138282
627.982759,,0.0,627.752,0.5090000033378601,-2.491449833344676
628.448276,,0.0,628.216,0.4169999957084656,-2.6917774315833842
628.913793,,0.0,628.686,0.4490000009536743,-2.6219423194421982
629.37931,,0.0,629.149,0.4429999887943268,-2.634889837254344
629.844828,,0.0,629.612,0.49000000953674316,-2.532365236135231
630.3103450000001,,0.0,630.077,0.44699999690055847,-2.6259185466272563
630.7758620000001,,0.0,630.542,0.4440000057220459,-2.632330042987914
631.2413789999999,,0.0,631.008,0.45100000500679016,-2.6169640190262675
631.706897,,0.0,631.475,0.4399999976158142,-2.640826393722546
632.172414,,0.0,631.94,0.4300000071525574,-2.662526652020187
632.637931,,0.0,632.405,0.45100000500679016,-2.6167084898890884
633.103448,,0.0,632.871,0.4390000104904175,-2.642807376812363
633.568966,,0.0,633.338,0.46000000834465027,-2.5970338452598325
634.034483,,0.0,633.797,0.45100000500679016,-2.61664338693472
634.5,,0.0,634.26,0.45399999618530273,-2.6101329209928377
634.9655170000001,,0.0,634.73,0.45100000500679016,-2.6167177666765706
635.431034,,0.0,635.191,0.48399999737739563,-2.544893019826587
635.8965519999999,,0.0,635.66,0.4300000071525574,-2.6626304800578193
636.362069,,0.0,636.126,0.4099999964237213,-2.706313019349632
636.827586,,0.0,636.589,0.4429999887943268,-2.634544310039533
637.293103,,0.0,637.055,0.46799999475479126,-2.580216893090838
637.7586210000001,,0.0,637.521,0.4429999887943268,-2.634828846396742
638.224138,,0.0,637.987,0.453000009059906,-2.6131907596210806
638.689655,,0.0,638.446,0.45399999618530273,-2.611158841061632
639.155172,,0.0,638.912,0.4440000057220459,-2.6330856639020856
639.62069,,0.0,639.378,0.42500001192092896,-2.6746102665278055
640.086207,,0.0,639.844,0.45899999141693115,-2.6006525157677496
640.551724,,0.0,640.312,0.46000000834465027,-2.598571335645628
641.017241,,0.0,640.774,0.4490000009536743,-2.6226114590457725
641.482759,,0.0,641.235,0.4560000002384186,-2.6074109769969875
641.9482760000001,,0.0,641.705,0.43799999356269836,-2.6466502393141136
642.413793,,0.0,642.168,0.4659999907016754,-2.58564407437817
642.87931,,0.0,642.63,0.44600000977516174,-2.6291849063465325
643.344828,,0.0,643.095,0.44600000977516174,-2.629125553388476
643.810345,,0.0,643.566,0.453000009059906,-2.613790170079992
644.275862,,0.0,644.025,0.45100000500679016,-2.6180392455229073
644.7413789999999,,0.0,644.492,0.4819999933242798,-2.5503719650977676
645.206897,,0.0,644.957,0.4339999854564667,-2.654800583194028
645.672414,,0.0,645.424,0.43700000643730164,-2.6481062022282784
646.1379310000001,,0.0,645.89,0.4410000145435333,-2.639226896042945
646.6034480000001,,0.0,646.356,0.44699999690055847,-2.6259887603090037
647.0689659999999,,0.0,646.815,0.43799999356269836,-2.645433734939555
647.534483,,0.0,647.286,0.4519999921321869,-2.6147781966297847
648.0,,0.0,647.748,0.5289999842643738,-2.4468792452199772
648.465517,,0.0,648.216,0.3840000033378601,-2.76265599385091
648.931034,,0.0,648.678,0.4440000057220459,-2.631832368374025
649.396552,,0.0,649.142,0.43799999356269836,-2.6448263963900716
649.862069,,0.0,649.612,0.4399999976158142,-2.640419701955962
650.327586,,0.0,650.07,0.4399999976158142,-2.640400648289215
650.7931030000001,,0.0,650.541,0.45899999141693115,-2.599018061134215
651.258621,,0.0,651.0,0.4300000071525574,-2.6622411040278933
651.7241379999999,,0.0,651.465,0.4390000104904175,-2.6427055232069137
652.189655,,0.0,651.93,0.4490000009536743,-2.621019350132752
652.655172,,0.0,652.397,0.4129999876022339,-2.699576297175637
653.12069,,0.0,652.863,0.4620000123977661,-2.592969726243126
653.5862070000001,,0.0,653.33,0.44699999690055847,-2.6258131994138716
654.051724,,0.0,653.793,0.45100000500679016,-2.6172732520685615
654.517241,,0.0,654.256,0.42100000381469727,-2.68281368385331
654.982759,,0.0,654.726,0.46299999952316284,-2.591492312928952
655.448276,,0.0,655.187,0.4390000104904175,-2.6439564435945693
655.9137929999999,,0.0,655.656,0.4659999907016754,-2.585298263705784
656.37931,,0.0,656.115,0.46299999952316284,-2.591982498624888
656.844828,,0.0,656.585,0.4569999873638153,-2.60518074314812
657.310345,,0.0,657.051,0.4659999907016754,-2.5856733312524667
657.7758620000001,,0.0,657.516,0.4359999895095825,-2.6511045011884695
658.241379,,0.0,657.975,0.44699999690055847,-2.6271807247634134
658.7068969999999,,0.0,658.442,0.4399999976158142,-2.6424412351974977
659.172414,,0.0,658.908,0.45500001311302185,-2.6097393583194926
659.637931,,0.0,659.375,0.45500001311302185,-2.6096853003344034
660.103448,,0.0,659.841,0.4429999887943268,-2.635744619058078
660.568966,,0.0,660.301,0.4620000123977661,-2.594237830107777
661.034483,,0.0,660.771,0.453000009059906,-2.6137084571802354
661.5,,0.0,661.234,0.4519999921321869,-2.615729265065619
661.965517,,0.0,661.696,0.45100000500679016,-2.617734410845853
662.4310340000001,,0.0,662.164,0.4690000116825104,-2.578334697842922
662.8965519999999,,0.0,662.626,0.44999998807907104,-2.6195399365585765
663.362069,,0.0,663.092,0.46299999952316284,-2.5910292177848953
663.827586,,0.0,663.556,0.46399998664855957,-2.5886689973788246
664.293103,,0.0,664.021,0.45399999618530273,-2.6102861734385527
664.7586210000001,,0.0,664.487,0.45500001311302185,-2.6079562310012214
665.224138,,0.0,664.952,0.45899999141693115,-2.5991134039726767
665.689655,,0.0,665.419,0.45100000500679016,-2.616441421051795
666.155172,,0.0,665.885,0.45100000500679016,-2.616370968235441
666.62069,,0.0,666.349,0.46399998664855957,-2.5880111044247713
667.086207,,0.0,666.815,0.4480000138282776,-2.6228661328009975
667.5517239999999,,0.0,667.275,0.46399998664855957,-2.5880390204375487
668.017241,,0.0,667.745,0.47999998927116394,-2.5532449776378328
668.482759,,0.0,668.205,0.47600001096725464,-2.5620543798949202
668.948276,,0.0,668.675,0.4129999876022339,-2.699432974033068
669.413793,,0.0,669.145,0.45100000500679016,-2.6167947612566795
669.87931,,0.0,669.6,0.4410000145435333,-2.638753970815308
670.3448279999999,,0.0,670.066,0.43700000643730164,-2.6476579799378372
670.810345,,0.0,670.53,0.43799999356269836,-2.645679815326727
671.275862,,0.0,670.996,0.4690000116825104,-2.578346293792382
671.7413789999999,,0.0,671.462,0.4779999852180481,-2.55893947503433
672.206897,,0.0,671.928,0.4490000009536743,-2.6223107623233637
672.672414,,0.0,672.397,0.49799999594688416,-2.5157308867359416
673.137931,,0.0,672.855,0.45100000500679016,-2.6182787577181643
673.6034480000001,,0.0,673.323,0.46399998664855957,-2.590080935005307
674.068966,,0.0,673.785,0.45500001311302185,-2.6097830556774935
674.5344829999999,,0.0,674.256,0.45100000500679016,-2.6185588665427932
675.0,,0.0,674.719,0.46000000834465027,-2.598977184641695
675.465517,,0.0,675.182,0.46299999952316284,-2.592431126873612
675.931034,,0.0,675.645,0.45899999141693115,-2.6010992943515316
676.396552,,0.0,676.111,0.44999998807907104,-2.620625974642109
676.862069,,0.0,676.581,0.46700000762939453,-2.583475523805563
677.327586,,0.0,677.047,0.4560000002384186,-2.6072982934768865
677.793103,,0.0,677.512,0.45100000500679016,-2.6180246840509755
678.2586210000001,,0.0,677.97,0.44699999690055847,-2.6265536179232725
678.7241379999999,,0.0,678.438,0.4560000002384186,-2.606747076088623
679.1896549999999,,0.0,678.904,0.45500001311302185,-2.6087199152653824
679.655172,,0.0,679.369,0.4650000035762787,-2.5867266527681667
680.12069,,0.0,679.834,0.46000000834465027,-2.597418283315178
680.5862070000001,,0.0,680.297,0.46299999952316284,-2.5906922064973004
681.051724,,0.0,680.767,0.44600000977516174,-2.6275568321209684
681.517241,,0.0,681.227,0.4519999921321869,-2.6143362846873006
681.9827590000001,,0.0,681.696,0.46000000834465027,-2.596786748326544
682.448276,,0.0,682.16,0.44699999690055847,-2.625020982250497
682.9137929999999,,0.0,682.622,0.4429999887943268,-2.633682719128852
683.3793099999999,,0.0,683.088,0.4440000057220459,-2.63148863738412
683.844828,,0.0,683.553,0.4300000071525574,-2.6620126721266533
684.310345,,0.0,684.018,0.45100000500679016,-2.616321780627159
684.775862,,0.0,684.486,0.4699999988079071,-2.575023224708772
685.241379,,0.0,684.952,0.45100000500679016,-2.616544604689187
685.706897,,0.0,685.417,0.3970000147819519,-2.734347395379271
686.172414,,0.0,685.882,0.46399998664855957,-2.588558639799453
686.637931,,0.0,686.342,0.49900001287460327,-2.5125035986588005
687.103448,,0.0,686.807,0.45100000500679016,-2.61728565872659
687.5689659999999,,0.0,687.271,0.4410000145435333,-2.6392829851188413
688.034483,,0.0,687.741,0.46399998664855957,-2.589383185201275
688.5,,0.0,688.204,0.45500001311302185,-2.6091912048834263
688.965517,,0.0,688.667,0.45500001311302185,-2.6093762389232174
689.4310340000001,,0.0,689.133,0.4490000009536743,-2.6226124885335182
689.896552,,0.0,689.599,0.46299999952316284,-2.592249847650874
690.362069,,0.0,690.065,0.43799999356269836,-2.646824381542339
690.827586,,0.0,690.531,0.4399999976158142,-2.6425424553156507
691.293103,,0.0,690.996,0.4560000002384186,-2.607724248294039
691.758621,,0.0,691.456,0.460999995470047,-2.5968339761328276
692.224138,,0.0,691.922,0.4659999907016754,-2.585905766276172
692.689655,,0.0,692.39,0.4650000035762787,-2.588012283174162
693.155172,,0.0,692.856,0.4659999907016754,-2.5857266101640164
693.6206900000001,,0.0,693.319,0.4490000009536743,-2.622625303882612
694.0862070000001,,0.0,693.782,0.46399998664855957,-2.589780719982323
694.551724,,0.0,694.249,0.45100000500679016,-2.6179169052101137
695.0172409999999,,0.0,694.712,0.45500001311302185,-2.6090007593327376
695.482759,,0.0,695.175,0.4519999921321869,-2.6153264259320754
695.948276,,0.0,695.645,0.4429999887943268,-2.634722000752356
696.4137929999999,,0.0,696.11,0.46399998664855957,-2.588762836885306
696.87931,,0.0,696.573,0.4429999887943268,-2.6343179763772717
697.344828,,0.0,697.039,0.46399998664855957,-2.5883870757515903
697.8103450000001,,0.0,697.505,0.45500001311302185,-2.607838211189868
698.2758620000001,,0.0,697.971,0.4740000069141388,-2.566314366874233
698.741379,,0.0,698.43,0.4519999921321869,-2.614146235041666
699.206897,,0.0,698.896,0.4410000145435333,-2.638047745588645
699.672414,,0.0,699.361,0.4390000104904175,-2.6423792133124127
700.137931,,0.0,699.826,0.44999998807907104,-2.6184269028221374
700.603448,,0.0,700.294,0.45100000500679016,-2.616298788985825
701.068966,,0.0,700.757,0.47600001096725464,-2.5619185524820605
701.534483,,0.0,701.22,0.44600000977516174,-2.627396327657548
702.0,,0.0,701.689,0.45100000500679016,-2.616650481895813
702.4655170000001,,0.0,702.153,0.45100000500679016,-2.616822674027591
702.931034,,0.0,702.615,0.460999995470047,-2.595227463579157
703.3965519999999,,0.0,703.081,0.47200000286102295,-2.571466006104079
703.862069,,0.0,703.549,0.46000000834465027,-2.5978191275121265
704.327586,,0.0,704.014,0.45500001311302185,-2.608921112819743
704.793103,,0.0,704.479,0.4560000002384186,-2.6069445073071935
705.2586210000001,,0.0,704.945,0.46399998664855957,-2.589704217919551
705.724138,,0.0,705.405,0.46700000762939453,-2.583337693429545
706.189655,,0.0,705.87,0.45100000500679016,-2.6183409226596175
706.6551720000001,,0.0,706.342,0.4699999988079071,-2.5770625139402488
707.12069,,0.0,706.8,0.45100000500679016,-2.6185402108438853
707.586207,,0.0,707.268,0.45100000500679016,-2.6185888697519797
708.051724,,0.0,707.73,0.46399998664855957,-2.59027907591959
708.517241,,0.0,708.198,0.453000009059906,-2.614220113614954
708.982759,,0.0,708.661,0.453000009059906,-2.6141603807943516
709.4482760000001,,0.0,709.126,0.45100000500679016,-2.61842444295247
709.913793,,0.0,709.59,0.45100000500679016,-2.6183007137254335
710.37931,,0.0,710.056,0.46000000834465027,-2.5985424058580477
710.844828,,0.0,710.52,0.44600000977516174,-2.6288709369453196
711.310345,,0.0,710.986,0.4620000123977661,-2.593823328147951
711.775862,,0.0,711.453,0.45100000500679016,-2.617588366884326
712.2413789999999,,0.0,711.918,0.45500001311302185,-2.608668984316559
712.706897,,0.0,712.383,0.46000000834465027,-2.597572646978303
713.172414,,0.0,712.849,0.47600001096725464,-2.5625185524616745
713.637931,,0.0,713.312,0.4519999921321869,-2.6146237060095587
714.1034480000001,,0.0,713.775,0.46700000762939453,-2.581780693711441
714.5689659999999,,0.0,714.245,0.4729999899864197,-2.5685696935386626
715.034483,,0.0,714.708,0.460999995470047,-2.5946025036330784
715.5,,0.0,715.176,0.45500001311302185,-2.607595517669954
715.965517,,0.0,715.637,0.46299999952316284,-2.5901224475732008
716.431034,,0.0,716.103,0.4569999873638153,-2.603186749997477
716.896552,,0.0,716.567,0.46299999952316284,-2.5901437506540814
717.362069,,0.0,717.032,0.4490000009536743,-2.620709604451183
717.827586,,0.0,717.497,0.3790000081062317,-2.7733153932420116
718.2931030000001,,0.0,717.962,0.45899999141693115,-2.599157678917142
718.758621,,0.0,718.427,0.4429999887943268,-2.634178416874866
719.2241379999999,,0.0,718.892,0.46700000762939453,-2.582074723524831
719.689655,,0.0,719.357,0.4729999899864197,-2.569201759759243
720.155172,,0.0,719.823,0.4729999899864197,-2.5694085822778145
720.62069,,0.0,720.286,0.4410000145435333,-2.639333970984948
721.0862070000001,,0.0,720.756,0.460999995470047,-2.5959657608678293
721.551724,,0.0,721.216,0.4659999907016754,-2.585266614307061
722.017241,,0.0,721.687,0.4490000009536743,-2.6224807128325085
722.482759,,0.0,722.149,0.46299999952316284,-2.592134421637307
722.948276,,0.0,722.612,0.4790000021457672,-2.557403181503931
723.4137929999999,,0.0,723.078,0.4740000069141388,-2.5683912113872984
723.87931,,0.0,723.542,0.46700000762939453,-2.5837013204135246
724.344828,,0.0,724.008,0.45500001311302185,-2.6098682800109123
724.810345,,0.0,724.474,0.4519999921321869,-2.6163911351440627
725.2758620000001,,0.0,724.94,0.45899999141693115,-2.6010919136864867
725.741379,,0.0,725.405,0.46399998664855957,-2.590115841062627
726.2068969999999,,0.0,725.871,0.45500001311302185,-2.6096092290719293
726.672414,,0.0,726.338,0.4749999940395355,-2.5658939299787122
727.137931,,0.0,726.796,0.4480000138282776,-2.6245516326093536
727.603448,,0.0,727.264,0.45100000500679016,-2.617832404437582
728.068966,,0.0,727.726,0.4560000002384186,-2.6067445071600264
728.534483,,0.0,728.19,0.45399999618530273,-2.610901759217797
729.0,,0.0,728.659,0.4480000138282776,-2.623774567866139
729.465517,,0.0,729.125,0.36000001430511475,-2.8153057973466264
729.9310340000001,,0.0,729.587,0.4729999899864197,-2.5689448721282893
730.3965519999999,,0.0,730.052,0.46399998664855957,-2.588398206000528
730.8620689999999,,0.0,730.519,0.45399999618530273,-2.610052239076384
731.327586,,0.0,730.985,0.46000000834465027,-2.5968742631108435
731.793103,,0.0,731.449,0.47200000286102295,-2.570653604856429
732.2586210000001,,0.0,731.915,0.46399998664855957,-2.588036872781289
732.724138,,0.0,732.379,0.4650000035762787,-2.585844420591194
733.189655,,0.0,732.845,0.4650000035762787,-2.5858632155516927
733.655172,,0.0,733.305,0.47600001096725464,-2.5619484673388118
734.12069,,0.0,733.775,0.45100000500679016,-2.61649513207065
734.586207,,0.0,734.238,0.47699999809265137,-2.559958396770006
735.0517239999999,,0.0,734.7,0.44999998807907104,-2.6189144221503255
735.517241,,0.0,735.168,0.45100000500679016,-2.6168889777500546
735.982759,,0.0,735.63,0.47600001096725464,-2.562592042174153
736.448276,,0.0,736.095,0.45500001311302185,-2.6085233094964644
736.913793,,0.0,736.567,0.44600000977516174,-2.628316150274361
737.37931,,0.0,737.025,0.4580000042915344,-2.602357607267125
737.844828,,0.0,737.497,0.43799999356269836,-2.646110570704066
738.310345,,0.0,737.955,0.4440000057220459,-2.6332082696807384
738.775862,,0.0,738.427,0.4519999921321869,-2.6159332237732356
739.2413789999999,,0.0,738.885,0.4569999873638153,-2.605173385584952
739.706897,,0.0,739.357,0.46299999952316284,-2.5922096063014908
740.172414,,0.0,739.815,0.4519999921321869,-2.616254233695097
740.637931,,0.0,740.286,0.4580000042915344,-2.6032308773047976
741.1034480000001,,0.0,740.749,0.45899999141693115,-2.60106841310685
741.568966,,0.0,741.212,0.44600000977516174,-2.6293741848275
742.034483,,0.0,741.682,0.44999998807907104,-2.620611147811339
742.5,,0.0,742.145,0.492000013589859,-2.529028286897878
742.965517,,0.0,742.608,0.45100000500679016,-2.618243919316446
743.431034,,0.0,743.074,0.45100000500679016,-2.6181095885861967
743.896552,,0.0,743.541,0.4860000014305115,-2.5417015110230086
744.362069,,0.0,744.0,0.43700000643730164,-2.64828335980951
744.827586,,0.0,744.467,0.46299999952316284,-2.5914559957813124
745.293103,,0.0,744.933,0.46399998664855957,-2.5890899246807795
745.7586210000001,,0.0,745.398,0.44600000977516174,-2.628118785821978
746.2241379999999,,0.0,745.863,0.44699999690055847,-2.6257604858892494
746.6896549999999,,0.0,746.335,0.4690000116825104,-2.5776630193212506
747.155172,,0.0,746.793,0.46799999475479126,-2.579691397584884
747.62069,,0.0,747.256,0.45100000500679016,-2.616599512909926
748.086207,,0.0,747.72,0.45399999618530273,-2.60996065788797
748.551724,,0.0,748.19,0.45100000500679016,-2.61642304960324
749.017241,,0.0,748.652,0.45100000500679016,-2.6163811898133416
749.4827590000001,,0.0,749.118,0.45100000500679016,-2.616372298591705
749.9482760000001,,0.0,749.581,0.46399998664855957,-2.5880739336959966
750.4137929999999,,0.0,750.047,0.5540000200271606,-2.3920494044889966
750.8793099999999,,0.0,750.512,0.4620000123977661,-2.592565494688413
751.344828,,0.0,750.978,0.44200000166893005,-2.636244957105581
751.810345,,0.0,751.445,0.45100000500679016,-2.616768825673467
752.275862,,0.0,751.911,0.4390000104904175,-2.6430659065009823
752.741379,,0.0,752.376,0.47200000286102295,-2.571340402746077
753.206897,,0.0,752.842,0.4490000009536743,-2.6216300826178314
753.672414,,0.0,753.305,0.46700000762939453,-2.582600337394804
754.1379310000001,,0.0,753.767,0.46000000834465027,-2.59803623087224
754.603448,,0.0,754.231,0.4519999921321869,-2.6156445833752464
755.0689659999999,,0.0,754.7,0.46399998664855957,-2.5896683888602023
755.534483,,0.0,755.161,0.4480000138282776,-2.624677582784045
756.0,,0.0,755.63,0.46399998664855957,-2.5899487915507664
756.465517,,0.0,756.095,0.4819999933242798,-2.550836620063303
756.931034,,0.0,756.559,0.4569999873638153,-2.605376638188085
757.396552,,0.0,757.025,0.527999997138977,-2.450733504123832
757.862069,,0.0,757.489,0.4560000002384186,-2.607602338263209
758.3275860000001,,0.0,757.955,0.4519999921321869,-2.6162894811520894
758.793103,,0.0,758.419,0.44999998807907104,-2.6205882170943444
759.258621,,0.0,758.885,0.46299999952316284,-2.5921778563708884
759.724138,,0.0,759.349,0.4699999988079071,-2.5768122593520486
760.189655,,0.0,759.815,0.3630000054836273,-2.8097905618981525
760.655172,,0.0,760.278,0.4399999976158142,-2.641881955173864
761.1206900000001,,0.0,760.741,0.4440000057220459,-2.6330028151201774
761.5862070000001,,0.0,761.212,0.46399998664855957,-2.589256305463772
762.051724,,0.0,761.674,0.45100000500679016,-2.6174005796638293
762.517241,,0.0,762.145,0.45100000500679016,-2.6172232045420594
762.982759,,0.0,762.6,0.44699999690055847,-2.62576669094997
763.448276,,0.0,763.066,0.46799999475479126,-2.5798549280428142
763.9137929999999,,0.0,763.531,0.4440000057220459,-2.6319977566593162
764.37931,,0.0,763.997,0.38199999928474426,-2.766950589603201
764.844828,,0.0,764.464,0.46799999475479126,-2.579489350204054
765.310345,,0.0,764.929,0.45399999618530273,-2.609919981057374
765.7758620000001,,0.0,765.396,0.4309999942779541,-2.6599866960219045
766.241379,,0.0,765.861,0.4659999907016754,-2.5837215700521448
766.706897,,0.0,766.326,0.45899999141693115,-2.598989007467837
767.172414,,0.0,766.788,0.44999998807907104,-2.618642243058107
767.637931,,0.0,767.257,0.45100000500679016,-2.616536494819034
768.103448,,0.0,767.719,0.4659999907016754,-2.5839549626868625
768.568966,,0.0,768.182,0.4560000002384186,-2.605861582019185
769.034483,,0.0,768.645,0.44699999690055847,-2.625608340751311
769.5,,0.0,769.111,0.42100000381469727,-2.6824078929706094
769.9655170000001,,0.0,769.581,0.46399998664855957,-2.588892362563821
770.4310340000001,,0.0,770.047,0.45100000500679016,-2.6173870893649536
770.8965519999999,,0.0,770.511,0.45100000500679016,-2.617560102951546
771.362069,,0.0,770.97,0.4519999921321869,-2.6155504299580365
771.827586,,0.0,771.435,0.46000000834465027,-2.598281047243542
772.293103,,0.0,771.9,0.4569999873638153,-2.6049629505277165
772.7586210000001,,0.0,772.367,0.460999995470047,-2.5963760452628475
773.224138,,0.0,772.833,0.46399998664855957,-2.589945870523016
773.689655,,0.0,773.301,0.4650000035762787,-2.5878478277068946
774.155172,,0.0,773.763,0.46399998664855957,-2.590079772368345
774.62069,,0.0,774.227,0.46299999952316284,-2.592282918506019
775.086207,,0.0,774.697,0.46299999952316284,-2.592278225841863
775.551724,,0.0,775.16,0.46399998664855957,-2.5900660071855897
776.017241,,0.0,775.622,0.4480000138282776,-2.624863245263053
776.482759,,0.0,776.088,0.47600001096725464,-2.563774478991257
776.9482760000001,,0.0,776.553,0.46399998664855957,-2.5898083558745624
777.413793,,0.0,777.019,0.4569999873638153,-2.604928936457153
777.87931,,0.0,777.486,0.45399999618530273,-2.611319334806573
778.344828,,0.0,777.945,0.4560000002384186,-2.6068054386244577
778.810345,,0.0,778.412,0.46700000762939453,-2.5826769903879208
779.275862,,0.0,778.878,0.48100000619888306,-2.552009941601464
779.7413789999999,,0.0,779.342,0.4880000054836273,-2.5365947081699343
780.206897,,0.0,779.807,0.45899999141693115,-2.5996169473714286
780.672414,,0.0,780.275,0.4620000123977661,-2.592933919547067
781.137931,,0.0,780.738,0.45100000500679016,-2.616768530867306
781.6034480000001,,0.0,781.201,0.4699999988079071,-2.575263907541589
782.0689659999999,,0.0,781.671,0.4490000009536743,-2.620928506128212
782.5344829999999,,0.0,782.142,0.44699999690055847,-2.6252249553225457
783.0,,0.0,782.597,0.47600001096725464,-2.562010975245963
783.465517,,0.0,783.063,0.4779999852180481,-2.5576480691365395
783.931034,,0.0,783.531,0.4560000002384186,-2.6055999234414853
784.396552,,0.0,783.997,0.4490000009536743,-2.6208994954716562
784.862069,,0.0,784.456,0.46399998664855957,-2.5882950770263182
785.327586,,0.0,784.922,0.46000000834465027,-2.5971084894781793
785.7931030000001,,0.0,785.386,0.4519999921321869,-2.6146571603743567
786.258621,,0.0,785.852,0.45399999618530273,-2.6104366047088616
786.7241379999999,,0.0,786.319,0.460999995470047,-2.595335959869237
787.189655,,0.0,786.781,0.45100000500679016,-2.6172808807644534
787.655172,,0.0,787.249,0.45100000500679016,-2.617443404104985
788.12069,,0.0,787.711,0.4490000009536743,-2.621962702950449
788.5862070000001,,0.0,788.175,0.46000000834465027,-2.5981540641769234
789.051724,,0.0,788.645,0.4519999921321869,-2.615729475488729
789.517241,,0.0,789.11,0.4650000035762787,-2.587538386766171
789.982759,,0.0,789.573,0.3720000088214874,-2.790266860448089
790.448276,,0.0,790.039,0.46399998664855957,-2.5899261465748316
790.9137929999999,,0.0,790.5,0.46399998664855957,-2.589997392993544
791.3793099999999,,0.0,790.966,0.4699999988079071,-2.5769689662316235
791.844828,,0.0,791.43,0.4050000011920929,-2.7185965538497228
792.310345,,0.0,791.896,0.45100000500679016,-2.6183669288868163
792.7758620000001,,0.0,792.364,0.45899999141693115,-2.6008984916624964
793.241379,,0.0,792.83,0.44699999690055847,-2.6269756246950347
793.7068969999999,,0.0,793.29,0.46000000834465027,-2.598561110096452
794.172414,,0.0,793.76,0.49000000953674316,-2.5330860450880546
794.637931,,0.0,794.22,0.4569999873638153,-2.6048450869036484
795.103448,,0.0,794.69,0.4519999921321869,-2.615585936001154
795.568966,,0.0,795.153,0.45399999618530273,-2.6110656967440757
796.034483,,0.0,795.615,0.45100000500679016,-2.617433199460945
796.5,,0.0,796.081,0.453000009059906,-2.6129071613153405
796.965517,,0.0,796.546,0.4410000145435333,-2.638887275794042
797.4310340000001,,0.0,797.012,0.44699999690055847,-2.625662129823426
797.8965519999999,,0.0,797.479,0.4580000042915344,-2.601558537045309
798.3620689999999,,0.0,797.944,0.46700000762939453,-2.581830641726342
798.827586,,0.0,798.408,0.45899999141693115,-2.5991615066336413
799.293103,,0.0,798.874,0.46700000762939453,-2.5816586241507555
799.758621,,0.0,799.342,0.47699999809265137,-2.559825197810961
800.224138,,0.0,799.8,0.41600000858306885,-2.692704681799664
800.689655,,0.0,800.271,0.4490000009536743,-2.620822185222715
801.155172,,0.0,800.734,0.46700000762939453,-2.5816496711658696
801.62069,,0.0,801.197,0.4569999873638153,-2.603507316273519
802.086207,,0.0,801.667,0.4620000123977661,-2.5927108912869703
802.5517239999999,,0.0,802.125,0.460999995470047,-2.5950093601245916
803.017241,,0.0,802.595,0.3930000066757202,-2.7432978105678023
803.482759,,0.0,803.061,0.44699999690055847,-2.625808952466423
803.948276,,0.0,803.522,0.46000000834465027,-2.5976566620413575
804.413793,,0.0,803.988,0.4440000057220459,-2.6326907421216186
804.87931,,0.0,804.452,0.4560000002384186,-2.606722819049831
805.344828,,0.0,804.919,0.45100000500679016,-2.6177865300248158
805.810345,,0.0,805.386,0.4699999988079071,-2.576551571117886
806.275862,,0.0,805.852,0.460999995470047,-2.5963022303189374
806.7413789999999,,0.0,806.312,0.45899999141693115,-2.6007813448291732
807.206897,,0.0,806.775,0.45100000500679016,-2.6183079075240947
807.672414,,0.0,807.245,0.46299999952316284,-2.592234192880301
808.137931,,0.0,807.708,0.4569999873638153,-2.605346470519604
808.603448,,0.0,808.171,0.4699999988079071,-2.5770331512699176
809.068966,,0.0,808.641,0.46000000834465027,-2.5987970962030564
809.534483,,0.0,809.107,0.46000000834465027,-2.5987437543133747
810.0,,0.0,809.57,0.44200000166893005,-2.6378775181033953
810.465517,,0.0,810.036,0.46399998664855957,-2.5898395799493787
810.931034,,0.0,810.501,0.46399998664855957,-2.589709028580057
811.396552,,0.0,810.967,0.4569999873638153,-2.6048099609857043
811.862069,,0.0,811.427,0.4620000123977661,-2.593752844028655
812.327586,,0.0,811.892,0.45899999141693115,-2.600115946861152
812.793103,,0.0,812.357,0.45100000500679016,-2.617368729808309
813.2586210000001,,0.0,812.823,0.4779999852180481,-2.558370743055126
813.724138,,0.0,813.286,0.45899999141693115,-2.5995974045059596
814.1896549999999,,0.0,813.756,0.46700000762939453,-2.582012674605991
814.655172,,0.0,814.219,0.45100000500679016,-2.6167329788287157
815.12069,,0.0,814.682,0.4699999988079071,-2.5752224269849693
815.586207,,0.0,815.145,0.46399998664855957,-2.5882033498226593
816.051724,,0.0,815.615,0.46399998664855957,-2.5881403379694317
816.517241,,0.0,816.081,0.4449999928474426,-2.6295021223466093
816.982759,,0.0,816.546,0.460999995470047,-2.594643137244674
817.4482760000001,,0.0,817.011,0.45100000500679016,-2.6164609501380935
817.913793,,0.0,817.472,0.4399999976158142,-2.6404886868611284
818.3793099999999,,0.0,817.937,0.46000000834465027,-2.597007739904107
818.844828,,0.0,818.402,0.4569999873638153,-2.603661857000028
819.310345,,0.0,818.867,0.460999995470047,-2.5950873254502507
819.775862,,0.0,819.33,0.44200000166893005,-2.636639491201025
820.241379,,0.0,819.8,0.46299999952316284,-2.5910586824792325
820.706897,,0.0,820.26,0.4569999873638153,-2.6043086370499906
821.172414,,0.0,820.73,0.46700000762939453,-2.5827013142733466
821.6379310000001,,0.0,821.194,0.4519999921321869,-2.6155557967306864
822.1034480000001,,0.0,821.656,0.46700000762939453,-2.5830407741499637
822.5689659999999,,0.0,822.122,0.47200000286102295,-2.572296728472411
823.034483,,0.0,822.592,0.453000009059906,-2.6138198546563105
823.5,,0.0,823.05,0.45899999141693115,-2.600852872261562
823.965517,,0.0,823.515,0.4519999921321869,-2.6161813379382775
824.431034,,0.0,823.981,0.45500001311302185,-2.6096939750282715
824.896552,,0.0,824.445,0.5690000057220459,-2.36134369707736
825.362069,,0.0,824.911,0.4569999873638153,-2.6053326246170614
825.827586,,0.0,825.379,0.44999998807907104,-2.620530803117401
826.293103,,0.0,825.844,0.4440000057220459,-2.633522123712658
826.758621,,0.0,826.305,0.47200000286102295,-2.5724138393302494
827.224138,,0.0,826.775,0.45399999618530273,-2.611500795569528
827.689655,,0.0,827.238,0.45500001311302185,-2.609175097179779
828.155172,,0.0,827.7,0.45399999618530273,-2.611193603062294
828.6206900000001,,0.0,828.168,0.4560000002384186,-2.6066680857174243
829.0862070000001,,0.0,828.63,0.46399998664855957,-2.5890678429447385
829.551724,,0.0,829.095,0.45100000500679016,-2.6172216207564234
830.017241,,0.0,829.567,0.46399998664855957,-2.5887384515578695
830.482759,,0.0,830.025,0.4560000002384186,-2.6060196241042695
830.948276,,0.0,830.497,0.47999998927116394,-2.553601040819516
831.4137929999999,,0.0,830.955,0.4560000002384186,-2.6057782669488136
831.87931,,0.0,831.42,0.45100000500679016,-2.616585771468838
832.344828,,0.0,831.886,0.46700000762939453,-2.5816691530232205
832.810345,,0.0,832.353,0.4490000009536743,-2.6208556447540796
833.2758620000001,,0.0,832.819,0.46799999475479126,-2.579461894551289
833.741379,,0.0,833.287,0.4490000009536743,-2.620886346737083
834.2068969999999,,0.0,833.749,0.45899999141693115,-2.599158590438931
834.672414,,0.0,834.212,0.45100000500679016,-2.616673138788119
835.137931,,0.0,834.675,0.460999995470047,-2.5949957550256784
835.603448,,0.0,835.145,0.46399998664855957,-2.5885887060417963
836.068966,,0.0,835.608,0.45899999141693115,-2.5996261707049597
836.534483,,0.0,836.073,0.4749999940395355,-2.564922496754351
837.0,,0.0,836.538,0.46399998664855957,-2.589047584205075
837.4655170000001,,0.0,837.004,0.4519999921321869,-2.6153517431816784
837.9310340000001,,0.0,837.471,0.4569999873638153,-2.604614829883358
838.3965519999999,,0.0,837.93,0.43799999356269836,-2.6461568948118233
838.862069,,0.0,838.401,0.46399998664855957,-2.589646693887673
839.327586,,0.0,838.866,0.4560000002384186,-2.6071927686216316
839.793103,,0.0,839.327,0.45399999618530273,-2.6116454551947967
840.2586210000001,,0.0,839.79,0.45100000500679016,-2.6182525854127556
840.724138,,0.0,840.26,0.46700000762939453,-2.583438915742983
841.189655,,0.0,840.723,0.4519999921321869,-2.6161353706950936
841.655172,,0.0,841.186,0.4519999921321869,-2.616123873381938
842.12069,,0.0,841.656,0.46799999475479126,-2.581226279682691
842.586207,,0.0,842.121,0.43799999356269836,-2.646520191741446
843.0517239999999,,0.0,842.584,0.46299999952316284,-2.591964571512921
843.517241,,0.0,843.05,0.44200000166893005,-2.6376059758660695
843.982759,,0.0,843.515,0.4620000123977661,-2.5939054188441872
844.4482760000001,,0.0,843.981,0.4519999921321869,-2.6155510222691194
844.913793,,0.0,844.44,0.45500001311302185,-2.6088651684463198
845.37931,,0.0,844.906,0.3919999897480011,-2.745967360069718
845.844828,,0.0,845.372,0.46399998664855957,-2.588954723824185
846.310345,,0.0,845.838,0.47200000286102295,-2.571381440583387
846.775862,,0.0,846.301,0.46399998664855957,-2.588675392619981
847.2413789999999,,0.0,846.77,0.45899999141693115,-2.5994465351991636
847.706897,,0.0,847.231,0.460999995470047,-2.5949843792301412
848.172414,,0.0,847.701,0.45100000500679016,-2.6166866775125572
848.637931,,0.0,848.164,0.4580000042915344,-2.6013754189201492
849.1034480000001,,0.0,848.627,0.4519999921321869,-2.614411958136297
849.5689659999999,,0.0,849.092,0.43799999356269836,-2.644904388726893
850.0344829999999,,0.0,849.556,0.45500001311302185,-2.6078858877642586
850.5,,0.0,850.021,0.46000000834465027,-2.5970373163854568
850.965517,,0.0,850.486,0.46299999952316284,-2.590570076536831
851.431034,,0.0,850.952,0.46399998664855957,-2.5884817069002795
851.896552,,0.0,851.416,0.4729999899864197,-2.5689825233265706
852.362069,,0.0,851.882,0.45399999618530273,-2.610500499905365
852.827586,,0.0,852.349,0.46399998664855957,-2.5888491642750306
853.2931030000001,,0.0,852.815,0.45100000500679016,-2.617314210523142
853.758621,,0.0,853.278,0.4300000071525574,-2.6632122729700054
854.2241379999999,,0.0,853.741,0.44999998807907104,-2.6197856653486156
854.689655,,0.0,854.212,0.4580000042915344,-2.602497610111911
855.155172,,0.0,854.674,0.4350000023841858,-2.652737905239559
