Trial: ,36
Threshold: ,0.0
Maximum EMG: ,0.03810440535335107
Success: ,True

EMG Time,Raw EMG,Filtered EMG,Force Time,Raw Force (V),Filtered Force (N)
0.0,samples,1.9427058379035744e-08,0.467,0.4830000102519989,-2.5482606673173915
0.46551699999999996,time,1.4865920494213347e-08,0.933,0.49000000953674316,-2.533195978948204
0.9310339999999999,value,1.0054813160561173e-08,1.398,0.5139999985694885,-2.481071131405385
1.396552,,5.000088486361601e-09,1.862,0.4959999918937683,-2.5204206211093974
1.862069,,2.907587902026761e-10,2.328,0.492000013589859,-2.529236178999511
2.327586,,5.809068666270544e-09,2.795,0.515999972820282,-2.477013833691884
2.793103,,1.1544996415203833e-08,3.261,0.49000000953674316,-2.533685602134157
3.258621,,1.7487496509673948e-08,3.725,0.4880000054836273,-2.5380314895478446
3.724138,,2.362431013030329e-08,4.191,0.47600001096725464,-2.564126677660261
4.189654999999999,,2.994195645923443e-08,4.652,0.4959999918937683,-2.5204696573495173
4.655172,,3.642572795312023e-08,5.121,0.4819999933242798,-2.550853572687781
5.12069,,4.3059689784244426e-08,5.585,0.47699999809265137,-2.5616004530178587
5.586207,,4.982668363177618e-08,6.047,0.5009999871253967,-2.509141905745254
6.051723999999999,,5.6708335997517454e-08,6.513,0.48399999737739563,-2.545988105369492
6.517241,,6.368507121190646e-08,6.978,0.5080000162124634,-2.4934954826114484
6.982759,,7.073612928648201e-08,7.444,0.4830000102519989,-2.54774877364393
7.448276,,7.783958875848608e-08,7.911,0.5040000081062317,-2.5017829287729847
7.913793000000001,,8.497239466178066e-08,8.377,0.4830000102519989,-2.5473257946199634
8.379309999999998,,9.211039174577855e-08,8.836,0.4880000054836273,-2.5362360189499333
8.844828000000001,,9.92283630506383e-08,9.302,0.4970000088214874,-2.516449977017332
9.310345,,1.0630007393255862e-07,9.767,0.48399999737739563,-2.5446179235341915
9.775862,,1.13298321617634e-07,10.233,0.47999998927116394,-2.5532068600414823
10.241379,,1.20194990346418e-07,10.696,0.4880000054836273,-2.535684904687752
10.706897,,1.2696111215409745e-07,11.165,0.48100000619888306,-2.5508784091023515
11.172414,,1.3356693331303438e-07,11.626,0.4860000014305115,-2.539965548366613
11.637931,,1.3998198644540538e-07,12.096,0.5019999742507935,-2.505125188883507
12.103447999999998,,1.461751682937942e-07,12.559,0.4909999966621399,-2.529144728865748
12.568966000000001,,1.5211482311690132e-07,13.021,0.48100000619888306,-2.551020678595405
13.034483,,1.5776883165606782e-07,13.487,0.5019999742507935,-2.505390987585492
13.5,,1.6310470559611041e-07,13.95,0.5070000290870667,-2.4946473794102344
13.965517,,1.680896874210775e-07,14.415,0.49000000953674316,-2.531857180975481
14.431034,,1.7269085554201469e-07,14.882,0.48399999737739563,-2.54512010656105
14.896552,,1.768752345497314e-07,15.347,0.48100000619888306,-2.5518600298495557
15.362069,,1.8060991042094223e-07,15.814,0.47999998927116394,-2.554249649735564
15.827586000000002,,1.8386215048109168e-07,16.28,0.49799999594688416,-2.5152450565991114
16.293103,,1.8659952790172178e-07,16.74,0.49900001287460327,-2.513270446387112
16.758621,,1.8879005048448679e-07,17.206,0.4779999852180481,-2.5592129001895207
17.224138,,1.9040229345793438e-07,17.674,0.49000000953674316,-2.53324116167915
17.689655,,1.9140553598704256e-07,18.136,0.4950000047683716,-2.5224959217761125
18.155172,,1.9176990106931187e-07,18.607,0.47699999809265137,-2.5618308734641597
18.62069,,1.9146649846505355e-07,19.069,0.49000000953674316,-2.533595578809525
19.086207,,1.9046757028348346e-07,19.53,0.4729999899864197,-2.5706852273298635
19.551724,,1.887466388204236e-07,19.999,0.45899999141693115,-2.6012032994850856
20.017241000000002,,1.8627865621793088e-07,20.465,0.49000000953674316,-2.53364622917996
20.482758999999998,,1.830401554911238e-07,20.928,0.49000000953674316,-2.5335910393650933
20.948276,,1.7900940244296376e-07,21.394,0.4909999966621399,-2.5313219567678025
21.413793000000002,,1.7416654796388816e-07,21.859,0.492000013589859,-2.5290201922695608
21.87931,,1.68493780190091e-07,22.324,0.48100000619888306,-2.552833536931615
22.344828,,1.6197547597202578e-07,22.788,0.49900001287460327,-2.5134419778565964
22.810344999999998,,1.545983510834786e-07,23.254,0.48100000619888306,-2.55246303394724
23.275862,,1.4635160858144703e-07,23.718,0.49000000953674316,-2.532647908063366
23.741379,,1.3722708470817937e-07,24.184,0.4950000047683716,-2.521541065200139
24.206897,,1.2721939170920458e-07,24.647,0.49000000953674316,-2.5322207069455747
24.672414,,1.163260569251315e-07,25.11,0.5009999871253967,-2.5080485520615436
25.137931,,1.0454765750054084e-07,25.581,0.48100000619888306,-2.5514274783119277
25.603448,,9.188795004055543e-08,26.043,0.4880000054836273,-2.53600245274356
26.068966,,7.835399453477068e-08,26.509,0.47600001096725464,-2.5619971049682255
26.534483,,6.3956271859278e-08,26.973,0.492000013589859,-2.527019658702169
27.0,,4.870879416063561e-08,27.439,0.492000013589859,-2.5269340712904333
27.465517,,3.262920742094591e-08,27.904,0.48399999737739563,-2.544313762409462
27.931034,,1.5738885500798912e-08,28.369,0.49000000953674316,-2.5312301621722444
28.396552,,1.9369850431551073e-09,28.836,0.5049999952316284,-2.4985767326233663
28.862069,,2.036933006673125e-08,29.295,0.4970000088214874,-2.5160688911752795
29.327586,,3.952512356844538e-08,29.76,0.4830000102519989,-2.5466681328535565
29.793103000000002,,5.936733472925483e-08,30.225,0.48500001430511475,-2.542441860229226
30.258620999999998,,7.985488693899508e-08,30.696,0.4909999966621399,-2.5295300423861877
30.724138,,1.009426294732264e-07,31.158,0.4959999918937683,-2.5188206274623477
31.189655000000002,,1.2258132246778012e-07,31.626,0.49399998784065247,-2.5233796583010446
31.655172000000004,,1.4471763581885403e-07,32.088,0.4819999933242798,-2.549737088353191
32.12069,,1.6729416261398808e-07,32.551,0.49000000953674316,-2.5325272078662633
32.586207,,1.9024944767360312e-07,33.021,0.48399999737739563,-2.545817443255573
33.051724,,2.1351803175396496e-07,33.48,0.4970000088214874,-2.5177053204318103
33.517241000000006,,2.3703051193040476e-07,33.946,0.492000013589859,-2.528794101057212
33.982759,,2.6071361864436534e-07,34.411,0.49000000953674316,-2.533326033148742
34.448276,,2.8449030985933344e-07,34.877,0.4959999918937683,-2.520402466672367
34.913793,,3.0827988272896137e-07,35.343,0.49000000953674316,-2.5335915367062403
35.37931,,3.319981031356798e-07,35.81,0.48500001430511475,-2.5445673973805816
35.844828,,3.555573534098864e-07,36.276,0.4880000054836273,-2.5380770899852907
36.310345,,3.7886679848838616e-07,36.741,0.49900001287460327,-2.5141187961195586
36.775862,,4.0183257071621077e-07,37.206,0.48899999260902405,-2.5358728226469625
37.241378999999995,,4.243579734383121e-07,37.67,0.5,-2.5118366310165157
37.706897000000005,,4.4634370346697847e-07,38.131,0.4790000021457672,-2.5574809601621755
38.172414,,4.676880924472583e-07,38.6,0.503000020980835,-2.505053122472376
38.637931,,4.882873670762761e-07,39.062,0.49000000953674316,-2.533206444273823
39.103448,,5.08035928063226e-07,39.525,0.4880000054836273,-2.537370916243563
39.568965999999996,,5.268266476451411e-07,39.995,0.49000000953674316,-2.532803274851064
40.034483,,5.445511853994174e-07,40.461,0.4830000102519989,-2.5478325458957767
40.5,,5.611003220176689e-07,40.926,0.49000000953674316,-2.5323567029950915
40.965517,,5.763643106269892e-07,41.385,0.4970000088214874,-2.5168835223427473
41.431034,,5.902332451642739e-07,41.852,0.4880000054836273,-2.5362780604796575
41.896552,,6.02597445227129e-07,42.318,0.48899999260902405,-2.5339022621565475
42.362069000000005,,6.133478567412701e-07,42.785,0.4830000102519989,-2.5467994627874773
42.827586000000004,,6.223764676994334e-07,43.251,0.49000000953674316,-2.5314023157869703
43.293103,,6.2957673814093e-07,43.718,0.4779999852180481,-2.5574322788243453
43.758621,,6.348440434543355e-07,44.177,0.503000020980835,-2.5028882497310545
44.224138,,6.38076129998693e-07,44.644,0.47999998927116394,-2.552957885444299
44.689655,,6.391735819513191e-07,45.107,0.49000000953674316,-2.531171841565055
45.155172,,6.380402982031272e-07,45.57,0.4909999966621399,-2.5290336781189944
45.620689999999996,,6.345839780356542e-07,46.04,0.49000000953674316,-2.531291349724278
46.086206999999995,,6.287166142280047e-07,46.505,0.492000013589859,-2.527049308908978
46.551724,,6.203549921570676e-07,46.969,0.48899999260902405,-2.533733307671845
47.017241,,6.094211933709537e-07,47.435,0.4959999918937683,-2.5186589610929198
47.482759,,5.958431020340109e-07,47.899,0.49399998784065247,-2.523215121650791
47.948276,,5.795549125623679e-07,48.365,0.492000013589859,-2.527787787312344
48.413793,,5.60497636692112e-07,48.83,0.492000013589859,-2.5280133091536143
48.879310000000004,,5.386196081483127e-07,49.296,0.5149999856948853,-2.478132761877406
49.344828,,5.138769830125424e-07,49.755,0.4950000047683716,-2.5219293568696357
49.810345,,4.862342338197146e-07,50.221,0.4860000014305115,-2.5417498381988195
50.275862,,4.5566463535237113e-07,50.688,0.4959999918937683,-2.520159001976178
50.741379,,4.221507400423867e-07,51.151,0.492000013589859,-2.529046066885175
51.206897,,3.8568484083683867e-07,51.621,0.4950000047683716,-2.5226541401388523
51.672414,,3.4626941933690725e-07,52.084,0.4950000047683716,-2.5227651533641335
52.137931,,3.039175769765298e-07,52.547,0.48899999260902405,-2.5359117194135887
52.603448,,2.5865344697153367e-07,53.01,0.49000000953674316,-2.5337691809871155
53.068966,,2.105125847405039e-07,53.476,0.4790000021457672,-2.55773110143685
53.534483,,1.5954233447609714e-07,53.94,0.4779999852180481,-2.559867592031516
54.0,,1.0580216953026382e-07,54.405,0.49000000953674316,-2.5336437912112846
54.465517,,4.936400426926478e-08,54.87,0.4950000047683716,-2.522634621039482
54.931034,,9.687524945182003e-09,55.336,0.5049999952316284,-2.500699041008983
55.396552,,7.125481198346591e-08,55.8,0.503000020980835,-2.5048780030755364
55.862069,,1.3522706870167588e-07,56.266,0.4819999933242798,-2.550427881742195
56.327586,,2.0148015051199475e-07,56.733,0.531000018119812,-2.443454676196023
56.793102999999995,,2.6987642202481703e-07,57.199,0.49000000953674316,-2.532548454943208
57.258621000000005,,3.402646649720737e-07,57.662,0.5270000100135803,-2.4517030614851167
57.724138,,4.1248003056597196e-07,58.125,0.49000000953674316,-2.532080554070866
58.189655,,4.863440383820198e-07,58.596,0.48899999260902405,-2.534037502488212
58.655172,,5.616646237795923e-07,59.058,0.4909999966621399,-2.5294768806478367
59.120689999999996,,6.382362357872542e-07,59.522,0.48899999260902405,-2.533655656627625
59.586207,,7.158399872834144e-07,59.992,0.5049999952316284,-2.4986488718312216
60.051724,,7.942438591955615e-07,60.45,0.4779999852180481,-2.5573588123815463
60.517241,,8.73202960323215e-07,60.921,0.4970000088214874,-2.515889579805906
60.982758999999994,,9.524598442608037e-07,61.38,0.492000013589859,-2.5267490496882132
61.448276,,1.0317448847569158e-06,61.847,0.49900001287460327,-2.51150667345488
61.913793,,1.1107767106958092e-06,62.313,0.4819999933242798,-2.548593857485126
62.379310000000004,,1.1892627017257799e-06,62.778,0.4909999966621399,-2.5290769364412364
62.84482800000001,,1.2668995453870854e-06,63.243,0.4860000014305115,-2.540099270330531
63.310345000000005,,1.3433738564097443e-06,63.715,0.49399998784065247,-2.52283330615876
63.775862000000004,,1.4183628586589037e-06,64.174,0.48899999260902405,-2.5339187185465017
64.241379,,1.4915351300028102e-06,64.637,0.5149999856948853,-2.4774886285998776
64.706897,,1.562551410166023e-06,65.106,0.5139999985694885,-2.4798971290200176
65.172414,,1.6310654714087346e-06,65.57,0.49799999594688416,-2.5149932707394878
65.637931,,1.6967250516422677e-06,66.033,0.5090000033378601,-2.491266832731446
66.103448,,1.759172849351432e-06,66.498,0.492000013589859,-2.528536413652787
66.56896599999999,,1.8180475794469699e-06,66.961,0.4880000054836273,-2.5374708040527354
67.03448300000001,,1.872985088916284e-06,67.427,0.4819999933242798,-2.5507435267949874
67.5,,1.9236195308786273e-06,67.891,0.4959999918937683,-2.5204180915100936
67.965517,,1.9695845953825792e-06,68.357,0.5019999742507935,-2.5074907412320298
68.431034,,2.0105147950096126e-06,68.822,0.4860000014305115,-2.542457715756149
68.896552,,2.0460468030685877e-06,69.288,0.5049999952316284,-2.5011328747321113
69.362069,,2.075820841882908e-06,69.755,0.4880000054836273,-2.5381978733976025
69.827586,,2.0994821183856483e-06,70.22,0.4690000116825104,-2.5795783507720618
70.293103,,2.11668230394907e-06,70.682,0.503000020980835,-2.5054492766990597
70.75862099999999,,2.127081055084562e-06,71.145,0.47699999809265137,-2.5619992030292495
71.22413800000001,,2.1303475713580714e-06,71.614,0.47600001096725464,-2.5640459121758994
71.689655,,2.1261621865756215e-06,72.077,0.4819999933242798,-2.550809526257599
72.15517200000001,,2.114217989004541e-06,72.54,0.48399999737739563,-2.5462596929622965
72.62069,,2.0942224661096545e-06,73.01,0.5019999742507935,-2.5068287266640064
73.086207,,2.0658991690010895e-06,73.476,0.4970000088214874,-2.5174895774091857
73.551724,,2.028989391512639e-06,73.94,0.4869999885559082,-2.5390338326853867
74.017241,,1.983253858558059e-06,74.405,0.5059999823570251,-2.4973947205401488
74.482759,,1.928474418148424e-06,74.869,0.492000013589859,-2.527655642307745
74.94827599999999,,1.864455731198059e-06,75.335,0.4880000054836273,-2.536142459906195
75.41379300000001,,1.7910269530008173e-06,75.795,0.4880000054836273,-2.5359344132450103
75.87931,,1.708043400023934e-06,76.261,0.4880000054836273,-2.5357526550689453
76.344828,,1.6153881954446835e-06,76.726,0.49399998784065247,-2.522530900796524
76.810345,,1.5129738866468535e-06,77.192,0.5329999923706055,-2.4374493178389818
77.275862,,1.400744027701078e-06,77.655,0.4650000035762787,-2.585522228401859
77.741379,,1.2786747196765856e-06,78.125,0.4959999918937683,-2.517951736296528
78.206897,,1.146776101473336e-06,78.585,0.49000000953674316,-2.5310354969548006
78.67241399999999,,1.0050937837241284e-06,79.055,0.4869999885559082,-2.537627277178554
79.137931,,8.537102181974048e-07,79.525,0.4880000054836273,-2.535547003970064
79.603448,,6.927459950344729e-07,79.981,0.4959999918937683,-2.5182559620469207
80.068966,,5.223610600809954e-07,80.446,0.48100000619888306,-2.5511094399859116
80.53448300000001,,3.427558445231199e-07,80.911,0.5,-2.5099194498055226
81.0,,1.5417229901477491e-07,81.376,0.4690000116825104,-2.577686479705388
81.465517,,4.310517551437413e-08,81.841,0.5070000290870667,-2.4951444798326023
81.931034,,2.487489081498763e-07,82.306,0.49399998784065247,-2.5237233976288778
82.396552,,4.623872571019236e-07,82.773,0.4860000014305115,-2.5414107193869544
82.86206899999999,,6.836040352627175e-07,83.239,0.5019999742507935,-2.506804639520872
83.327586,,9.119380697200455e-07,83.7,0.46399998664855957,-2.589832105535402
83.79310299999999,,1.1468829025821545e-06,84.169,0.49900001287460327,-2.5137977728064596
84.258621,,1.3878866402829957e-06,84.633,0.5009999871253967,-2.5096311230344606
84.72413800000001,,1.6343519583173136e-06,85.095,0.49300000071525574,-2.5272164197163534
85.189655,,1.8856362681011915e-06,85.563,0.4959999918937683,-2.5207973867909725
85.65517200000001,,2.1410520523649914e-06,86.025,0.4699999988079071,-2.577516642459805
86.12069,,2.3998673751616474e-06,86.491,0.48500001430511475,-2.544866881221143
86.586207,,2.6613065722136094e-06,86.961,0.48500001430511475,-2.544851256764265
87.051724,,2.9245511269261355e-06,87.427,0.48500001430511475,-2.54478991121914
87.517241,,3.1887407369629854e-06,87.888,0.49399998784065247,-2.5250764809985125
87.98275899999999,,3.4529745758128056e-06,88.353,0.4779999852180481,-2.559787849133425
88.448276,,3.7163127532707718e-06,88.818,0.49799999594688416,-2.516030733413454
88.913793,,3.977777978220559e-06,89.284,0.503000020980835,-2.5049211062174086
89.37931,,4.2363574265268665e-06,89.751,0.4259999990463257,-2.672435916634644
89.844828,,4.491004816239042e-06,90.21,0.5009999871253967,-2.5087797303939876
90.310345,,4.740642691662516e-06,90.677,0.45500001311302185,-2.6087309474625626
90.775862,,4.984164917177507e-06,91.14,0.4880000054836273,-2.5365675901670515
91.241379,,5.220439380974887e-06,91.61,0.4749999940395355,-2.5646286979601505
91.706897,,5.4483109081382385e-06,92.073,0.49000000953674316,-2.531701662976189
92.17241399999999,,5.666604381730349e-06,92.541,0.48500001430511475,-2.5423690383948823
92.63793100000001,,5.87412806974306e-06,93.003,0.49000000953674316,-2.5312780926817364
93.103448,,6.069677154943199e-06,93.468,0.45500001311302185,-2.6073679445701408
93.568966,,6.252037463796056e-06,93.933,0.46399998664855957,-2.587638299618327
94.03448300000001,,6.419989389773357e-06,94.398,0.49000000953674316,-2.5309162133709657
94.5,,6.5723120054572275e-06,94.862,0.4699999988079071,-2.5744585119078605
94.965517,,6.707787356937369e-06,95.328,0.48100000619888306,-2.5505102613718877
95.431034,,6.825204933068164e-06,95.793,0.4880000054836273,-2.535323752336336
95.896552,,6.923366301208152e-06,96.258,0.48100000619888306,-2.550683376553104
96.36206899999999,,7.001089900109159e-06,96.723,0.4300000071525574,-2.661946595755444
96.827586,,7.0572159796592275e-06,97.188,0.5199999809265137,-2.4660592817874183
97.293103,,7.090611676215443e-06,97.651,0.5009999871253967,-2.5076759034003393
97.758621,,7.100176211293048e-06,98.121,0.47999998927116394,-2.553673899757654
98.224138,,7.084846200409295e-06,98.584,0.47999998927116394,-2.553938174156091
98.689655,,7.043601057917727e-06,99.047,0.49399998784065247,-2.5237115454986934
99.155172,,6.975468482714806e-06,99.513,0.47999998927116394,-2.55448882417701
99.62069,,6.87953000875964e-06,99.978,0.492000013589859,-2.5286146849742255
100.086207,,6.75492660342308e-06,100.444,0.5009999871253967,-2.509261673527384
100.551724,,6.6008642957785795e-06,100.911,0.503000020980835,-2.5051358950313083
101.017241,,6.416619816067959e-06,101.376,0.46700000762939453,-2.583769187245958
101.482759,,6.201546226724991e-06,101.837,0.48500001430511475,-2.5447205751117066
101.948276,,5.955078524522686e-06,102.303,0.48500001430511475,-2.544847799883177
102.413793,,5.676739192630597e-06,102.767,0.49000000953674316,-2.5340375933978208
102.87931,,5.366143680630989e-06,103.233,0.48899999260902405,-2.5362523479637167
103.344828,,5.023005789851482e-06,103.696,0.47600001096725464,-2.564562841037179
103.810345,,4.647142940731536e-06,104.165,0.4959999918937683,-2.5209303697075036
104.275862,,4.238481298355131e-06,104.629,0.5090000033378601,-2.4925016479814412
104.741379,,3.797060731756881e-06,105.091,0.46399998664855957,-2.590390950052792
105.206897,,3.3230395821479313e-06,105.559,0.4690000116825104,-2.5793097318500764
105.672414,,2.8166992148158142e-06,106.021,0.5,-2.5115513236295133
106.13793100000001,,2.2784483291332895e-06,106.487,0.5009999871253967,-2.5091251951291067
106.603448,,1.70882700086941e-06,106.95,0.492000013589859,-2.5284651269679004
107.068966,,1.1085104308358352e-06,107.415,0.4819999933242798,-2.549971924249481
107.534483,,4.783123738267998e-07,107.881,0.4729999899864197,-2.569297205163658
108.0,,1.808117781738219e-07,108.347,0.49000000953674316,-2.5319833753205274
108.46551699999999,,8.677622844364776e-07,108.815,0.4909999966621399,-2.529541616030232
108.931034,,1.5812927412935236e-06,109.28,0.48399999737739563,-2.54455030264657
109.396552,,2.3200081907169754e-06,109.745,0.48500001430511475,-2.5421585516289693
109.862069,,3.082363676663113e-06,110.21,0.4749999940395355,-2.5637675408948057
110.32758600000001,,3.866663273663974e-06,110.673,0.48100000619888306,-2.5505592263356562
110.793103,,4.671059611519522e-06,111.136,0.4869999885559082,-2.53739614644013
111.258621,,5.493553919205961e-06,111.604,0.460999995470047,-2.5939979235424273
111.724138,,6.331996610262995e-06,112.066,0.4729999899864197,-2.567861197168703
112.189655,,7.184088430954055e-06,112.537,0.49000000953674316,-2.5308808760886143
112.655172,,8.047382191406906e-06,112.999,0.46399998664855957,-2.587630236291371
113.12069,,8.919285098736517e-06,113.465,0.47999998927116394,-2.5529212018509586
113.586207,,9.797061709826635e-06,113.925,0.4699999988079071,-2.574897573644249
114.051724,,1.0677837520000903e-05,114.391,0.47999998927116394,-2.553335732185104
114.51724100000001,,1.1558603202248379e-05,114.856,0.47699999809265137,-2.5601241315904226
114.982759,,1.243621950998241e-05,115.321,0.5040000081062317,-2.5015727071799425
115.448276,,1.3307422854506813e-05,115.788,0.49000000953674316,-2.5323566954366807
115.913793,,1.4168831566440495e-05,116.254,0.3959999978542328,-2.73743671108155
116.37931,,1.5016952848312816e-05,116.718,0.49000000953674316,-2.532928055865632
116.84482799999999,,1.5848190423389233e-05,117.184,0.5059999823570251,-2.498340861317164
117.310345,,1.6658852883523177e-05,117.651,0.4950000047683716,-2.5225534037457744
117.77586199999999,,1.7445162736458535e-05,118.114,0.48899999260902405,-2.535841797066485
118.241379,,1.8203266150531652e-05,118.577,0.47200000286102295,-2.5730585059523063
118.70689700000001,,1.892924339214671e-05,119.04,0.4880000054836273,-2.538338056846248
119.172414,,1.961911994872846e-05,119.506,0.44699999690055847,-2.627755214091905
119.63793100000001,,2.0268878327096983e-05,119.976,0.4729999899864197,-2.5711553862802043
120.103448,,2.08744705143665e-05,120.435,0.47699999809265137,-2.5624366382256683
120.568966,,2.1431831085550983e-05,120.906,0.4779999852180481,-2.560204107924506
121.034483,,2.193689093906994e-05,121.365,0.4909999966621399,-2.531779148656886
121.5,,2.2385591638296318e-05,121.83,0.5049999952316284,-2.5011292384494324
121.96551699999999,,2.277390033418334e-05,122.296,0.49300000071525574,-2.5270817758894903
122.431034,,2.3097825240856437e-05,122.762,0.4860000014305115,-2.542104763292978
122.896552,,2.3353431632870076e-05,123.228,0.47600001096725464,-2.5636349614909477
123.362069,,2.353685832961673e-05,123.696,0.4740000069141388,-2.5677156311367293
123.827586,,2.36443346291468e-05,124.158,0.4830000102519989,-2.547819301133553
124.293103,,2.3672197650425028e-05,124.621,0.4880000054836273,-2.536634135480695
124.758621,,2.3616910039821897e-05,125.092,0.4779999852180481,-2.558134018247157
125.22413800000001,,2.347507799442942e-05,125.555,0.47999998927116394,-2.553504320378226
125.68965500000002,,2.324346955161243e-05,126.017,0.47999998927116394,-2.5532546189076752
126.15517200000001,,2.291903309107041e-05,126.483,0.49000000953674316,-2.531248469295967
126.62069000000001,,2.2498915992605524e-05,126.947,0.4880000054836273,-2.535422629577534
127.086207,,2.1980483389781958e-05,127.412,0.46799999475479126,-2.578854836812692
127.55172400000001,,2.13613369567345e-05,127.877,0.49000000953674316,-2.5308307761814732
128.017241,,2.0639333662554143e-05,128.343,0.4790000021457672,-2.554751900062838
128.48275900000002,,1.98126044249598e-05,128.808,0.49799999594688416,-2.5133642861268353
128.948276,,1.8879572592372212e-05,129.273,0.4740000069141388,-2.5657090876882704
129.413793,,1.7838972181053956e-05,129.74,0.4959999918937683,-2.5178850681385705
129.87931,,1.668986579168248e-05,130.206,0.47699999809265137,-2.559431423042066
130.344828,,1.5431662127596406e-05,130.667,0.49000000953674316,-2.5313022898983983
130.81034499999998,,1.4064133035013969e-05,131.137,0.48399999737739563,-2.5446030058835905
131.275862,,1.2587429983781026e-05,131.6,0.492000013589859,-2.5274309637154824
131.741379,,1.1002099905679738e-05,132.062,0.4790000021457672,-2.556031298146764
132.206897,,9.309100306032403e-06,132.53,0.47600001096725464,-2.562857768985336
132.67241399999997,,7.509813563282431e-06,132.992,0.5299999713897705,-2.4455045535506206
133.13793099999998,,5.6060603304405735e-06,133.457,0.47999998927116394,-2.554724019342175
133.60344800000001,,3.600111951763157e-06,133.921,0.4880000054836273,-2.5375671576077727
134.06896600000002,,1.4947018077938706e-06,134.387,0.48100000619888306,-2.5530679399310143
134.53448300000002,,7.069644980351719e-07,134.851,0.492000013589859,-2.5293232356764124
135.0,,3.001200197671107e-06,135.317,0.5170000195503235,-2.475040236468181
135.465517,,5.383829747304315e-06,135.785,0.492000013589859,-2.5296463026793767
135.931034,,7.85018263152011e-06,136.251,0.49900001287460327,-2.5144882957786896
136.396552,,1.039508866604679e-05,136.718,0.49799999594688416,-2.5167097051704164
136.862069,,1.3012874880669375e-05,137.177,0.5009999871253967,-2.5101653038452123
137.327586,,1.5697364061773308e-05,137.644,0.49799999594688416,-2.516641853188325
137.793103,,1.8441875031503143e-05,138.106,0.4959999918937683,-2.5208908466202082
138.258621,,2.1239224737660645e-05,138.574,0.47600001096725464,-2.564310409215787
138.724138,,2.408173222521827e-05,139.036,0.49000000953674316,-2.5336161133004502
139.189655,,2.6961224556682766e-05,139.502,0.49300000071525574,-2.526852830687697
139.655172,,2.986904474450554e-05,139.965,0.492000013589859,-2.528776496272704
140.12069,,3.279606175429834e-05,140.43,0.48100000619888306,-2.5524670005879053
140.586207,,3.573268263277395e-05,140.895,0.46700000762939453,-2.582682718036853
141.05172399999998,,3.8668866809091135e-05,141.362,0.4620000123977661,-2.593289265683287
141.51724099999998,,4.159414261264294e-05,141.826,0.47600001096725464,-2.562508909451341
141.982759,,4.449762604429022e-05,142.292,0.4860000014305115,-2.5404582312775235
142.44827600000002,,4.736804183161168e-05,142.759,0.4950000047683716,-2.5206082001223975
142.913793,,5.019374679192512e-05,143.224,0.49000000953674316,-2.531287941515664
143.37931,,5.2962755519637844e-05,143.685,0.4880000054836273,-2.535466730804373
143.844828,,5.566276840691791e-05,144.155,0.4650000035762787,-2.5854379165406245
144.310345,,5.828120199875208e-05,144.618,0.47699999809265137,-2.5592017921764425
144.77586200000002,,6.080522167518431e-05,145.081,0.47999998927116394,-2.5526214344057365
145.241379,,6.322177664492414e-05,145.551,0.4699999988079071,-2.5744123802294974
145.706897,,6.551763722559461e-05,146.014,0.4830000102519989,-2.5461430363840667
146.172414,,6.767943437667155e-05,146.48,0.5009999871253967,-2.5070267476371546
146.637931,,6.969370144167087e-05,146.945,0.5090000033378601,-2.489738884286642
147.103448,,7.1546918046389e-05,147.411,0.4779999852180481,-2.5574560412327814
147.568966,,7.322555609001782e-05,147.87,0.49399998784065247,-2.522809578360698
148.034483,,7.47161277557649e-05,148.336,0.48500001430511475,-2.542656051346301
148.5,,7.600523545723924e-05,148.803,0.460999995470047,-2.5952025132620844
148.965517,,7.707962362634219e-05,149.269,0.4749999940395355,-2.56497355190429
149.43103399999998,,7.792623223776324e-05,149.733,0.4790000021457672,-2.5565361306852488
149.89655199999999,,7.85322519544518e-05,150.199,0.4830000102519989,-2.5480950727048595
150.362069,,7.888518076765687e-05,150.662,0.4749999940395355,-2.565786046951833
150.82758600000003,,7.897288199432937e-05,151.125,0.4860000014305115,-2.542063105190099
151.293103,,7.878364348390605e-05,151.596,0.48100000619888306,-2.5531717150306874
151.758621,,7.830623787577808e-05,152.058,0.4880000054836273,-2.538103221376795
152.224138,,7.752998373813244e-05,152.526,0.4819999933242798,-2.5513184850169384
152.68965500000002,,7.644480740838166e-05,152.988,0.49000000953674316,-2.5339896717500277
153.155172,,7.504130534511138e-05,153.453,0.47200000286102295,-2.573260138593217
153.62069,,7.331080679141905e-05,153.918,0.5180000066757202,-2.4730495339508987
154.086207,,7.124543653973694e-05,154.384,0.4749999940395355,-2.566690583113117
154.551724,,6.883817757877565e-05,154.851,0.48100000619888306,-2.5535316036075533
155.017241,,6.608293339413653e-05,155.316,0.4860000014305115,-2.542508374069045
155.482759,,6.297458968547222e-05,155.781,0.4779999852180481,-2.559768522345011
155.948276,,5.9509075254871286e-05,156.247,0.5009999871253967,-2.5094563351859156
156.413793,,5.568342181345618e-05,156.711,0.48399999737739563,-2.5462616804085334
156.87931,,5.1495822446061654e-05,157.173,0.44699999690055847,-2.6266194912685314
157.34482799999998,,4.6945688467353e-05,157.637,0.5090000033378601,-2.4912785668074533
157.81034499999998,,4.203370439690014e-05,158.106,0.49000000953674316,-2.532402389155448
158.275862,,3.6761880775592315e-05,158.57,0.49000000953674316,-2.5321336311532185
158.741379,,3.113360454140929e-05,159.032,0.4729999899864197,-2.568912345710066
159.20689700000003,,2.5153686679005034e-05,159.498,0.48100000619888306,-2.5512432807576846
159.672414,,1.882840685485695e-05,159.961,0.49000000953674316,-2.5314210423103343
160.137931,,1.216555474793381e-05,160.426,0.47999998927116394,-2.553024624977535
160.60344800000001,,5.1744677849828905e-06,160.892,0.48399999737739563,-2.544163957919674
161.06896600000002,,2.1339350103241525e-06,161.358,0.47999998927116394,-2.5527737590108663
161.534483,,9.747123343975861e-06,161.823,0.46399998664855957,-2.5875719368416488
162.0,,1.7650930441280933e-05,162.288,0.4950000047683716,-2.520019885506467
162.465517,,2.5829532583594098e-05,162.755,0.4869999885559082,-2.5374810936897685
162.931034,,3.426543367159861e-05,163.221,0.492000013589859,-2.5266641514331445
163.396552,,4.293945508895782e-05,163.684,0.4729999899864197,-2.56817718737578
163.862069,,5.183073113326229e-05,164.147,0.4790000021457672,-2.555263064896224
164.327586,,6.091671027307786e-05,164.614,0.5080000162124634,-2.4922739459743117
164.793103,,7.017316248052079e-05,165.077,0.4779999852180481,-2.5578527507770663
165.258621,,7.957419287812814e-05,165.54,0.4729999899864197,-2.5689868801348634
165.72413799999998,,8.909226192683923e-05,166.01,0.47200000286102295,-2.5714216165209796
166.189655,,9.869821236864513e-05,166.476,0.4880000054836273,-2.5368267645298084
166.655172,,0.00010836130312288858,166.94,0.47200000286102295,-2.57194800424034
167.12069,,0.00011804925031930438,167.405,0.47600001096725464,-2.56348795770278
167.58620699999997,,0.0001277282756336781,167.872,0.4880000054836273,-2.537582840780035
168.051724,,0.000137363162073479,168.33,0.47999998927116394,-2.5552273809118837
168.517241,,0.00014691731734099811,168.796,0.4880000054836273,-2.5379836780190237
168.98275900000002,,0.00015635284488041133,169.262,0.47999998927116394,-2.555563195096966
169.44827600000002,,0.00016563062269281335,169.729,0.5090000033378601,-2.4924926054592533
169.913793,,0.0001747103899796528,170.195,0.47200000286102295,-2.5731694634577242
170.37931,,0.00018355084165018118,170.655,0.4880000054836273,-2.538333161805024
170.844828,,0.0001921097307025407,171.125,0.48399999737739563,-2.547024782098095
171.310345,,0.00020034397846100391,171.588,0.4909999966621399,-2.531706707993624
171.775862,,0.0002082097926236921,172.051,0.5009999871253967,-2.5098099527189928
172.241379,,0.0002156627930458956,172.517,0.49000000953674316,-2.5336251496269533
172.706897,,0.00022265814515395673,172.981,0.4790000021457672,-2.557405859901584
173.172414,,0.00022915070085362794,173.446,0.4830000102519989,-2.5484784426177214
173.637931,,0.00023509514676495205,173.914,0.5019999742507935,-2.506849202497581
174.103448,,0.00024044615958311501,174.38,0.4959999918937683,-2.519670337170122
174.568966,,0.0002451585683314748,174.845,0.4819999933242798,-2.5499126697856758
175.034483,,0.00024918752323917134,175.31,0.4970000088214874,-2.5169742728844837
175.5,,0.00025248867094146486,175.77,0.49900001287460327,-2.5123659122705266
175.96551699999998,,0.000255018335666345,176.235,0.5,-2.5099509727813576
176.43103399999998,,0.00025673370603610283,176.703,0.47999998927116394,-2.553309788256491
176.896552,,0.0002575930270775863,177.166,0.4830000102519989,-2.5465888163052637
177.36206900000002,,0.00025755579699988495,177.636,0.48100000619888306,-2.550796166683505
177.827586,,0.0002565829682633361,178.099,0.49000000953674316,-2.53107765083231
178.293103,,0.00025463715242915176,178.562,0.4819999933242798,-2.548438565104459
178.758621,,0.0002516828282447617,179.025,0.49000000953674316,-2.5309852666495094
179.224138,,0.00024768655238630174,179.49,0.503000020980835,-2.5026831543149286
179.68965500000002,,0.00024261717224668717,179.96,0.4880000054836273,-2.5354265804473464
180.155172,,0.00023644604012555549,180.426,0.48399999737739563,-2.5442464901939994
180.62069,,0.00022914722814618605,180.892,0.4830000102519989,-2.5465692011623267
181.086207,,0.0002206977431944701,181.351,0.4860000014305115,-2.5402117515477562
181.551724,,0.00021107774114626626,181.817,0.4749999940395355,-2.564384394782118
182.01724099999998,,0.00020027073962219555,182.283,0.492000013589859,-2.5275774795303647
182.482759,,0.00018826382848327464,182.749,0.47699999809265137,-2.560502902891955
182.948276,,0.00017504787725691523,183.214,0.5109999775886536,-2.486682123075325
183.413793,,0.00016061773866089636,183.677,0.4440000057220459,-2.6329049721681477
183.87931,,0.00014497244737310695,184.14,0.48500001430511475,-2.5438273269530565
184.34482799999998,,0.00012811541317732535,184.61,0.5,-2.5113801338807566
184.81034499999998,,0.00011005460760022073,185.072,0.48100000619888306,-2.552984466926273
185.27586200000002,,9.080274314228744e-05,185.535,0.4869999885559082,-2.540094095336017
185.74137900000002,,7.03774441957019e-05,186.005,0.4880000054836273,-2.53806302992937
186.206897,,4.88014087352689e-05,186.47,0.4690000116825104,-2.5795669070708764
186.672414,,2.6102559864874965e-05,186.936,0.4860000014305115,-2.5425985124062156
187.137931,,2.314186301373685e-06,187.395,0.492000013589859,-2.5295518780041504
187.60344800000001,,2.2524929119286323e-05,187.867,0.4959999918937683,-2.520817981053408
188.06896600000002,,4.8370393822567696e-05,188.325,0.4950000047683716,-2.5229330657360234
188.534483,,7.51721036615308e-05,188.792,0.4830000102519989,-2.5489713590731875
189.0,,0.00010287415575411842,189.258,0.49000000953674316,-2.533577058923679
189.465517,,0.00013141477685922704,189.725,0.5109999775886536,-2.4876475412777195
189.931034,,0.00016072626813748534,190.191,0.49399998784065247,-2.5244773614006295
190.39655199999999,,0.00019073496711729819,190.652,0.4950000047683716,-2.5220689256168725
190.862069,,0.0002213612276577547,191.121,0.4059999883174896,-2.715725536148604
191.327586,,0.0002525194186663465,191.584,0.47600001096725464,-2.5629728824167635
191.793103,,0.0002841179422900479,192.047,0.4860000014305115,-2.540941678305495
192.25862099999998,,0.0003160592722544683,192.513,0.48399999737739563,-2.5450623922578743
192.72413799999998,,0.00034824001298055797,192.979,0.47200000286102295,-2.570984904970596
193.189655,,0.0003805509800614569,193.444,0.4779999852180481,-2.5577140616065765
193.655172,,0.0004128773026269499,193.91,0.47999998927116394,-2.553185875813062
194.12069000000002,,0.00044509854805495293,194.376,0.48500001430511475,-2.542154505671786
194.586207,,0.000477088869418327,194.84,0.48500001430511475,-2.542052990479611
195.051724,,0.0005087171759985976,195.306,0.4819999933242798,-2.5485268428610093
195.517241,,0.0005398473271497481,195.771,0.4819999933242798,-2.548505856043995
195.98275900000002,,0.0005703383497144375,196.236,0.47699999809265137,-2.5594198369513035
196.448276,,0.0006000446790620361,196.699,0.47699999809265137,-2.5594816736480173
196.913793,,0.0006288164237010073,197.161,0.492000013589859,-2.526902580858046
197.37931,,0.0006564996534126759,197.629,0.4830000102519989,-2.5466463439870233
197.844828,,0.0006829367108953609,198.092,0.4819999933242798,-2.548992003197013
198.310345,,0.0007079665467506486,198.555,0.4860000014305115,-2.540470403939366
198.775862,,0.0007314250772225327,199.025,0.48500001430511475,-2.5428620716232064
199.241379,,0.0007531455638710493,199.491,0.49000000953674316,-2.532195320009603
199.706897,,0.0007729590148222064,199.954,0.49300000071525574,-2.5258922668582446
200.172414,,0.0007906946078453331,200.42,0.49300000071525574,-2.526124364558183
200.63793099999998,,0.0008061801348148541,200.884,0.574999988079071,-2.3476980059209183
201.103448,,0.0008192424650683559,201.35,0.46700000762939453,-2.5831981382812113
201.568966,,0.0008297080247264864,201.815,0.46700000762939453,-2.5833840296040322
202.034483,,0.0008374032926443977,202.281,0.49000000953674316,-2.5334371791798067
202.5,,0.0008421553172099926,202.741,0.48100000619888306,-2.553178091522856
202.965517,,0.0008437922533731645,203.207,0.503000020980835,-2.505347642878551
203.431034,,0.0008421439078975591,203.67,0.47699999809265137,-2.562056401583365
203.896552,,0.0008370422814250584,204.139,0.49000000953674316,-2.533760441518791
204.36206900000002,,0.0008283221196015063,204.6,0.48899999260902405,-2.5359278164216157
204.827586,,0.0008158215029109878,205.07,0.47200000286102295,-2.572916401109897
205.293103,,0.0007993824698595543,205.533,0.4729999899864197,-2.5706545149169227
205.758621,,0.0007788516042166217,205.996,0.48899999260902405,-2.5356806226853386
206.224138,,0.0007540805377808091,206.462,0.492000013589859,-2.5289997344232376
206.689655,,0.0007249264679408439,206.929,0.4950000047683716,-2.522293381150091
207.155172,,0.0006912528643120658,207.395,0.49799999594688416,-2.5155663293308557
207.62069,,0.0006529302944460061,207.855,0.4860000014305115,-2.5415039844101552
208.086207,,0.0006098369493263293,208.321,0.5099999904632568,-2.489001305984376
208.551724,,0.0005618586728831791,208.788,0.503000020980835,-2.5040334291247985
209.01724099999998,,0.0005088891961204813,209.254,0.47999998927116394,-2.553927479093893
209.482759,,0.00045083153172388395,209.719,0.4749999940395355,-2.5646165345225596
209.948276,,0.0003875998453824672,210.184,0.5070000290870667,-2.494712220001717
210.413793,,0.0003191192871372753,210.648,0.47999998927116394,-2.553369891778627
210.87930999999998,,0.0002453231753989808,211.11,0.47200000286102295,-2.5706599371485273
211.344828,,0.00016615221822799877,211.581,0.4819999933242798,-2.548765717093303
211.810345,,8.156075172064326e-05,212.043,0.4779999852180481,-2.5574067684162145
212.27586200000002,,8.475670717061488e-06,212.509,0.503000020980835,-2.5029025048158
212.741379,,0.00010396610375131994,212.973,0.47200000286102295,-2.570438916393251
213.206897,,0.00020492358307908456,213.439,0.47600001096725464,-2.5617591791158794
213.672414,,0.00031136779598149366,213.903,0.4749999940395355,-2.5640085570273294
214.137931,,0.0004232866515926134,214.369,0.48399999737739563,-2.5445046800787883
214.60344800000001,,0.0005405994959059386,214.836,0.503000020980835,-2.503243575047895
215.068966,,0.0006632062421219567,215.295,0.46700000762939453,-2.5818332313320522
215.534483,,0.0007911017484531686,215.766,0.48399999737739563,-2.544975296416673
216.0,,0.0009243656797878373,216.225,0.5009999871253967,-2.508132505586184
216.465517,,0.001062918983393383,216.692,0.4819999933242798,-2.5497297947109616
216.93103399999998,,0.001206350340049309,217.155,0.5040000081062317,-2.502005173585732
217.39655199999999,,0.0013542784460785855,217.625,0.4749999940395355,-2.5653885155185865
217.862069,,0.0015069979496731307,218.088,0.47699999809265137,-2.561225257146223
218.327586,,0.0016652499688053655,218.551,0.4869999885559082,-2.5396191071998726
218.793103,,0.0018287111510172712,219.021,0.5049999952316284,-2.5005641094611333
219.25862099999998,,0.001995260728626375,219.487,0.4819999933242798,-2.550809174613262
219.724138,,0.0021635032945817095,219.95,0.48500001430511475,-2.544381445082807
220.18965500000002,,0.002336288997970869,220.415,0.515999972820282,-2.4769206358621343
220.65517200000002,,0.0025183349062970787,220.881,0.4909999966621399,-2.531430284584514
221.12069,,0.002707090100056981,221.346,0.46299999952316284,-2.592442103034466
221.586207,,0.002890340966076888,221.811,0.5009999871253967,-2.5096301346022116
222.051724,,0.0030630857764747115,222.276,0.5249999761581421,-2.4572859243423553
222.517241,,0.003245920729238331,222.741,0.4860000014305115,-2.5421642944559864
222.98275900000002,,0.0034650092744128234,223.2,0.5,-2.5115457415145355
223.448276,,0.0036982991136936677,223.67,0.47699999809265137,-2.561513021118283
223.913793,,0.003873810180525377,224.132,0.48399999737739563,-2.5461015083440155
224.37931,,0.00397886197321991,224.6,0.4729999899864197,-2.5698916663441556
224.844828,,0.004150718316107927,225.062,0.49000000953674316,-2.532670755171084
225.31034499999998,,0.004524265367399334,225.525,0.492000013589859,-2.5281257256220027
225.775862,,0.004924067647667559,225.995,0.4819999933242798,-2.549725893060904
226.241379,,0.004932129348235753,226.461,0.48100000619888306,-2.551725198329333
226.706897,,0.004576761732044179,226.922,0.47600001096725464,-2.5624515568714235
227.172414,,0.0047475769589420055,227.387,0.492000013589859,-2.5274432614343185
227.63793099999998,,0.006110318929591689,227.855,0.47200000286102295,-2.5708872825563462
228.103448,,0.007322382484323672,228.321,0.4729999899864197,-2.5686044278864952
228.56896600000002,,0.005531605883511343,228.781,0.47200000286102295,-2.5707065589184848
229.03448300000002,,8.922971452623838e-05,229.246,0.49399998784065247,-2.5227289462761684
229.5,,0.006229203147953064,229.718,0.4909999966621399,-2.529246798854741
229.965517,,0.008648802950571723,230.176,0.5109999775886536,-2.4856844614594107
230.431034,,0.0069540898216915985,230.644,0.4869999885559082,-2.538010347921846
230.896552,,0.004428476101430812,231.106,0.45899999141693115,-2.5990781650418473
231.362069,,0.003729638678096363,231.574,0.4819999933242798,-2.549061055582276
231.827586,,0.0046229194497001335,232.036,0.5009999871253967,-2.507781119505153
232.293103,,0.005616604969711772,232.502,0.47600001096725464,-2.562380036251199
232.758621,,0.005988391087746159,232.972,0.4779999852180481,-2.558170436689404
233.224138,,0.0058343541866843285,233.43,0.4749999940395355,-2.5648650079525224
233.689655,,0.005275097356951001,233.896,0.4779999852180481,-2.558494123637
234.155172,,0.004319161357818588,234.362,0.47999998927116394,-2.5543034195024403
234.62069,,0.003177935892765314,234.829,0.4790000021457672,-2.5566453513741623
235.086207,,0.002284117860971999,235.295,0.49000000953674316,-2.532835417426255
235.55172399999998,,0.002027432423230962,235.759,0.45899999141693115,-2.6005166077050745
236.01724099999998,,0.0025150588905106493,236.224,0.4819999933242798,-2.5505351159219076
236.482759,,0.003403652755964208,236.685,0.47200000286102295,-2.5724299264566985
236.94827600000002,,0.004017355102163892,237.155,0.4790000021457672,-2.557265562318854
237.413793,,0.003924791747298756,237.618,0.4740000069141388,-2.568220618816851
237.87931,,0.0033573897852548214,238.08,0.4880000054836273,-2.5377552774215872
238.344828,,0.0028705166737008196,238.548,0.49399998784065247,-2.524691787697354
238.810345,,0.0028329276852906947,239.01,0.4869999885559082,-2.5399230029717494
239.27586200000002,,0.00343613434258135,239.475,0.4690000116825104,-2.5790929465786374
239.741379,,0.00464844195968061,239.946,0.4819999933242798,-2.550700640788848
240.206897,,0.005623560289371692,240.405,0.4880000054836273,-2.537536587422643
240.672414,,0.004782637455949505,240.877,0.49799999594688416,-2.5156379555901673
241.137931,,0.0015553364785875004,241.335,0.48899999260902405,-2.5351167023192054
241.603448,,0.0021408314491312545,241.8,0.4819999933242798,-2.5502253493847027
242.068966,,0.0033318197219065404,242.266,0.4880000054836273,-2.5370032635904862
242.534483,,0.0012054383638238427,242.733,0.47600001096725464,-2.5629931411005735
243.0,,0.0018750666102894343,243.199,0.4950000047683716,-2.5214456171274913
243.465517,,0.0028927580323131474,243.662,0.4779999852180481,-2.558334410561218
243.93103399999998,,0.0011860609271112685,244.125,0.4880000054836273,-2.536408795144381
244.39655199999999,,0.0013454242649690367,244.596,0.47200000286102295,-2.5711414483683823
244.862069,,0.0026208092167898118,245.058,0.4690000116825104,-2.577568898361061
245.327586,,0.0024293309149343227,245.526,0.49000000953674316,-2.5317289740719886
245.793103,,0.002051429614640944,245.989,0.49799999594688416,-2.5142330941745437
246.258621,,0.0023466324595770222,246.455,0.49399998784065247,-2.522903595918896
246.724138,,0.0028428000884419733,246.921,0.4790000021457672,-2.5555630780184755
247.18965500000002,,0.002738543429528134,247.38,0.4909999966621399,-2.529423706108191
247.655172,,0.002108278023137765,247.847,0.503000020980835,-2.503308147439942
248.12069,,0.0016024186934957864,248.313,0.49000000953674316,-2.5316813292996336
248.586207,,0.0013176218060568623,248.778,0.47999998927116394,-2.5535398510498135
249.051724,,0.0006030446983545484,249.244,0.4819999933242798,-2.5492741951620146
249.517241,,0.00097657337513005,249.707,0.4970000088214874,-2.5167028536453655
249.982759,,0.002906408163401191,250.177,0.4749999940395355,-2.5647550256590583
250.44827600000002,,0.004132614709207965,250.64,0.47699999809265137,-2.5605299922760425
250.913793,,0.0039979884363866335,251.102,0.49000000953674316,-2.5323465251265938
251.37931000000003,,0.002628047671645506,251.57,0.49799999594688416,-2.515058452084758
251.844828,,0.0006729482366194596,252.032,0.4699999988079071,-2.576199811324865
252.31034499999998,,0.0009903866188734473,252.498,0.4790000021457672,-2.556726083812347
252.77586200000002,,0.0015416275546257519,252.961,0.5130000114440918,-2.4827768698127763
253.241379,,0.0007991213451141783,253.426,0.47600001096725464,-2.5634983388108576
253.706897,,0.00039883311730506927,253.895,0.48100000619888306,-2.5527007464045024
254.172414,,0.0008513124976889643,254.361,0.5,-2.5113838581785495
254.63793099999998,,0.0002485136610871308,254.825,0.4819999933242798,-2.550656283803559
255.10344800000001,,0.0004817907972332123,255.291,0.47999998927116394,-2.5550485308557715
255.56896600000002,,0.0003300148370799515,255.756,0.49000000953674316,-2.5332745580243787
256.03448299999997,,0.0003923678150132679,256.221,0.492000013589859,-2.528906869733522
256.5,,0.00020546145325623684,256.684,0.4790000021457672,-2.557196436610917
256.965517,,0.0017328717477188163,257.147,0.48399999737739563,-2.5462492113740756
257.431034,,0.004318761543574468,257.615,0.47699999809265137,-2.561426500820457
257.896552,,0.005542160027073115,258.077,0.48399999737739563,-2.546085625527691
258.362069,,0.004721096633617435,258.54,0.4659999907016754,-2.5851967117527126
258.827586,,0.0030613343206315215,259.01,0.492000013589859,-2.5284358879192346
259.29310300000003,,0.0019182988679105424,259.476,0.47699999809265137,-2.560991350863069
259.758621,,0.001330756816684642,259.939,0.4729999899864197,-2.569576811502816
260.224138,,0.0007947563758625922,260.405,0.4749999940395355,-2.56508942107042
260.689655,,0.000696159588308352,260.869,0.453000009059906,-2.6128925769089606
261.155172,,0.00193688680358255,261.335,0.46700000762939453,-2.582271279720539
261.62068999999997,,0.0043907838007970846,261.8,0.515999972820282,-2.4754063100774633
262.086207,,0.00668659888326771,262.266,0.4740000069141388,-2.566808795239157
262.551724,,0.0076646388765382375,262.725,0.492000013589859,-2.527505819580778
263.017241,,0.007474612224391855,263.191,0.492000013589859,-2.527434340534998
263.482759,,0.00705457463106746,263.659,0.4620000123977661,-2.5927402060489966
263.94827599999996,,0.006965112817437097,264.121,0.49799999594688416,-2.514274948215345
264.413793,,0.007096019485182435,264.592,0.48500001430511475,-2.5425834343270224
264.87931,,0.007220452724819294,265.054,0.4749999940395355,-2.564376405253413
265.34482799999995,,0.007130697460404089,265.526,0.47699999809265137,-2.5600462785921585
265.810345,,0.006111461455589886,265.981,0.4729999899864197,-2.5688082747109173
266.27586199999996,,0.0031632098624631154,266.446,0.4909999966621399,-2.529658656835179
266.741379,,0.0015039913222980445,266.911,0.43799999356269836,-2.6452104767229794
267.206897,,0.005676081449426427,267.377,0.4650000035762787,-2.5864865403373987
267.672414,,0.006773106880465596,267.844,0.48100000619888306,-2.5517409248417766
268.137931,,0.004436113207678555,268.31,0.49000000953674316,-2.5322546251928895
268.603448,,0.0010870355146488013,268.77,0.503000020980835,-2.5040582563044333
269.06896600000005,,0.00022369248222922153,269.236,0.46700000762939453,-2.58261688333877
269.53448299999997,,0.0015077430304884908,269.707,0.46700000762939453,-2.5827429103468256
270.0,,0.004559510923060144,270.17,0.47200000286102295,-2.5719716836322783
270.465517,,0.0062530542692341325,270.633,0.47200000286102295,-2.57208617523004
270.931034,,0.0052776455919292245,271.095,0.46399998664855957,-2.589619305372136
271.396552,,0.0023660674653758337,271.563,0.4790000021457672,-2.557029997509065
271.86206899999996,,0.000841746658516944,272.025,0.4729999899864197,-2.5701761261202827
272.327586,,0.0030939289173571587,272.49,0.4560000002384186,-2.6072692569492384
272.793103,,0.003863289723594982,272.96,0.46399998664855957,-2.5898770927323262
273.258621,,0.003155878407396197,273.426,0.47999998927116394,-2.555035163374591
273.724138,,0.0014703976917169379,273.885,0.47999998927116394,-2.5550297397486306
274.18965499999996,,0.00024280369229156952,274.351,0.4690000116825104,-2.578967423252458
274.655172,,0.0010146459109112718,274.817,0.47699999809265137,-2.5614897329998008
275.12069,,0.000495902944452951,275.283,0.47999998927116394,-2.5548852058953777
275.586207,,0.0007038310843044506,275.748,0.48500001430511475,-2.5439046397311835
276.051724,,0.0012627121833760655,276.214,0.4729999899864197,-2.5699448379475855
276.517241,,2.66718680000035e-06,276.682,0.46700000762939453,-2.5828999276878815
276.98275900000004,,0.00315451737735609,277.144,0.4880000054836273,-2.537021642861132
277.448276,,0.006998913188977062,277.607,0.46299999952316284,-2.5913546119649227
277.913793,,0.010034245056170957,278.077,0.4819999933242798,-2.549824271656559
278.37931,,0.0113907629852754,278.537,0.46799999475479126,-2.580190407285343
278.844828,,0.011052368084960941,279.007,0.46700000762939453,-2.5822391220901166
279.31034500000004,,0.009864952853174538,279.465,0.47600001096725464,-2.562510210712446
279.77586199999996,,0.009384544643712554,279.933,0.47600001096725464,-2.5624011188286424
280.241379,,0.010862551391422988,280.398,0.46399998664855957,-2.588451028654864
280.706897,,0.01389534227653263,280.863,0.4699999988079071,-2.5753033984637583
281.172414,,0.016465437473635266,281.329,0.49000000953674316,-2.531674766955717
281.637931,,0.016694147529683283,281.796,0.48899999260902405,-2.5338187646800514
282.10344799999996,,0.014473860149205342,282.261,0.46700000762939453,-2.581736482601393
282.568966,,0.011356778745413045,282.726,0.47999998927116394,-2.553424863582731
283.034483,,0.009112148486145354,283.185,0.4650000035762787,-2.586138787836466
283.5,,0.008433455350491633,283.655,0.4650000035762787,-2.5861960125559817
283.965517,,0.008580247568264528,284.117,0.4690000116825104,-2.5775604228278723
284.431034,,0.007838966971966576,284.585,0.4749999940395355,-2.5645870693714357
284.89655200000004,,0.004516291188236591,285.047,0.47699999809265137,-2.5603447683662592
285.362069,,0.001865227983900479,285.514,0.47999998927116394,-2.5539369762513733
285.827586,,0.009826026281386348,285.979,0.47699999809265137,-2.5606105561920427
286.293103,,0.016453334850557083,286.444,0.47200000286102295,-2.5716472954419927
286.758621,,0.019311310334026534,286.911,0.45100000500679016,-2.617544906457279
287.22413800000004,,0.018369233222962952,287.37,0.4620000123977661,-2.593724748592069
287.689655,,0.015948775213343206,287.836,0.46399998664855957,-2.589507288140487
288.155172,,0.014486212372410243,288.302,0.4830000102519989,-2.5482427255826225
288.62069,,0.014409655284156648,288.766,0.48500001430511475,-2.544000629820771
289.086207,,0.01431551945193439,289.232,0.48899999260902405,-2.5353827000065587
289.55172400000004,,0.01294604884313346,289.696,0.46399998664855957,-2.589924308651769
290.01724099999996,,0.010608723702561038,290.165,0.4690000116825104,-2.579083543505818
290.482759,,0.008640590740671885,290.626,0.4690000116825104,-2.579111821579816
290.948276,,0.00787666462383094,291.096,0.45899999141693115,-2.6009014323338024
291.413793,,0.008087822687726932,291.559,0.4880000054836273,-2.5376979367294115
291.87931,,0.008829299528137845,292.021,0.4749999940395355,-2.5659717893743736
292.344828,,0.01005026637399353,292.487,0.47699999809265137,-2.5615409553503183
292.81034500000004,,0.01134311014106727,292.95,0.49000000953674316,-2.533121875313768
293.275862,,0.011302359429798658,293.416,0.4749999940395355,-2.5656843063019528
293.74137900000005,,0.008716899688217093,293.881,0.4970000088214874,-2.5176190841768675
294.206897,,0.004280827772156945,294.347,0.4690000116825104,-2.5784725865535405
294.672414,,0.00014978571345925068,294.814,0.49000000953674316,-2.532563047196176
295.13793100000004,,0.002367911279448037,295.28,0.48399999737739563,-2.5454722738051707
295.603448,,0.0039758485881867195,295.745,0.4830000102519989,-2.5474880675285867
296.068966,,0.006114293378825232,296.211,0.47699999809265137,-2.5604021592131985
296.534483,,0.00917349935010943,296.673,0.4729999899864197,-2.568969031001658
297.0,,0.012213124895652717,297.136,0.4659999907016754,-2.584086824671217
297.46551700000003,,0.013978889435474864,297.6,0.4699999988079071,-2.575258808904198
297.931034,,0.013936855616264905,298.069,0.48399999737739563,-2.544666921362723
298.396552,,0.01250363316689475,298.533,0.46399998664855957,-2.588174380066108
298.862069,,0.010311311394812037,298.995,0.47999998927116394,-2.553278018709391
299.327586,,0.0072909506827830445,299.461,0.45899999141693115,-2.59902075903639
299.79310300000003,,0.0030021522122622305,299.929,0.47600001096725464,-2.5620044967055073
300.258621,,0.0018645499387184438,300.394,0.4620000123977661,-2.5925556847933646
300.724138,,0.005139904135041223,300.859,0.49000000953674316,-2.531631247834833
301.189655,,0.005265679263732279,301.325,0.46399998664855957,-2.5883790749010176
301.65517200000005,,0.003414445179173553,301.788,0.46399998664855957,-2.5885046459429093
302.12069,,0.0025309992260371876,302.254,0.47200000286102295,-2.5712203568019456
302.586207,,0.004083591733082308,302.718,0.4880000054836273,-2.53652141421036
303.05172400000004,,0.0064530463707162845,303.184,0.46399998664855957,-2.5889779791866507
303.517241,,0.006880666789450962,303.651,0.4790000021457672,-2.556471934238784
303.982759,,0.004448240585045474,304.113,0.47200000286102295,-2.5718958131143776
304.448276,,0.0006149534039268644,304.581,0.46700000762939453,-2.58295685390639
304.913793,,0.002592968646940747,305.044,0.4620000123977661,-2.5940076939353705
305.37931000000003,,0.003950128635058442,305.51,0.4650000035762787,-2.5876145745463033
305.844828,,0.002985732001791317,305.973,0.4650000035762787,-2.5877381472447922
306.310345,,5.554532134731074e-05,306.439,0.46700000762939453,-2.583481193759356
306.775862,,0.003118152080172294,306.906,0.4819999933242798,-2.5508750391540698
307.241379,,0.004188569914492241,307.372,0.46399998664855957,-2.59013478936326
307.70689699999997,,0.002469836855609852,307.83,0.4690000116825104,-2.579254774606291
308.172414,,6.475744732709535e-05,308.295,0.49000000953674316,-2.53348478612024
308.637931,,0.0001398145334866319,308.763,0.47099998593330383,-2.574828967901738
309.103448,,0.0023800285901489585,309.228,0.4790000021457672,-2.557319166631128
309.568966,,0.005208879794087903,309.692,0.47600001096725464,-2.563746526071644
310.034483,,0.005682455543093513,310.162,0.46399998664855957,-2.5897571255515435
310.5,,0.0036377379161091944,310.622,0.46700000762939453,-2.58306757089928
310.96551700000003,,0.0011643989347665136,311.091,0.46399998664855957,-2.589434398849966
311.431034,,6.884156911326235e-05,311.555,0.4519999921321869,-2.615398721902067
311.896552,,0.00020845336564284837,312.017,0.46399998664855957,-2.5890708333482335
312.362069,,0.00027050604720538413,312.483,0.4819999933242798,-2.549671312732556
312.827586,,0.00045971712892034787,312.946,0.4659999907016754,-2.5843510988079155
313.29310300000003,,0.0015495103793903068,313.412,0.48100000619888306,-2.55150331914366
313.758621,,0.002441527384030461,313.877,0.4429999887943268,-2.63414019968611
314.224138,,0.0035870402691923734,314.342,0.4650000035762787,-2.586079634294902
314.689655,,0.006453879647064876,314.807,0.4620000123977661,-2.5925108605603855
315.155172,,0.012541169464731569,315.273,0.4650000035762787,-2.585898680531515
315.62068999999997,,0.022196068559317016,315.737,0.45899999141693115,-2.5989252671623064
316.086207,,0.03399043903189844,316.203,0.4749999940395355,-2.564053806796272
316.551724,,0.04525438474378866,316.666,0.46399998664855957,-2.588038401931155
317.017241,,0.053528776937174644,317.136,0.46700000762939453,-2.581553952235932
317.482759,,0.05758794538747334,317.599,0.47999998927116394,-2.5533136358896917
317.94827599999996,,0.05701274369050684,318.062,0.48899999260902405,-2.5338153679768247
318.413793,,0.05092139573135082,318.525,0.46799999475479126,-2.579700752802408
318.87931000000003,,0.037480319916849233,318.995,0.44699999690055847,-2.6256074723464957
319.344828,,0.015322040507221512,319.461,0.46700000762939453,-2.582207188236378
319.810345,,0.013779701492560466,319.921,0.46700000762939453,-2.5823921126212728
320.275862,,0.043593946255811644,320.387,0.47200000286102295,-2.571690050270563
320.741379,,0.06583657558304673,320.852,0.4659999907016754,-2.58495361974905
321.20689699999997,,0.07522523184456463,321.318,0.49000000953674316,-2.5328520604877425
321.672414,,0.0728454560504605,321.785,0.47200000286102295,-2.5722422022296514
322.137931,,0.06455827235684305,322.251,0.48500001430511475,-2.544077291327306
322.603448,,0.055938576643348205,322.718,0.4659999907016754,-2.58560780909746
323.068966,,0.0485843055304961,323.177,0.4390000104904175,-2.6445428647360845
323.53448299999997,,0.04088414699367851,323.64,0.4880000054836273,-2.537873108857187
324.0,,0.03143607869207564,324.11,0.492000013589859,-2.52921098385946
324.465517,,0.020923090435349626,324.574,0.4729999899864197,-2.570623904273253
324.931034,,0.011009201059654741,325.036,0.46700000762939453,-2.583680433700827
325.396552,,0.002710729669206787,325.502,0.4519999921321869,-2.616312241985224
325.86206899999996,,0.0035170510625970124,325.965,0.46399998664855957,-2.5900896338736197
326.327586,,0.007083026695422487,326.431,0.4830000102519989,-2.5485872478731273
326.793103,,0.008009767966364255,326.896,0.46399998664855957,-2.5898469689365906
327.258621,,0.008202594308610712,327.362,0.46000000834465027,-2.5984045075253626
327.724138,,0.010464162741158122,327.829,0.46399998664855957,-2.5895155967172654
328.189655,,0.015476268632134934,328.295,0.46399998664855957,-2.5893288924593882
328.655172,,0.02055302358338606,328.759,0.4659999907016754,-2.584777879519125
329.12068999999997,,0.022268643022605315,329.224,0.46700000762939453,-2.582404067104647
329.586207,,0.020087788639400292,329.688,0.4650000035762787,-2.586570524526071
330.051724,,0.016769356206738438,330.15,0.4830000102519989,-2.5471735997204705
330.517241,,0.01528950740627788,330.618,0.47600001096725464,-2.562257416888318
330.982759,,0.015984559721708643,331.081,0.46399998664855957,-2.588254175668719
331.44827599999996,,0.016764832275546628,331.552,0.4620000123977661,-2.592489042517249
331.913793,,0.015462921776947467,332.014,0.4729999899864197,-2.568430117717665
332.37931,,0.011681309423882586,332.479,0.4729999899864197,-2.568367364544469
332.844828,,0.006877412602450924,332.946,0.47999998927116394,-2.553086819964348
333.310345,,0.0031006035064900556,333.412,0.46399998664855957,-2.5879490661344566
333.77586199999996,,0.0014784635430372091,333.873,0.47600001096725464,-2.5618432539479743
334.241379,,0.0016217108541085137,334.338,0.4699999988079071,-2.574986425501306
334.706897,,0.0023143588538746575,334.803,0.46700000762939453,-2.5816249707298145
335.17241399999995,,0.002606761400097461,335.269,0.47600001096725464,-2.5621483165638366
335.637931,,0.002344254010446608,335.734,0.47600001096725464,-2.5623041068123764
336.103448,,0.0020826250081822165,336.199,0.46399998664855957,-2.5886239435028107
336.56896600000005,,0.0025736288783218867,336.662,0.47600001096725464,-2.562671452710733
337.034483,,0.003870261354033752,337.125,0.46700000762939453,-2.5824804067368774
337.5,,0.004880053389605652,337.596,0.46399998664855957,-2.5892215447806017
337.965517,,0.0043934379249235215,338.058,0.48399999737739563,-2.5458515888704287
338.431034,,0.0026497930071208093,338.522,0.47099998593330383,-2.574368546263269
338.89655200000004,,0.0012243680426108686,338.992,0.5,-2.5113673971599377
339.36206899999996,,0.001194787452246084,339.45,0.46299999952316284,-2.592136827274784
339.827586,,0.0020097214756709544,339.921,0.47999998927116394,-2.5552346632234224
340.293103,,0.002372275944091376,340.38,0.4860000014305115,-2.542268907336795
340.758621,,0.001785891632194007,340.847,0.45899999141693115,-2.601166661263129
341.224138,,0.0009690620807614574,341.313,0.46799999475479126,-2.581599467592864
341.68965499999996,,0.0009679187892587426,341.777,0.49399998784065247,-2.524960045622808
342.155172,,0.0021089923998853116,342.243,0.46000000834465027,-2.5990034734737506
342.62069,,0.003784232012732565,342.711,0.4659999907016754,-2.5858663824361474
343.086207,,0.005033569136367284,343.174,0.47600001096725464,-2.5639819551775553
343.551724,,0.0052380259041344334,343.636,0.47200000286102295,-2.572568315632201
344.01724099999996,,0.00438895503413415,344.107,0.460999995470047,-2.596378629742602
344.48275900000004,,0.0028364190195692505,344.57,0.46399998664855957,-2.589666095273568
344.948276,,0.0008342605601840285,345.032,0.46399998664855957,-2.589472860287596
345.413793,,0.001599318127150335,345.498,0.46399998664855957,-2.589268473802151
345.87931,,0.004406999214688484,345.961,0.4620000123977661,-2.593416088206946
346.344828,,0.007301759178378768,346.426,0.45399999618530273,-2.610636713670362
346.81034500000004,,0.009970692325421242,346.892,0.45899999141693115,-2.5995421650206962
347.275862,,0.012360769128444395,347.358,0.4950000047683716,-2.520921851808779
347.741379,,0.014662363004132994,347.825,0.46299999952316284,-2.590466778999579
348.206897,,0.016959521056652434,348.291,0.47999998927116394,-2.553280213905968
348.672414,,0.018818771617881154,348.755,0.4429999887943268,-2.633768103528825
349.13793100000004,,0.019289986704033504,349.221,0.4819999933242798,-2.548710078346076
349.60344799999996,,0.01756840909659402,349.681,0.4659999907016754,-2.5835115327959746
350.068966,,0.013870442844665624,350.151,0.4699999988079071,-2.5747753556670734
350.534483,,0.009706435709661437,350.614,0.44600000977516174,-2.6270781456050543
351.0,,0.007059863361969775,351.076,0.45899999141693115,-2.598808100982248
351.465517,,0.006758741053510589,351.544,0.46000000834465027,-2.5967174831937263
351.93103399999995,,0.007399421136711776,352.007,0.4740000069141388,-2.5663372148724295
352.396552,,0.00642435504543581,352.472,0.4699999988079071,-2.575201538904787
352.862069,,0.002867606087463353,352.936,0.4699999988079071,-2.5753757896318676
353.32758600000005,,0.001322489030617098,353.402,0.4699999988079071,-2.575569697296798
353.793103,,0.0034120910288300606,353.866,0.45399999618530273,-2.6106364096734165
354.258621,,0.0031016025128753556,354.331,0.46700000762939453,-2.582531038948632
354.72413800000004,,0.002757086677895076,354.796,0.46700000762939453,-2.582750435817427
355.189655,,0.004413846797625855,355.262,0.47200000286102295,-2.5720721735825567
355.655172,,0.007437402298758419,355.729,0.45399999618530273,-2.611492285537999
356.12069,,0.009469360545900644,356.194,0.4790000021457672,-2.5572139900934303
356.586207,,0.00901106771674888,356.655,0.47600001096725464,-2.5639152972892045
357.05172400000004,,0.006672672948708629,357.125,0.46700000762939453,-2.583660846919641
357.517241,,0.004325544160718398,357.588,0.46399998664855957,-2.5903031851099203
357.982759,,0.003396473693458385,358.051,0.46399998664855957,-2.590375229305743
358.448276,,0.003765226620710146,358.517,0.46299999952316284,-2.5925894201144857
358.913793,,0.00409057896258292,358.98,0.4519999921321869,-2.616552709327563
359.37931000000003,,0.00330708938877766,359.445,0.46399998664855957,-2.5903696912526044
359.844828,,0.00189173704117308,359.911,0.47600001096725464,-2.564149699831333
360.310345,,0.0015032121596081037,360.377,0.47200000286102295,-2.572752664749626
360.775862,,0.0031664587690956145,360.844,0.4650000035762787,-2.587859174900003
361.241379,,0.005910578009398069,361.31,0.45899999141693115,-2.600759164837576
361.706897,,0.007576239071314305,361.773,0.46700000762939453,-2.5831351809957757
362.172414,,0.007066389329900382,362.239,0.48500001430511475,-2.5437069372940764
362.63793100000004,,0.005399909278663235,362.7,0.4690000116825104,-2.578340593725789
363.103448,,0.004291371836891817,363.17,0.46299999952316284,-2.591182489989061
363.568966,,0.004043192962160575,363.633,0.46399998664855957,-2.588775795501363
364.034483,,0.0033089064670636915,364.095,0.39800000190734863,-2.7323485107456364
364.5,,0.0009627844206840432,364.566,0.4620000123977661,-2.592714471468792
364.96551700000003,,0.00221371055729119,365.029,0.4699999988079071,-2.57510702307838
365.431034,,0.004254209843650093,365.494,0.4569999873638153,-2.603277331535005
365.896552,,0.004475046790997512,365.957,0.4690000116825104,-2.5770120371752037
366.362069,,0.004428439335652104,366.423,0.46399998664855957,-2.5878180819045298
366.827586,,0.005725869068456883,366.888,0.4560000002384186,-2.605196931021934
367.29310300000003,,0.007519222844579015,367.354,0.4569999873638153,-2.603006890562442
367.758621,,0.0071842484796956155,367.819,0.4779999852180481,-2.5572829157343926
368.224138,,0.0034658568730588945,368.284,0.44200000166893005,-2.635780182753295
368.689655,,0.0017557517354641144,368.751,0.45899999141693115,-2.5988462385538176
369.155172,,0.004973572093064271,369.217,0.45500001311302185,-2.607698246820846
369.62068999999997,,0.004164605038280957,369.68,0.46000000834465027,-2.59697270996548
370.086207,,0.0006203626815450616,370.143,0.46399998664855957,-2.5884511286164695
370.55172400000004,,0.002187589151639964,370.611,0.4749999940395355,-2.5646982258469255
371.017241,,0.001917634236317967,371.073,0.45100000500679016,-2.6172111869942856
371.482759,,0.0003351896849671378,371.537,0.4560000002384186,-2.606550609592046
371.948276,,0.0013953874869254302,372.006,0.4650000035762787,-2.587176036185294
372.413793,,0.00040814942239261276,372.465,0.45500001311302185,-2.609189379560289
372.87931000000003,,0.0036523403317546706,372.93,0.460999995470047,-2.596331460169133
373.344828,,0.005744778233729357,373.395,0.48100000619888306,-2.552952769313215
373.810345,,0.005443009459288236,373.862,0.47699999809265137,-2.561835576692759
374.275862,,0.0031122817394625473,374.327,0.43799999356269836,-2.6469405280253424
374.741379,,0.000461760405887469,374.793,0.4690000116825104,-2.579506297325499
375.20689699999997,,0.004375697871687742,375.258,0.46399998664855957,-2.5904663928927034
375.672414,,0.0070368950710440106,375.725,0.46799999475479126,-2.581778908659916
376.137931,,0.0068295821761048155,376.191,0.46299999952316284,-2.592658742066854
376.603448,,0.004265172071784393,376.652,0.47200000286102295,-2.5729971752267375
377.068966,,0.00249158435910577,377.121,0.48899999260902405,-2.5358670249266217
377.53448299999997,,0.004194452225757538,377.585,0.45500001311302185,-2.60981096112384
378.0,,0.008278970815176397,378.047,0.46399998664855957,-2.5900406490724417
378.465517,,0.01102396909757199,378.513,0.4819999933242798,-2.5506346492352705
378.931034,,0.010528401083285364,378.978,0.4650000035762787,-2.5874585927857634
379.396552,,0.008685089854955816,379.444,0.45500001311302185,-2.609015924692018
379.862069,,0.008475726016393322,379.911,0.46399998664855957,-2.5891701579208464
380.327586,,0.010506864246668754,380.37,0.49000000953674316,-2.532284734677689
380.79310300000003,,0.01290915842177579,380.837,0.46399998664855957,-2.5886930650887123
381.258621,,0.013964804256849468,381.303,0.453000009059906,-2.612433127582052
381.724138,,0.01386440943918324,381.77,0.46399998664855957,-2.5882619296169453
382.189655,,0.013669409116233735,382.235,0.46799999475479126,-2.5793659620386196
382.655172,,0.013234736609918734,382.696,0.4620000123977661,-2.5922863600292243
383.12068999999997,,0.011159858951803747,383.166,0.46399998664855957,-2.587812181372276
383.586207,,0.006949750391744234,383.629,0.47600001096725464,-2.5615892459495253
384.051724,,0.002219925759225218,384.092,0.46399998664855957,-2.5876939881489407
384.517241,,0.0009287593227188848,384.559,0.4569999873638153,-2.602947020797958
384.982759,,0.002129091461730691,385.022,0.48500001430511475,-2.5419888532641686
385.44827599999996,,0.0028074205599511255,385.488,0.4659999907016754,-2.58346713506503
385.913793,,0.004677095781571819,385.951,0.4690000116825104,-2.577052639953158
386.37931,,0.008655919408392462,386.416,0.45500001311302185,-2.607709880245551
386.84482799999995,,0.014398210460275614,386.882,0.47600001096725464,-2.5621446518051103
387.310345,,0.020047779072602863,387.347,0.4650000035762787,-2.5863207475300305
387.775862,,0.023113405421173155,387.814,0.4519999921321869,-2.6148728214517725
388.241379,,0.022655093440153432,388.28,0.4129999876022339,-2.700083147573119
388.70689699999997,,0.020487192115131336,388.745,0.4569999873638153,-2.6044726747294877
389.172414,,0.019478138526686502,389.21,0.4659999907016754,-2.585113458463498
389.637931,,0.020585837700499578,389.673,0.4909999966621399,-2.530885273809449
390.103448,,0.022001624609260265,390.136,0.4620000123977661,-2.5942858043084747
390.56896600000005,,0.021302123359661373,390.607,0.4580000042915344,-2.603195891877097
391.03448299999997,,0.01813067583429524,391.069,0.45899999141693115,-2.601183233922599
391.5,,0.014509938306160484,391.537,0.46700000762939453,-2.5838852815345335
391.965517,,0.01254802574443214,392.0,0.46700000762939453,-2.583977503549871
392.431034,,0.012142512054193179,392.465,0.47600001096725464,-2.564419609601459
392.896552,,0.011301457921386312,392.925,0.47699999809265137,-2.562246699110228
393.36206899999996,,0.00864098182244465,393.391,0.47999998927116394,-2.5556716908152235
393.827586,,0.004920125664755698,393.859,0.46399998664855957,-2.5904474683819623
394.293103,,0.0017625830584531638,394.324,0.48899999260902405,-2.5358575636972276
394.75862099999995,,0.00043219315778899713,394.789,0.4650000035762787,-2.587983901439339
395.224138,,0.0024286305425412443,395.254,0.46399998664855957,-2.5899690853633817
395.68965499999996,,0.004448575511255315,395.721,0.46000000834465027,-2.598464225678549
396.155172,,0.005839905128049717,396.18,0.46399998664855957,-2.5895110454522405
396.62069,,0.006691500608381143,396.648,0.5339999794960022,-2.436753549575961
397.086207,,0.00850009396649421,397.11,0.46399998664855957,-2.588999711820151
397.551724,,0.012208272240786923,397.578,0.46399998664855957,-2.5887424525509575
398.017241,,0.016145318759837976,398.04,0.47200000286102295,-2.571067015599175
398.48275900000004,,0.017109180082913254,398.505,0.4749999940395355,-2.5643031281455104
398.94827599999996,,0.013715179349409794,398.976,0.4620000123977661,-2.592422806424679
399.413793,,0.008001669341637253,399.441,0.46399998664855957,-2.5878947194756234
399.87931,,0.0033928065287579944,399.9,0.46399998664855957,-2.58776119369723
400.344828,,0.0015172764221561437,400.366,0.44699999690055847,-2.6247064070658204
400.810345,,0.001460599135867979,400.832,0.48399999737739563,-2.5440490851748256
401.27586199999996,,0.0017107622788856728,401.298,0.46299999952316284,-2.589798704116743
401.741379,,0.0018445643816986082,401.762,0.4740000069141388,-2.5658767905380477
402.206897,,0.002074493043352447,402.228,0.47999998927116394,-2.552892003491736
402.672414,,0.0021716478139093163,402.696,0.45399999618530273,-2.6096651931151063
403.137931,,0.0017996916972889676,403.158,0.46700000762939453,-2.581509041966282
403.60344799999996,,0.001540530790537167,403.621,0.47600001096725464,-2.562100272788548
404.068966,,0.0025572285282232515,404.092,0.4429999887943268,-2.6342215674611085
404.534483,,0.004942767744858939,404.555,0.4880000054836273,-2.536428208691215
405.0,,0.0069381975299717315,405.018,0.47200000286102295,-2.5715442791413774
405.465517,,0.00633777437656844,405.483,0.48100000619888306,-2.5521976007957083
405.931034,,0.002842377210151472,405.947,0.4740000069141388,-2.5677049370383944
406.39655200000004,,0.0011782820423990234,406.412,0.460999995470047,-2.596272332759034
406.862069,,0.0027428238428493274,406.877,0.46399998664855957,-2.589962578102078
407.327586,,0.00133313814222843,407.343,0.49000000953674316,-2.5335178147607307
407.793103,,0.0005028884956921317,407.807,0.4620000123977661,-2.5946875366918825
408.258621,,0.00010716468367538404,408.273,0.4519999921321869,-2.6166046508600362
408.72413800000004,,0.002129062666631461,408.737,0.46700000762939453,-2.584015114763226
409.18965499999996,,0.003358003342652891,409.203,0.46700000762939453,-2.584061851345752
409.655172,,0.0018015784900556778,409.666,0.47600001096725464,-2.564455313171475
410.12069,,0.0014029987057736417,410.136,0.46799999475479126,-2.581840148745477
410.586207,,0.004031788271602085,410.599,0.46700000762939453,-2.583930122655124
411.05172400000004,,0.005309776863559935,411.062,0.4690000116825104,-2.5794427176421117
411.51724099999996,,0.0061483428095908624,411.525,0.46000000834465027,-2.598883048309672
411.982759,,0.007981980056627163,411.995,0.4650000035762787,-2.587790130223002
412.448276,,0.01228311506451032,412.461,0.46299999952316284,-2.591921638775476
412.913793,,0.020353280409649042,412.926,0.46700000762939453,-2.5829618333670994
413.37931,,0.03211264967981111,413.392,0.46399998664855957,-2.5892405960106624
413.844828,,0.04494398278068303,413.851,0.46399998664855957,-2.5889791408164244
414.31034500000004,,0.054732922607468794,414.317,0.46700000762939453,-2.5821853791894784
414.775862,,0.05865558682433316,414.781,0.45100000500679016,-2.616797683365457
415.241379,,0.056606760339326385,415.247,0.4620000123977661,-2.5926059027594537
415.706897,,0.04942623841362268,415.71,0.4880000054836273,-2.535760137298662
416.172414,,0.03613858613854125,416.18,0.46700000762939453,-2.5813418887934083
416.63793100000004,,0.01433305931506671,416.644,0.46700000762939453,-2.5812085091777544
417.103448,,0.015659834201737798,417.106,0.47200000286102295,-2.5702227861707843
417.568966,,0.04766007621203798,417.57,0.46700000762939453,-2.58106720447598
418.034483,,0.0724425043087387,418.039,0.5920000076293945,-2.3087302268439354
418.5,,0.08430662633041346,418.505,0.46700000762939453,-2.58109665681964
418.96551700000003,,0.08426732879508732,418.968,0.4690000116825104,-2.57681725748426
419.43103399999995,,0.07696904094971951,419.434,0.3869999945163727,-2.7555888720608697
419.896552,,0.06604270630659576,419.895,0.4440000057220459,-2.6315711739785526
420.362069,,0.05314701454218226,420.361,0.48500001430511475,-2.542448667898355
420.827586,,0.03978322736278046,420.825,0.47600001096725464,-2.562286977392551
421.293103,,0.02775129460128785,421.29,0.47200000286102295,-2.5712530931913307
421.758621,,0.017700138745863132,421.755,0.4950000047683716,-2.5214090023845572
422.22413800000004,,0.008856004473483241,422.221,0.48100000619888306,-2.5521797525557384
422.689655,,0.0008099191518650443,422.688,0.4790000021457672,-2.556803522733622
423.15517200000005,,0.005488774682627482,423.151,0.46700000762939453,-2.5832030656429286
423.62069,,0.009088970299891868,423.621,0.4740000069141388,-2.56819018649158
424.086207,,0.010526323461833425,424.084,0.4830000102519989,-2.5487944542941836
424.55172400000004,,0.011403330391635715,424.547,0.4560000002384186,-2.6077981223223703
425.017241,,0.0130452499571366,425.01,0.4819999933242798,-2.5512961777493577
425.482759,,0.015813082410057164,425.476,0.4519999921321869,-2.6167570188355875
425.948276,,0.019039300037869272,425.946,0.46700000762939453,-2.58413417273086
426.413793,,0.021218107867732868,426.405,0.47999998927116394,-2.555822098110064
426.87931000000003,,0.020800854574873292,426.877,0.49000000953674316,-2.533997798477052
427.344828,,0.01749580610303953,427.335,0.4650000035762787,-2.5883789722694073
427.810345,,0.012858327571907307,427.8,0.47600001096725464,-2.5642843641337705
428.275862,,0.009205212484684203,428.266,0.46700000762939453,-2.583722349653907
428.741379,,0.007623683543077631,428.733,0.46700000762939453,-2.5835171775489236
429.20689699999997,,0.007076763851544717,429.199,0.4880000054836273,-2.5375309033038227
429.672414,,0.005614201815997867,429.667,0.4690000116825104,-2.5786676535678925
430.137931,,0.0023897208029332396,430.129,0.4690000116825104,-2.578395182868628
430.603448,,0.0016543645058838547,430.592,0.47600001096725464,-2.562865691037598
431.068966,,0.00486710450994362,431.055,0.48500001430511475,-2.542980408667392
431.534483,,0.0061268752571262165,431.526,0.4749999940395355,-2.56449917257481
432.0,,0.004977273536560207,431.988,0.47999998927116394,-2.5533561180166107
432.46551700000003,,0.0014444446925119163,432.454,0.5009999871253967,-2.507379918830807
432.931034,,0.003478832998575628,432.919,0.4779999852180481,-2.5572960651979653
433.396552,,0.007809057346379821,433.384,0.492000013589859,-2.526640189174213
433.862069,,0.010212930306879234,433.851,0.4880000054836273,-2.535243104798733
434.327586,,0.011424149324759995,434.316,0.47699999809265137,-2.5591434017230523
434.79310300000003,,0.012952089195285876,434.781,0.4749999940395355,-2.563485538705359
435.258621,,0.014668189154541142,435.247,0.46399998664855957,-2.5874865288264592
435.724138,,0.01485644620984468,435.711,0.4749999940395355,-2.5636077071711303
436.189655,,0.012476279442734863,436.173,0.46399998664855957,-2.5877073910071866
436.655172,,0.008166857906007442,436.64,0.4699999988079071,-2.5748144533100685
437.12068999999997,,0.003054356495469315,437.103,0.47200000286102295,-2.5706752978459226
437.586207,,0.0021206966684011413,437.566,0.4830000102519989,-2.5469605801488164
438.051724,,0.006255471365523136,438.036,0.4690000116825104,-2.5777366833087223
438.517241,,0.007463309693196455,438.502,0.515999972820282,-2.4756309639445737
438.982759,,0.004733593144322166,438.964,0.4729999899864197,-2.569609719116612
439.448276,,3.5222872473296635e-05,439.43,0.4880000054836273,-2.5372243936023087
439.913793,,0.0029468445029075456,439.897,0.4830000102519989,-2.548400986601415
440.37931000000003,,0.0019587276153413785,440.355,0.48500001430511475,-2.544307118314808
440.844828,,0.000854407436325651,440.822,0.4779999852180481,-2.559793271489707
441.310345,,0.002062928262720109,441.288,0.47999998927116394,-2.555636491432167
441.775862,,0.0014536283261439582,441.755,0.4970000088214874,-2.5187583792982036
442.241379,,0.002144042093019166,442.221,0.4690000116825104,-2.5798727714844762
442.70689699999997,,0.00594964180452023,442.682,0.4830000102519989,-2.54943399510905
443.172414,,0.010536247610677623,443.152,0.4790000021457672,-2.558158954789479
443.637931,,0.01230069973323745,443.614,0.48899999260902405,-2.5363300020786914
444.103448,,0.010730450155546713,444.077,0.47699999809265137,-2.56237944534012
444.568966,,0.008286799541586539,444.544,0.47999998927116394,-2.5557001677602664
445.03448299999997,,0.0065929787081405915,445.006,0.4729999899864197,-2.570762731069699
445.5,,0.004608608164271723,445.472,0.49399998784065247,-2.524783815758501
445.965517,,0.000979202183022539,445.936,0.47200000286102295,-2.5724539636056503
446.431034,,0.0032051739770328153,446.402,0.49000000953674316,-2.5329532055528916
446.896552,,0.005107094382785201,446.867,0.4860000014305115,-2.5413661904552054
447.36206899999996,,0.0032981338644349732,447.333,0.492000013589859,-2.5279848905783293
447.827586,,0.0005236945381052893,447.8,0.49000000953674316,-2.5320343790677637
448.29310300000003,,0.0030848917138338863,448.265,0.4830000102519989,-2.5469881921552058
448.758621,,0.00244089689366196,448.725,0.4830000102519989,-2.5467120081631305
449.224138,,0.0007039293572300602,449.191,0.49000000953674316,-2.531214407858902
449.689655,,0.003988858459456912,449.659,0.49000000953674316,-2.531003952771636
450.155172,,0.00520695097397059,450.121,0.4860000014305115,-2.539551324447911
450.62068999999997,,0.003541520827222855,450.592,0.49000000953674316,-2.5307181419611617
451.086207,,1.0822498999341502e-05,451.054,0.48500001430511475,-2.541545436666821
451.551724,,0.0030455956488031873,451.522,0.47999998927116394,-2.5524279752043286
452.017241,,0.003183329301739256,451.985,0.5049999952316284,-2.4980066281279156
452.482759,,7.17480340560863e-05,452.45,0.4830000102519989,-2.54603597246114
452.94827599999996,,0.004726356134849845,452.911,0.32199999690055847,-2.896952489379318
453.413793,,0.007907906059608238,453.377,0.4779999852180481,-2.557291092951031
453.87931,,0.008239554947797982,453.844,0.4690000116825104,-2.577151643239181
454.344828,,0.006517170425681994,454.31,0.4790000021457672,-2.555652220415113
454.810345,,0.004348142453229972,454.774,0.4869999885559082,-2.5385350687815262
455.27586199999996,,0.002753570772281064,455.24,0.4880000054836273,-2.536683088235502
455.741379,,0.0019664727113180105,455.703,0.47200000286102295,-2.571872758927677
456.206897,,0.0016266635707213185,456.165,0.48100000619888306,-2.5525907819533167
456.672414,,0.0008607935270692822,456.633,0.47600001096725464,-2.563794305498446
457.137931,,0.0010098778954752057,457.096,0.4869999885559082,-2.540113955784929
457.603448,,0.003403331405306503,457.566,0.4790000021457672,-2.557793162153045
458.06896600000005,,0.004784511255980491,458.029,0.4779999852180481,-2.560179390213143
458.53448299999997,,0.004442320994678937,458.494,0.5059999823570251,-2.4993353335778954
459.0,,0.0032623473166343356,458.957,0.4819999933242798,-2.5517259625809943
459.465517,,0.00226680490385199,459.423,0.5009999871253967,-2.5103763910450865
459.931034,,0.0012854161299456649,459.888,0.48399999737739563,-2.547398446281369
460.39655200000004,,1.1102367503421627e-05,460.354,0.5009999871253967,-2.5102871724854428
460.86206899999996,,0.0005469667402283337,460.818,0.47200000286102295,-2.573336960303715
461.327586,,0.0012325621312436414,461.283,0.49900001287460327,-2.514330041777485
461.793103,,0.004922964155749013,461.751,0.4690000116825104,-2.5794596594042676
462.258621,,0.007860451543785901,462.21,0.492000013589859,-2.529081787926529
462.724138,,0.0076434892546730976,462.681,0.49799999594688416,-2.5157099720806597
463.18965499999996,,0.004391745304903604,463.143,0.47699999809265137,-2.5611397992639615
463.655172,,0.00039950170165238997,463.611,0.4779999852180481,-2.5586283289995895
464.12069,,0.0019639688317750707,464.073,0.3869999945163727,-2.756554030651376
464.58620699999994,,0.0019385221900737725,464.536,0.4830000102519989,-2.547085759632729
465.051724,,0.00044310480604407826,465.007,0.4959999918937683,-2.5184666125414945
465.517241,,0.0011409658020170447,465.465,0.4880000054836273,-2.5356271987697308
465.98275900000004,,0.0021850224804036587,465.93,0.4819999933242798,-2.548467152152794
466.448276,,0.0030097632923811756,466.395,0.4869999885559082,-2.537385986627627
466.913793,,0.004185352264023061,466.862,0.492000013589859,-2.526354416392559
467.37931,,0.005691981307798443,467.328,0.4830000102519989,-2.545877806553313
467.844828,,0.006596431310933397,467.793,0.4959999918937683,-2.5175273637790148
468.31034500000004,,0.005665274679365687,468.259,0.4779999852180481,-2.5567723333845342
468.77586199999996,,0.002580816410834243,468.725,0.4749999940395355,-2.5633944406106255
469.241379,,0.0014719256272998028,469.191,0.4880000054836273,-2.535212618678204
469.706897,,0.004453569401396639,469.652,0.5009999871253967,-2.507080308683911
470.172414,,0.004652777281989469,470.122,0.48899999260902405,-2.5334572548999748
470.63793100000004,,0.0018532655772336571,470.585,0.4880000054836273,-2.535905169383564
471.10344799999996,,0.0018862586571810936,471.047,0.4860000014305115,-2.5405599176334763
471.568966,,0.0032655727072447246,471.513,0.492000013589859,-2.5278044231844925
472.034483,,0.0009089701730327263,471.978,0.49000000953674316,-2.532487268821924
472.5,,0.0027390911025850398,472.444,0.49000000953674316,-2.532811877982662
472.965517,,0.00397910821298119,472.911,0.4959999918937683,-2.520053656737813
473.43103399999995,,0.0021927986246789623,473.376,0.49000000953674316,-2.5334184380285913
473.89655200000004,,0.00032669166396987923,473.841,0.5040000081062317,-2.5031804348833933
474.362069,,0.0009761449972960775,474.307,0.48399999737739563,-2.546978596565811
474.827586,,0.0033085080498428845,474.766,0.47999998927116394,-2.5558741215823417
475.293103,,0.004527326096927756,475.231,0.49799999594688416,-2.516789754825896
475.758621,,0.003494486811377006,475.699,0.4970000088214874,-2.5190455462824035
476.22413800000004,,0.0017254870737177725,476.162,0.5149999856948853,-2.479849941302005
476.689655,,0.0008374358104478885,476.63,0.503000020980835,-2.5059555540251917
477.155172,,0.00027859799294943866,477.092,0.503000020980835,-2.5058606881895185
477.62069,,0.0015067725848275113,477.555,0.5009999871253967,-2.5100697184592993
478.086207,,0.004382756189922987,478.025,0.49000000953674316,-2.533837959590235
478.55172400000004,,0.006291392783022772,478.491,0.492000013589859,-2.529241882227913
479.01724099999996,,0.0056935669220598865,478.954,0.49000000953674316,-2.5333261254029678
479.482759,,0.003196522076209596,479.419,0.48399999737739563,-2.5460993273357846
479.948276,,0.0005335610790817469,479.884,0.492000013589859,-2.528355083002802
480.413793,,0.0012229365559356517,480.35,0.492000013589859,-2.5280333021063637
480.87931000000003,,0.0020744495538452894,480.815,0.492000013589859,-2.5277145010686786
481.344828,,0.0025050460649495123,481.281,0.4779999852180481,-2.5579098710331114
481.810345,,0.0032136053853163288,481.741,0.5009999871253967,-2.507517613925835
482.275862,,0.005119462274984241,482.206,0.48399999737739563,-2.5443021142358853
482.74137900000005,,0.008739002319414583,482.67,0.4860000014305115,-2.539730923804597
483.206897,,0.013143903608341972,483.139,0.47999998927116394,-2.5526343955849744
483.672414,,0.016059332563616666,483.603,0.5009999871253967,-2.5067645659215656
484.13793100000004,,0.015920042628158954,484.065,0.492000013589859,-2.5263073568709404
484.603448,,0.01401771734019761,484.533,0.48100000619888306,-2.5502627019135073
485.068966,,0.013693594874035655,484.995,0.49000000953674316,-2.5307007652550917
485.534483,,0.01668255666617349,485.461,0.4950000047683716,-2.51990736373744
486.0,,0.02082899205443186,485.926,0.49000000953674316,-2.530950862097778
486.46551700000003,,0.022184764814352602,486.391,0.4950000047683716,-2.520253557034191
486.931034,,0.018992108397880045,486.859,0.5130000114440918,-2.4812728879137147
487.396552,,0.012984586841050636,487.324,0.48500001430511475,-2.54254165221867
487.862069,,0.007154709698132177,487.789,0.49300000071525574,-2.525402982095749
488.327586,,0.0028949927677720077,488.255,0.4819999933242798,-2.5496740477783684
488.79310300000003,,0.0008077391596683428,488.722,0.45100000500679016,-2.617524939104825
489.258621,,0.00579040335249501,489.18,0.5049999952316284,-2.5001883406035765
489.724138,,0.012339514798816838,489.648,0.4749999940395355,-2.5658454977874863
490.189655,,0.018424880926018402,490.111,0.4790000021457672,-2.5574067026517047
490.655172,,0.021691296109057432,490.581,0.5180000066757202,-2.472684561348001
491.12069,,0.022196057465237295,491.043,0.4880000054836273,-2.538250130487932
491.586207,,0.022439148269522754,491.509,0.4880000054836273,-2.5384112575888698
492.05172400000004,,0.0242895835728136,491.973,0.47600001096725464,-2.5646671403735897
492.517241,,0.026498174668022487,492.439,0.503000020980835,-2.5059032778630352
492.982759,,0.026050497504892283,492.903,0.49000000953674316,-2.534230750128547
493.448276,,0.021932300725094146,493.37,0.4909999966621399,-2.5320023848943
493.913793,,0.016707452318730085,493.836,0.5009999871253967,-2.510113096786646
494.37931000000003,,0.013727791586009966,494.295,0.5080000162124634,-2.494709374573362
494.844828,,0.013275659442530202,494.76,0.5040000081062317,-2.5032250644787006
495.310345,,0.012557942108252423,495.225,0.49000000953674316,-2.5334879872410845
495.775862,,0.009480740057042185,495.695,0.492000013589859,-2.5288613455169724
496.241379,,0.005067422896836949,496.158,0.5009999871253967,-2.5089615275048045
496.70689699999997,,0.0015823355285416345,496.625,0.49000000953674316,-2.5326208556803613
497.172414,,0.000425886985358808,497.088,0.4970000088214874,-2.5170604661645406
497.637931,,0.0020394196732035465,497.551,0.4880000054836273,-2.536364139223906
498.103448,,0.003773822446432109,498.021,0.47099998593330383,-2.5731126657777508
498.568966,,0.004963179339027598,498.48,0.47600001096725464,-2.561956047848269
499.03448299999997,,0.005214594416081133,498.946,0.48399999737739563,-2.5442968388736515
499.5,,0.005134361394732729,499.412,0.49000000953674316,-2.5310346038254763
499.96551700000003,,0.005211830106774916,499.877,0.4880000054836273,-2.535246683901468
500.431034,,0.004918387474084175,500.342,0.48500001430511475,-2.5416867579776175
500.89655200000004,,0.003562845415318833,500.807,0.48399999737739563,-2.5438218507088437
501.362069,,0.0016512946205515567,501.273,0.49000000953674316,-2.530759663525016
501.827586,,0.0008708976274059799,501.736,0.4880000054836273,-2.5351792925323533
502.293103,,0.002648123229307283,502.202,0.492000013589859,-2.526577278598714
502.758621,,0.0066961174378606615,502.666,0.4790000021457672,-2.5550590177583055
503.224138,,0.01089694007562914,503.136,0.4569999873638153,-2.6031909402999354
503.68965499999996,,0.012869868613227881,503.599,0.48399999737739563,-2.544605419181323
504.15517200000005,,0.012060534665223999,504.062,0.4779999852180481,-2.55794370443614
504.62068999999997,,0.010142325892750484,504.525,0.5019999742507935,-2.5059416473677016
505.08620699999994,,0.008913681850964295,504.995,0.5009999871253967,-2.5084151231685623
505.55172400000004,,0.008123661371977049,505.461,0.48899999260902405,-2.5348536858638653
506.017241,,0.0062239334766553776,505.926,0.4880000054836273,-2.537318347841161
506.48275899999993,,0.0030189249918033297,506.391,0.4819999933242798,-2.550659119250489
506.948276,,0.00026321580818714814,506.852,0.49300000071525574,-2.5269374204646344
507.413793,,0.0005919729473033072,507.317,0.5099999904632568,-2.4901104567376295
507.87931,,6.288991552411438e-06,507.785,0.4860000014305115,-2.5425679607762244
508.344828,,0.0007136573493490854,508.251,0.5019999742507935,-2.5078347578945515
508.810345,,0.0009423584057979531,508.71,0.49300000071525574,-2.527519310866234
509.27586199999996,,0.000606506380721635,509.181,0.492000013589859,-2.52972437917462
509.74137900000005,,0.00042652067082102595,509.643,0.4819999933242798,-2.55148700211856
510.20689699999997,,0.0018952462050800519,510.106,0.4740000069141388,-2.568843564717943
510.67241399999995,,0.002687605509246692,510.574,0.49000000953674316,-2.533866683443209
511.13793100000004,,0.00184543106997772,511.036,0.49799999594688416,-2.5162765445034463
511.603448,,9.997277507422855e-05,511.502,0.49000000953674316,-2.533507078759388
512.0689659999999,,0.001571954140583636,511.972,0.4880000054836273,-2.5376347043668437
512.534483,,0.0018616096792236484,512.43,0.4880000054836273,-2.537381532369895
513.0,,0.002024217694896565,512.896,0.5019999742507935,-2.5066116355467356
513.465517,,0.003477499413779719,513.361,0.49799999594688416,-2.5150496027482254
513.931034,,0.006034715966647499,513.829,0.5080000162124634,-2.4929871188112527
514.396552,,0.007929032826013736,514.294,0.48399999737739563,-2.545008163641133
514.862069,,0.007777577945020122,514.755,0.4819999933242798,-2.5491172626175533
515.327586,,0.005945670998237013,515.221,0.49000000953674316,-2.531466189886678
515.793103,,0.003835271447727628,515.689,0.49000000953674316,-2.531277183908839
516.258621,,0.0023843435670925376,516.151,0.48500001430511475,-2.5420198522170763
516.724138,,0.0015853325080173789,516.622,0.4860000014305115,-2.539733684303015
517.189655,,0.0010209626260397312,517.084,0.5049999952316284,-2.498277570907048
517.655172,,0.0002756600141586121,517.548,0.49799999594688416,-2.513513066178987
518.1206900000001,,0.0010685204027894332,518.01,0.4790000021457672,-2.5549394792010744
518.5862070000001,,0.003137792294464235,518.476,0.492000013589859,-2.5266955143657674
519.051724,,0.00516193520843472,518.947,0.4860000014305115,-2.539889554783935
519.517241,,0.005704279722434008,519.405,0.48500001430511475,-2.54222979188093
519.982759,,0.004096639252495458,519.87,0.4880000054836273,-2.535889738103665
520.448276,,0.0015366471780850436,520.335,0.5120000243186951,-2.483825334745604
520.9137929999999,,0.00025253844905430184,520.8,0.4970000088214874,-2.5167478244636308
521.37931,,0.00132667767610775,521.267,0.4830000102519989,-2.5475037925505193
521.844828,,0.003469397354504243,521.733,0.4779999852180481,-2.558657018523295
522.310345,,0.004226659759194764,522.198,0.49000000953674316,-2.5327702382647663
522.7758620000001,,0.002521501267515215,522.666,0.4950000047683716,-2.5221227555290033
523.241379,,0.00024833234785227447,523.129,0.47999998927116394,-2.5550292419977834
523.7068969999999,,0.001837796088787451,523.592,0.4779999852180481,-2.5595877761063717
524.172414,,0.0014749184029647165,524.062,0.47600001096725464,-2.5641150258580394
524.637931,,0.00011101426463610271,524.522,0.49900001287460327,-2.5141394269796775
525.103448,,0.0011630550466717761,524.992,0.49000000953674316,-2.5338393242362
525.568966,,0.0020793864114292287,525.45,0.4970000088214874,-2.5186366670374567
526.034483,,0.0026967903874720815,525.915,0.5059999823570251,-2.499031111005973
526.5,,0.002876453595886054,526.381,0.5009999871253967,-2.509880770895245
526.9655170000001,,0.0025617388086469042,526.847,0.5009999871253967,-2.5097930977014435
527.4310340000001,,0.001997755359877233,527.313,0.4880000054836273,-2.5379871540322427
527.8965519999999,,0.0013588899725164923,527.778,0.47699999809265137,-2.5617883523773184
528.362069,,0.0006329297644385055,528.244,0.492000013589859,-2.528914827876404
528.827586,,0.00018350898478745596,528.707,0.49399998784065247,-2.524339980936278
529.293103,,0.000843274591419481,529.17,0.4909999966621399,-2.530641186099152
529.7586210000001,,0.0028012448316482876,529.64,0.492000013589859,-2.5282182375619846
530.224138,,0.0047233463167797906,530.103,0.5049999952316284,-2.499649583950794
530.689655,,0.004790834496965781,530.566,0.5009999871253967,-2.508123311832929
531.155172,,0.0027639762300309856,531.036,0.5370000004768372,-2.429463208137457
531.62069,,0.0005533240545851563,531.502,0.5019999742507935,-2.5055060424210795
532.086207,,0.0005009549841738884,531.964,0.5130000114440918,-2.481356661194771
532.5517239999999,,0.0031239102917869654,532.43,0.4699999988079071,-2.5748870646688795
533.017241,,0.006531376743018108,532.896,0.5070000290870667,-2.494163484414392
533.482759,,0.008240289193698661,533.361,0.5049999952316284,-2.498448342123804
533.9482760000001,,0.007859248908898284,533.826,0.5009999871253967,-2.507133023383117
534.413793,,0.007682211015783955,534.285,0.5440000295639038,-2.413463834146016
534.87931,,0.009986005966158803,534.751,0.5009999871253967,-2.5072001404285165
535.344828,,0.013908173974277512,535.217,0.5329999923706055,-2.4375775086713087
535.810345,,0.01590781125782752,535.685,0.5230000019073486,-2.459494742636764
536.275862,,0.013641788006090734,536.147,0.503000020980835,-2.5032310448241235
536.7413789999999,,0.008772392776509,536.61,0.5370000004768372,-2.429348119455407
537.206897,,0.005389083273924987,537.08,0.5239999890327454,-2.457882784753685
537.672414,,0.005790122539725831,537.541,0.5379999876022339,-2.4276079700549893
538.137931,,0.00824791657351541,538.011,0.5389999747276306,-2.4256623910112762
538.6034480000001,,0.009048626241577123,538.477,0.531000018119812,-2.443323999026109
539.0689659999999,,0.006344108406123376,538.94,0.5450000166893005,-2.4130478275494993
539.5344829999999,,0.0015247320334172974,539.406,0.5389999747276306,-2.426330085212078
540.0,,0.002967273530854655,539.866,0.5210000276565552,-2.465735303048729
540.465517,,0.006196143495303748,540.332,0.5690000057220459,-2.3613234997077477
540.931034,,0.008648764586214146,540.799,0.5419999957084656,-2.420278330241206
541.396552,,0.010571399670756008,541.265,0.5669999718666077,-2.365907342741193
541.862069,,0.011656012310059716,541.729,0.5839999914169312,-2.328926092548596
542.327586,,0.01214849300600795,542.195,0.5230000019073486,-2.4618389325717462
542.7931030000001,,0.012962020883594941,542.655,0.5529999732971191,-2.3964556647706092
543.258621,,0.014422653824348711,543.125,0.5789999961853027,-2.339748563667771
543.7241379999999,,0.01589805591874865,543.588,0.5809999704360962,-2.3352917012609953
544.189655,,0.016949748404392666,544.051,0.5630000233650208,-2.3743735944245334
544.655172,,0.01799770073943742,544.518,0.5879999995231628,-2.3197445282242075
545.12069,,0.019691571650237605,544.981,0.5519999861717224,-2.397989482509579
545.5862070000001,,0.022528765506037936,545.446,0.5699999928474426,-2.358570590428744
546.051724,,0.027225237251948902,545.911,0.550000011920929,-2.401930705224667
546.517241,,0.034469036829691393,546.377,0.6039999723434448,-2.2840676181625215
546.982759,,0.043899410908980946,546.844,0.5960000157356262,-2.301282797791218
547.448276,,0.053839180678280446,547.31,0.5830000042915344,-2.3293999358194943
547.9137929999999,,0.06203710352127441,547.773,0.5709999799728394,-2.355354467909337
548.3793099999999,,0.06617349299188585,548.239,0.5929999947547913,-2.307257139512636
548.844828,,0.06406377789593562,548.7,0.5989999771118164,-2.2940450955629723
549.310345,,0.05441179316299099,549.169,0.6119999885559082,-2.2656127403754547
549.775862,,0.03735514308435355,549.63,0.5929999947547913,-2.3069306041266042
550.241379,,0.013666061309645792,550.099,0.5979999899864197,-2.295997033979285
550.706897,,0.015806071153409346,550.562,0.5879999995231628,-2.3177808170394534
551.172414,,0.048356714909824135,551.025,0.6019999980926514,-2.287314667617713
551.637931,,0.07751540897317825,551.49,0.5789999961853027,-2.3374950173786937
552.103448,,0.09535665358514993,551.96,0.6449999809265137,-2.193809048997468
552.568966,,0.09826049182170853,552.426,0.5860000252723694,-2.3224831545425197
553.034483,,0.08979979392980181,552.885,0.5950000286102295,-2.303034722542392
553.5,,0.07718408720520685,553.351,0.5879999995231628,-2.318466050172774
553.965517,,0.06533708934326395,553.817,0.5889999866485596,-2.316483732709565
554.4310340000001,,0.05477440752520177,554.283,0.6000000238418579,-2.2927239981983605
554.896552,,0.04398288827786983,554.747,0.597000002861023,-2.2994677149425113
555.3620689999999,,0.03219450279942591,555.213,0.5540000200271606,-2.3933536295596585
555.827586,,0.01984840101178926,555.681,0.5879999995231628,-2.3194744516550903
556.293103,,0.00786630590733708,556.143,0.6330000162124634,-2.22161329966763
556.758621,,0.002499602538889717,556.607,0.5960000157356262,-2.302377323792042
557.224138,,0.009649873058268846,557.077,0.5929999947547913,-2.3090389116223555
557.689655,,0.012632795839373231,557.54,0.5860000252723694,-2.324383544772095
558.155172,,0.012500156084081896,558.003,0.6420000195503235,-2.2024382315518998
558.6206900000001,,0.012086093370878438,558.468,0.5960000157356262,-2.3026771013625713
559.0862070000001,,0.013913175868224199,558.933,0.5929999947547913,-2.309196239718724
559.5517239999999,,0.01830242845158703,559.398,0.5889999866485596,-2.317857885023038
560.017241,,0.02351056355065345,559.862,0.593999981880188,-2.3068775173056246
560.482759,,0.027376444635264417,560.328,0.5649999976158142,-2.3699403613666226
560.948276,,0.028675213170162212,560.793,0.5889999866485596,-2.317508446503176
561.413793,,0.027257428377959025,561.258,0.574999988079071,-2.3478433382023067
561.87931,,0.02350999215986671,561.726,0.5929999947547913,-2.308444657083935
562.344828,,0.018084965987195088,562.191,0.5730000138282776,-2.351823605558055
562.8103450000001,,0.012028794663309535,562.655,0.5929999947547913,-2.3080518134517374
563.275862,,0.006614518155075365,563.117,0.5709999799728394,-2.355784705104355
563.7413789999999,,0.0026075580999623932,563.585,0.5960000157356262,-2.301128542172059
564.206897,,0.0002451495914542016,564.047,0.5450000166893005,-2.412063688939038
564.672414,,0.002826750415013809,564.513,0.5960000157356262,-2.300796408606034
565.137931,,0.005838522086128788,564.978,0.5699999928474426,-2.3573092316604733
565.603448,,0.00935624748795587,565.444,0.5759999752044678,-2.344133188080337
566.068966,,0.012812487349582282,565.911,0.5389999747276306,-2.4246709424981994
566.534483,,0.015168610594648229,566.37,0.5540000200271606,-2.391953740708274
567.0,,0.015366872495489306,566.837,0.5540000200271606,-2.3919522436775797
567.465517,,0.013059993818080167,567.303,0.5379999876022339,-2.426844735935797
567.931034,,0.009134362189635876,567.771,0.5789999961853027,-2.3375879737338647
568.396552,,0.005407650651541198,568.236,0.5419999957084656,-2.41829655622112
568.862069,,0.0033308636432157895,568.699,0.5410000085830688,-2.4206014740187642
569.327586,,0.0025820622358171254,569.161,0.5379999876022339,-2.4272878257162716
569.793103,,0.001225937592812743,569.63,0.5490000247955322,-2.4034917197749874
570.2586210000001,,0.0021567285026625345,570.091,0.527999997138977,-2.4494255110756757
570.724138,,0.0066068723179153205,570.555,0.5339999794960022,-2.436542990731459
571.189655,,0.009654531664895332,571.025,0.515999972820282,-2.4759493534908152
571.655172,,0.010034096731099772,571.49,0.5529999732971191,-2.3955247435011393
572.12069,,0.00883938727290977,571.953,0.5630000233650208,-2.373910828995783
572.586207,,0.007829157039923254,572.419,0.48100000619888306,-2.552714766180216
573.051724,,0.007492490934918564,572.88,0.5249999761581421,-2.4569878326936205
573.517241,,0.007429703136479129,573.346,0.5009999871253967,-2.5093837646215973
573.982759,,0.007744885997298938,573.81,0.5139999985694885,-2.481140690642742
574.4482760000001,,0.00871494515843137,574.275,0.515999972820282,-2.4768311024122287
574.913793,,0.009448986450480314,574.741,0.5189999938011169,-2.4703090110100114
575.37931,,0.008597320783766642,575.206,0.6069999933242798,-2.2785657126761465
575.844828,,0.006728583848795401,575.67,0.5130000114440918,-2.4832996000040706
576.310345,,0.006330010159371057,576.139,0.49000000953674316,-2.533316829886859
576.775862,,0.008548111368587854,576.6,0.4959999918937683,-2.520126304617342
577.241379,,0.011274794610733803,577.069,0.5009999871253967,-2.5090915452745026
577.706897,,0.011631464217173232,577.53,0.48899999260902405,-2.535075573825956
578.172414,,0.009378910241251467,578.0,0.4519999921321869,-2.6155139243723102
578.6379310000001,,0.006641772813783728,578.466,0.4880000054836273,-2.5369054430736866
579.1034480000001,,0.00489723838987539,578.925,0.5120000243186951,-2.4844398993819024
579.5689659999999,,0.0035172414183570646,579.391,0.4790000021457672,-2.5561612957110658
580.034483,,0.0012296819589787738,579.856,0.5070000290870667,-2.4949945732605956
580.5,,0.0019126678056338553,580.322,0.4819999933242798,-2.549311174340518
580.965517,,0.0044176472180750955,580.788,0.5009999871253967,-2.507786624721196
581.431034,,0.005013782970138256,581.254,0.492000013589859,-2.5272875861369855
581.896552,,0.004209196213784346,581.718,0.49000000953674316,-2.5315647225568276
582.362069,,0.003986621692982475,582.184,0.48100000619888306,-2.55112183066734
582.827586,,0.005724865087543312,582.647,0.49399998784065247,-2.5227796521773156
583.2931030000001,,0.008416152771530417,583.11,0.46700000762939453,-2.5816149083539996
583.758621,,0.009204227365318627,583.581,0.47600001096725464,-2.5620503465119064
584.2241379999999,,0.00600495935687451,584.044,0.46799999475479126,-2.5795530404046154
584.689655,,0.0002752320341832339,584.509,0.4519999921321869,-2.6145128521772083
585.155172,,0.006243661956569272,584.973,0.4569999873638153,-2.603746064771603
585.6206900000001,,0.008903129981231973,585.438,0.46700000762939453,-2.5821065154619465
586.0862070000001,,0.008089730565058885,585.904,0.46299999952316284,-2.5909831635296032
586.551724,,0.006162672814074684,586.369,0.4659999907016754,-2.584618634625287
587.017241,,0.005562462655742825,586.836,0.44999998807907104,-2.619652178035703
587.482759,,0.00676340961712663,587.295,0.45899999141693115,-2.6002176170447733
587.948276,,0.008212437586967197,587.763,0.4650000035762787,-2.5873110637484174
588.4137929999999,,0.007771214931939346,588.229,0.46399998664855957,-2.589641194709605
588.87931,,0.004275695344723233,588.692,0.45100000500679016,-2.6180961471106285
589.344828,,0.0017537285952715597,589.155,0.4690000116825104,-2.5789897931106807
589.810345,,0.008499360329272565,589.625,0.4880000054836273,-2.537677144302646
590.2758620000001,,0.013974916034270136,590.088,0.45100000500679016,-2.618338094077777
590.741379,,0.017157931207871305,590.551,0.45899999141693115,-2.6009283465539994
591.2068969999999,,0.018465536496502486,591.021,0.43799999356269836,-2.6466681025019474
591.672414,,0.019256245323507882,591.48,0.4399999976158142,-2.642268710677886
592.137931,,0.02047419942107935,591.946,0.4569999873638153,-2.605160873036927
592.603448,,0.02145005149138261,592.412,0.45899999141693115,-2.600705708291843
593.068966,,0.020459568273035557,592.88,0.4429999887943268,-2.63544243073905
593.534483,,0.016963864428188806,593.346,0.4560000002384186,-2.6069789083633785
594.0,,0.012711420319866594,593.81,0.46700000762939453,-2.5828576652544153
594.4655170000001,,0.009738750603746234,594.276,0.4519999921321869,-2.6153712058332896
594.9310340000001,,0.007858728602262957,594.741,0.44999998807907104,-2.619558133364794
595.3965519999999,,0.005490298807038825,595.2,0.4519999921321869,-2.61503236287926
595.862069,,0.002701169825965327,595.67,0.44699999690055847,-2.6257647849713175
596.327586,,0.0016014373547893145,596.132,0.44699999690055847,-2.625617183013069
596.793103,,0.0030791169062174576,596.6,0.46000000834465027,-2.597165138178596
597.2586210000001,,0.004642166751955278,597.062,0.4569999873638153,-2.603593494992258
597.724138,,0.0028656491878672912,597.525,0.45100000500679016,-2.616583261558442
598.189655,,0.0025904964573412346,597.995,0.45899999141693115,-2.5991004572819056
598.655172,,0.008655894487366377,598.461,0.4650000035762787,-2.58600487257112
599.12069,,0.012373802205494918,598.926,0.4410000145435333,-2.6382996524893376
599.586207,,0.013497208146022054,599.391,0.4490000009536743,-2.620909036908532
600.0517239999999,,0.013430568286005857,599.852,0.43799999356269836,-2.6449431727793
600.517241,,0.013139994444360821,600.317,0.45500001311302185,-2.608003152967288
600.982759,,0.013076169752188359,600.781,0.453000009059906,-2.612481956981834
601.448276,,0.013934164125176045,601.247,0.44600000977516174,-2.627874239321773
601.913793,,0.01596981594366776,601.719,0.4440000057220459,-2.6323890951116162
602.37931,,0.018029354325532102,602.177,0.47999998927116394,-2.554125333422103
602.844828,,0.018519220711867294,602.64,0.44699999690055847,-2.626191995350529
603.310345,,0.017178406742740772,603.11,0.46299999952316284,-2.5915030273674815
603.775862,,0.014995079031769406,603.57,0.4569999873638153,-2.604736976039697
604.2413789999999,,0.012621214934984342,604.039,0.5009999871253967,-2.509024691171577
604.706897,,0.009773617846516333,604.505,0.453000009059906,-2.6137287420135094
605.172414,,0.006062335437986737,604.968,0.46399998664855957,-2.5898697263762855
605.637931,,0.0015445533216262607,605.434,0.453000009059906,-2.613915235159889
606.1034480000001,,0.0035493517460342293,605.895,0.45399999618530273,-2.611788918189813
606.5689659999999,,0.008845720790333703,606.36,0.44600000977516174,-2.6292408851406566
607.0344829999999,,0.013417054544528583,606.825,0.45899999141693115,-2.6009110830803377
607.5,,0.01606715194925651,607.291,0.4560000002384186,-2.6074093729896832
607.965517,,0.016494363269545197,607.756,0.4429999887943268,-2.6356653192398185
608.431034,,0.015782812399442417,608.221,0.45100000500679016,-2.6181432762844645
608.896552,,0.0152363900795313,608.692,0.4390000104904175,-2.64417116119795
609.362069,,0.014854918705481874,609.154,0.46399998664855957,-2.5895696304935907
609.827586,,0.013335135506572176,609.616,0.4560000002384186,-2.6068478467121907
610.293103,,0.009518011253361368,610.086,0.4560000002384186,-2.6066860760326764
610.758621,,0.0034908749092213464,610.548,0.4399999976158142,-2.641377635430994
611.2241379999999,,0.003856024988028124,611.01,0.45500001311302185,-2.6085317634841707
611.689655,,0.012058363365383051,611.476,0.4429999887943268,-2.6345156565853167
612.155172,,0.02130543112420513,611.94,0.45100000500679016,-2.6169378907814544
612.62069,,0.03117433346253882,612.405,0.49399998784065247,-2.523122881550005
613.0862070000001,,0.03959031548045195,612.87,0.44600000977516174,-2.627583804109184
613.551724,,0.04377132921424837,613.335,0.45899999141693115,-2.599170706193043
614.017241,,0.042403225485943934,613.8,0.44699999690055847,-2.62525098379613
614.4827590000001,,0.036532041763554866,614.266,0.4580000042915344,-2.601251701381491
614.948276,,0.027997614145820332,614.733,0.453000009059906,-2.6121413145930297
615.4137929999999,,0.01705236178750634,615.199,0.47600001096725464,-2.562059030561235
615.8793099999999,,0.001943683516947362,615.667,0.4440000057220459,-2.6318318171263355
616.344828,,0.01856433635361906,616.13,0.45500001311302185,-2.6079508556503135
616.810345,,0.04196018271546991,616.592,0.4569999873638153,-2.6037035145648026
617.275862,,0.06171600203008108,617.062,0.46000000834465027,-2.59729929342069
617.741379,,0.07121012726210657,617.525,0.45500001311302185,-2.6083418920321146
618.206897,,0.06867783255702728,617.988,0.45500001311302185,-2.6085041638229267
618.672414,,0.0584874059156432,618.454,0.45399999618530273,-2.6108528895118086
619.137931,,0.04740088770773322,618.921,0.4620000123977661,-2.5935958243097352
619.603448,,0.039330374204028,619.38,0.4399999976158142,-2.641694934844223
620.068966,,0.033406735816602966,619.845,0.46399998664855957,-2.589567485563328
620.534483,,0.026641602487568913,620.31,0.44699999690055847,-2.626750462794356
621.0,,0.01786408476576286,620.777,0.43299999833106995,-2.65737895517243
621.465517,,0.008799510654685446,621.243,0.44699999690055847,-2.626983005852998
621.9310340000001,,0.001694417328449377,621.711,0.4580000042915344,-2.6030966335998316
622.396552,,0.003308313688336466,622.173,0.45100000500679016,-2.618396280190614
622.862069,,0.007881119678848494,622.64,0.46299999952316284,-2.5922699214233655
623.327586,,0.01293644050188932,623.103,0.45100000500679016,-2.618398543198743
623.793103,,0.01736640966441726,623.566,0.4429999887943268,-2.6357806815125513
624.258621,,0.01979663787779254,624.036,0.4259999990463257,-2.672740827193622
624.724138,,0.020728225096084418,624.495,0.4569999873638153,-2.6050985592057696
625.189655,,0.021967026747238442,624.965,0.44699999690055847,-2.6267560666627494
625.655172,,0.024242215154881182,625.43,0.453000009059906,-2.6135340432801897
626.1206900000001,,0.026374973963314563,625.896,0.4440000057220459,-2.6329754822015685
626.5862070000001,,0.02695836777173872,626.362,0.46399998664855957,-2.589224930573868
627.0517239999999,,0.026113346288836336,626.826,0.4620000123977661,-2.593398497641516
627.5172409999999,,0.025091809281964906,627.292,0.45100000500679016,-2.6171797517040813
627.982759,,0.024407628235956394,627.751,0.47200000286102295,-2.5712500539435252
628.448276,,0.022876758883564875,628.217,0.45100000500679016,-2.616835148307402
628.913793,,0.018853937566499824,628.685,0.4569999873638153,-2.603614149437375
629.37931,,0.012473146106338241,629.147,0.453000009059906,-2.6122022651520354
629.844828,,0.006284596228600425,629.61,0.46399998664855957,-2.588137657996491
630.3103450000001,,0.003170792866290033,630.081,0.4399999976158142,-2.64035627997599
630.7758620000001,,0.003640654888830291,630.544,0.45500001311302185,-2.60764114444834
631.2413789999999,,0.0055210516608883995,631.006,0.45100000500679016,-2.616355433220328
631.706897,,0.0062070836719685645,631.472,0.4650000035762787,-2.5858890305743962
632.172414,,0.004782266717347441,631.936,0.45100000500679016,-2.6164588503521595
632.637931,,0.0020621486128047117,632.402,0.47200000286102295,-2.5708079908413106
633.103448,,0.0006730308353310393,632.867,0.46399998664855957,-2.5883667184617067
633.568966,,0.002549960443702116,633.332,0.4690000116825104,-2.57762758001097
634.034483,,0.0031923554630370003,633.799,0.4659999907016754,-2.584337723810116
634.5,,0.002666291708609938,634.265,0.47600001096725464,-2.5627397890867263
634.9655170000001,,0.001422939727027663,634.729,0.4399999976158142,-2.6413687304033036
635.431034,,3.218223710735655e-06,635.196,0.4519999921321869,-2.6154261551326106
635.8965519999999,,0.0011788007101106335,635.658,0.45100000500679016,-2.6178034793960374
636.362069,,0.0015382737859510824,636.121,0.44699999690055847,-2.6267077656376805
636.827586,,0.0005105441947799217,636.585,0.47200000286102295,-2.572415645932565
637.293103,,0.0015096189604491455,637.054,0.4569999873638153,-2.6052476219303085
637.7586210000001,,0.0027123247740392705,637.525,0.4729999899864197,-2.5705141607434494
638.224138,,0.0013260510850625848,637.98,0.4410000145435333,-2.6403245121385774
638.689655,,0.0023062851653834196,638.446,0.4490000009536743,-2.622955072579185
639.155172,,0.005675258457691163,638.911,0.4449999928474426,-2.631693568484628
639.62069,,0.006421527102533357,639.377,0.46299999952316284,-2.592464356456949
640.086207,,0.004514447257309187,639.844,0.43700000643730164,-2.6490581632698373
640.551724,,0.0020846318323373587,640.31,0.44699999690055847,-2.627184683980794
641.017241,,0.0012966563821901547,640.77,0.4569999873638153,-2.6052774741336067
641.482759,,0.0023805190940902406,641.236,0.46299999952316284,-2.5920537946830553
641.9482760000001,,0.003634468548660786,641.703,0.4359999895095825,-2.6506990811056603
642.413793,,0.003397421066041758,642.166,0.46799999475479126,-2.5807831416627995
642.87931,,0.0018424810843734526,642.636,0.4429999887943268,-2.635035168986953
643.344828,,0.0003932977448857719,643.099,0.4580000042915344,-2.6021327750233976
643.810345,,0.0004213564408507966,643.567,0.46000000834465027,-2.59755126310119
644.275862,,0.0015591557638157424,644.029,0.45100000500679016,-2.6169402325648616
644.7413789999999,,0.0036573487545954056,644.494,0.4519999921321869,-2.61455535478334
645.206897,,0.005790272151584695,644.957,0.43799999356269836,-2.6448699075217585
645.672414,,0.006959278960758898,645.423,0.4519999921321869,-2.6142084055800283
646.1379310000001,,0.008002624727479517,645.889,0.45500001311302185,-2.607543177857899
646.6034480000001,,0.010683337879754028,646.355,0.460999995470047,-2.5943772327085797
647.0689659999999,,0.015080713691845077,646.822,0.45500001311302185,-2.607393376567845
647.534483,,0.019126010416759695,647.28,0.45500001311302185,-2.6073783847975243
648.0,,0.020954608858682836,647.747,0.460999995470047,-2.594333238165487
648.465517,,0.02084079549861853,648.213,0.4650000035762787,-2.585686418750247
648.931034,,0.020418837692834667,648.681,0.45100000500679016,-2.6162947788847064
649.396552,,0.020481490402684075,649.143,0.46399998664855957,-2.588116477951339
649.862069,,0.019981891196153075,649.607,0.4569999873638153,-2.6035438029281264
650.327586,,0.01723769752950698,650.07,0.46000000834465027,-2.597212115135998
650.7931030000001,,0.012004083316971163,650.54,0.4580000042915344,-2.601795263669398
651.258621,,0.006146209117510346,651.003,0.46299999952316284,-2.591142538536594
651.7241379999999,,0.002081326336720371,651.468,0.460999995470047,-2.595747583485538
652.189655,,0.0006543582862353001,651.932,0.45500001311302185,-2.609066858712744
652.655172,,0.0007438953867350128,652.398,0.47999998927116394,-2.554839854527116
653.12069,,0.0008099202813570609,652.862,0.48899999260902405,-2.535454402228005
653.5862070000001,,0.00036624567638160867,653.328,0.45100000500679016,-2.6184415011896895
654.051724,,0.00022317791287093297,653.795,0.44600000977516174,-2.629504219905939
654.517241,,0.00083067463974172,654.261,0.4699999988079071,-2.5773520730156747
654.982759,,0.0017594525013926415,654.725,0.47099998593330383,-2.5752694000569036
655.448276,,0.0029664573932773023,655.191,0.47999998927116394,-2.555713992444175
655.9137929999999,,0.003729047547157016,655.655,0.4569999873638153,-2.6058298885741387
656.37931,,0.003262115634779752,656.118,0.492000013589859,-2.529537979054483
656.844828,,0.0014455766832326637,656.581,0.4790000021457672,-2.557775390460421
657.310345,,0.0009608555173273937,657.051,0.47600001096725464,-2.564182494106763
657.7758620000001,,0.002655847258362048,657.51,0.4699999988079071,-2.577085966490619
658.241379,,0.002707536537562781,657.98,0.4779999852180481,-2.5594538212770224
658.7068969999999,,0.0015518590605516636,658.446,0.46299999952316284,-2.591902200881415
659.172414,,0.0008182913480991015,658.906,0.48500001430511475,-2.543719242396883
659.637931,,0.0015347026993848387,659.372,0.4690000116825104,-2.578311193679471
660.103448,,0.00254791737861073,659.837,0.46299999952316284,-2.5911114346026505
660.568966,,0.0016110014101916783,660.303,0.4620000123977661,-2.593022168289799
661.034483,,0.001588067495771754,660.77,0.48500001430511475,-2.5426572809304955
661.5,,0.004556331482946489,661.236,0.46299999952316284,-2.5903512605244234
661.965517,,0.005117994293327428,661.696,0.46399998664855957,-2.5879638522235435
662.4310340000001,,0.004480681983993215,662.165,0.46399998664855957,-2.587789737569329
662.8965519999999,,0.00571360819726499,662.626,0.4690000116825104,-2.576762583207802
663.362069,,0.009534616645114923,663.096,0.47999998927116394,-2.5527079773968113
663.827586,,0.013155109101069195,663.559,0.47999998927116394,-2.5526654191805918
664.293103,,0.013669611753108303,664.021,0.4620000123977661,-2.591887270089206
664.7586210000001,,0.011534650033963086,664.487,0.4869999885559082,-2.537476471247528
665.224138,,0.009882342413428894,664.95,0.4729999899864197,-2.568080423002466
665.689655,,0.010739589088640766,665.416,0.4620000123977661,-2.5921933033777567
666.155172,,0.012864540381123285,665.881,0.46700000762939453,-2.5814891109442497
666.62069,,0.013729877930151674,666.347,0.47600001096725464,-2.562105832215886
667.086207,,0.012928868346130131,666.81,0.48899999260902405,-2.53403612182307
667.5517239999999,,0.0125525126575125,667.276,0.4880000054836273,-2.536487259948288
668.017241,,0.014239627033055547,667.744,0.4860000014305115,-2.5411284395689457
668.482759,,0.0170189763487289,668.209,0.4880000054836273,-2.5370577277187967
668.948276,,0.018630220372747253,668.67,0.492000013589859,-2.5286235097865197
669.413793,,0.01810294211310655,669.139,0.4779999852180481,-2.5593902788174403
669.87931,,0.016173895385008054,669.6,0.47999998927116394,-2.5552759839061268
670.3448279999999,,0.013712664349025534,670.069,0.4819999933242798,-2.5511316434719205
670.810345,,0.010844784218657123,670.53,0.4790000021457672,-2.557843723435659
671.275862,,0.007651471469721581,671.0,0.515999972820282,-2.4773668624176026
671.7413789999999,,0.004708125373671161,671.465,0.4819999933242798,-2.5515259271801005
672.206897,,0.002345792519590813,671.93,0.48500001430511475,-2.5450246010651525
672.672414,,8.277004241120146e-06,672.395,0.492000013589859,-2.5297574702614027
673.137931,,0.0028163503957925303,672.855,0.47999998927116394,-2.555833671566113
673.6034480000001,,0.005247313769575736,673.32,0.49799999594688416,-2.51650112332228
674.068966,,0.005458998814438873,673.788,0.4779999852180481,-2.5599113985478317
674.5344829999999,,0.0026708988489084506,674.254,0.47699999809265137,-2.5618866559773763
675.0,,0.0017269803445987182,674.718,0.47200000286102295,-2.5725424891054622
