Trial: ,15
Threshold: ,0.0
Maximum EMG: ,0.048403330031388345
Success: ,True

EMG Time,Raw EMG,Filtered EMG,Force Time,Raw Force (V),Filtered Force (N)
0.0,samples,4.833368481999266e-08,0.467,0.546999990940094,-2.4061518547392775
0.46551699999999996,time,4.772179101086856e-08,0.929,0.5659999847412109,-2.3647890386303114
0.9310339999999999,value,4.691338161942902e-08,1.399,0.5450000166893005,-2.4106350016841334
1.396552,,4.590285093403691e-08,1.862,0.578000009059906,-2.3388940331768637
1.862069,,4.468507154385455e-08,2.325,0.5419999957084656,-2.4175352840960938
2.327586,,4.32554332705396e-08,2.795,0.5649999976158142,-2.367685781197286
2.793103,,4.160988193779307e-08,3.258,0.5529999732971191,-2.394131056999175
3.258621,,3.9744957833574486e-08,3.724,0.5669999718666077,-2.3639642561426895
3.724138,,3.765783371462474e-08,4.187,0.5730000138282776,-2.3512490934053174
4.189654999999999,,3.53463521980747e-08,4.652,0.5410000085830688,-2.421334766565247
4.655172,,3.2809062380398684e-08,5.121,0.5699999928474426,-2.358524495669705
5.12069,,3.004525551982679e-08,5.579,0.5540000200271606,-2.393743745636073
5.586207,,2.7054999614590377e-08,6.044,0.5820000171661377,-2.333081630724422
6.051723999999999,,2.38391727060709e-08,6.509,0.5540000200271606,-2.3943925825181953
6.517241,,2.039949473308499e-08,6.977,0.5699999928474426,-2.3598027128747083
6.982759,,1.6738557761198426e-08,7.443,0.5649999976158142,-2.3709160281962474
7.448276,,1.2859854409147248e-08,7.911,0.5519999861717224,-2.3994036760939905
7.913793000000001,,8.767804293186343e-09,8.373,0.5809999704360962,-2.3363281806950713
8.379309999999998,,4.467778309511899e-09,8.836,0.574999988079071,-2.3494414716940812
8.844828000000001,,3.3879425157753335e-11,9.306,0.5659999847412109,-2.3690254081083775
9.310345,,4.7298321541818276e-09,9.766,0.5669999718666077,-2.366758588827583
9.775862,,9.611733760875394e-09,10.235,0.5640000104904175,-2.3731447188357087
10.241379,,1.4670214923835379e-08,10.694,0.5540000200271606,-2.3947246047705235
10.706897,,1.989487232124298e-08,11.159,0.5699999928474426,-2.3596090678788673
11.172414,,2.5274261054298388e-08,11.624,0.546999990940094,-2.409417798827109
11.637931,,3.079589045581872e-08,12.089,0.5730000138282776,-2.3524386291289283
12.103447999999998,,3.644622344513516e-08,12.554,0.5849999785423279,-2.325935781076312
12.568966000000001,,4.221067958474479e-08,13.021,0.5640000104904175,-2.371313449515703
13.034483,,4.80736419876926e-08,13.487,0.5860000252723694,-2.3230057845869188
13.5,,5.401846821736829e-08,13.952,0.5929999947547913,-2.3073852477520265
13.965517,,6.002750531329182e-08,14.417,0.5669999718666077,-2.3636783680205147
14.431034,,6.608210906752435e-08,14.88,0.5360000133514404,-2.430894921511559
14.896552,,7.21626676665745e-08,15.35,0.5860000252723694,-2.3216817559399905
15.362069,,7.824862980307083e-08,15.81,0.5720000267028809,-2.3519504804696463
15.827586000000002,,8.431853735004383e-08,16.28,0.5669999718666077,-2.3626665912949996
16.293103,,9.035006267840851e-08,16.739,0.5419999957084656,-2.417017016875356
16.758621,,9.632005068516964e-08,17.209,0.550000011920929,-2.3995380409693245
17.224138,,1.0220456558599802e-07,17.675,0.550000011920929,-2.3995560785425574
17.689655,,1.0797894251116233e-07,18.139,0.5540000200271606,-2.390926590215667
18.155172,,1.1361784392836431e-07,18.605,0.5730000138282776,-2.3496814521168154
18.62069,,1.1909532089983811e-07,19.07,0.5540000200271606,-2.391284109018198
19.086207,,1.243848791641623e-07,19.529,0.5860000252723694,-2.321828298045589
19.551724,,1.2945955001562437e-07,19.996,0.6449999809265137,-2.1935919141721976
20.017241000000002,,1.3429196593570576e-07,20.462,0.5680000185966492,-2.361684050167778
20.482758999999998,,1.3885444091235416e-07,20.925,0.5720000267028809,-2.353329798943277
20.948276,,1.4311905536322587e-07,21.395,0.5720000267028809,-2.3537049367378535
21.413793000000002,,1.4705774555904915e-07,21.858,0.5540000200271606,-2.3932997106417573
21.87931,,1.506423974227373e-07,22.321,0.5789999961853027,-2.3392055049091827
22.344828,,1.5384494455891146e-07,22.789,0.5820000171661377,-2.3330226720988514
22.810344999999998,,1.5663747034713926e-07,23.252,0.5709999799728394,-2.3573113575135562
23.275862,,1.589923139105115e-07,23.717,0.5460000038146973,-2.41206249245502
23.741379,,1.6088217974923202e-07,24.18,0.5619999766349792,-2.3774429414520344
24.206897,,1.6228025080674894e-07,24.646,0.546999990940094,-2.410308207730386
24.672414,,1.6316030471368188e-07,25.11,0.5540000200271606,-2.3951844088330274
25.137931,,1.6349683293247144e-07,25.576,0.546999990940094,-2.410499256300424
25.603448,,1.6326516250337183e-07,26.043,0.5669999718666077,-2.3669255787585657
26.068966,,1.6244158007020757e-07,26.509,0.593999981880188,-2.308034933515623
26.534483,,1.6100345784229996e-07,26.969,0.546999990940094,-2.410299183700334
27.0,,1.5892938112723016e-07,27.435,0.5669999718666077,-2.3665334041886523
27.465517,,1.5619927704772904e-07,27.903,0.5669999718666077,-2.3662856023878622
27.931034,,1.5279454403506195e-07,28.365,0.5419999957084656,-2.420456254001668
28.396552,,1.4869818167090456e-07,28.833,0.5519999861717224,-2.398335861686505
28.862069,,1.4389492042997924e-07,29.296,0.5529999732971191,-2.395794733300816
29.327586,,1.3837135085673848e-07,29.766,0.5759999752044678,-2.3453046414857353
29.793103000000002,,1.3211605169124394e-07,30.228,0.5540000200271606,-2.3928457392322153
30.258620999999998,,1.2511971644219358e-07,30.694,0.5630000233650208,-2.3728525656853816
30.724138,,1.1737527788890318e-07,31.159,0.5659999847412109,-2.365946577035353
31.189655000000002,,1.0887802997904931e-07,31.624,0.5640000104904175,-2.369959667430449
31.655172000000004,,9.962574657523686e-08,32.084,0.5920000076293945,-2.3086491205191915
32.12069,,8.96187964910635e-08,32.55,0.5540000200271606,-2.3911741900193952
32.586207,,7.88602542464228e-08,33.015,0.5669999718666077,-2.362641803589573
33.051724,,6.735600596241657e-08,33.481,0.5630000233650208,-2.371206592509162
33.517241000000006,,5.511484980853835e-08,33.955,0.550000011920929,-2.3994446419883495
33.982759,,4.2148590408839633e-08,34.413,0.5820000171661377,-2.3297115388122833
34.448276,,2.8472126609700068e-08,34.881,0.5669999718666077,-2.3624433318006544
34.913793,,1.4103532009683266e-08,35.343,0.550000011920929,-2.399599624427485
35.37931,,9.35872348134587e-10,35.804,0.5540000200271606,-2.3910694115849327
35.844828,,1.662145371893754e-08,36.274,0.5669999718666077,-2.362991323096822
36.310345,,3.292521242736222e-08,36.74,0.5669999718666077,-2.363287889771125
36.775862,,4.981573625387285e-08,37.203,0.574999988079071,-2.3461985954507307
37.241378999999995,,6.72581650141527e-08,37.668,0.5619999766349792,-2.3748944225469493
37.706897000000005,,8.52141658979715e-08,38.133,0.5540000200271606,-2.392719875527701
38.172414,,1.036419201201037e-07,38.599,0.5460000038146973,-2.410557472591425
38.637931,,1.2249612141941882e-07,39.065,0.5659999847412109,-2.3673928722538125
39.103448,,1.4172798692319006e-07,39.524,0.5669999718666077,-2.3656097471569297
39.568965999999996,,1.612852808719252e-07,39.995,0.5709999799728394,-2.35726539972869
40.034483,,1.811123516755781e-07,40.461,0.5669999718666077,-2.3663137581938463
40.5,,2.0115018274481918e-07,40.921,0.5640000104904175,-2.373136811933121
40.965517,,2.2133645751110787e-07,41.384,0.5509999990463257,-2.40169152269022
41.431034,,2.416056390166071e-07,41.851,0.5669999718666077,-2.3670035037749733
41.896552,,2.6188906441950807e-07,42.314,0.5630000233650208,-2.3758206442262124
42.362069000000005,,2.8211505472209373e-07,42.785,0.5659999847412109,-2.3693161251396426
42.827586000000004,,3.0220903998788967e-07,43.247,0.5540000200271606,-2.395418720388909
43.293103,,3.2209370027054526e-07,43.713,0.5669999718666077,-2.3669837689848756
43.758621,,3.4168912243070665e-07,44.179,0.5699999928474426,-2.36026629590729
44.224138,,3.6091297296812663e-07,44.644,0.5630000233650208,-2.375271237318839
44.689655,,3.7968068694467104e-07,45.11,0.5720000267028809,-2.355360815455013
45.155172,,3.979056730197988e-07,45.576,0.6169999837875366,-2.256969783956786
45.620689999999996,,4.154995345635971e-07,46.041,0.5669999718666077,-2.3655104205237287
46.086206999999995,,4.323723067536427e-07,46.499,0.5630000233650208,-2.373805844921887
46.551724,,4.4843270950094273e-07,46.967,0.5540000200271606,-2.392981219546347
47.017241,,4.6358841598710907e-07,47.432,0.5519999861717224,-2.396906152698776
47.482759,,4.777463365298698e-07,47.895,0.5860000252723694,-2.322412246487491
47.948276,,4.908129174271731e-07,48.365,0.546999990940094,-2.406984803459433
48.413793,,5.026944543616482e-07,48.829,0.5460000038146973,-2.408806373458321
48.879310000000004,,5.132974198772281e-07,49.292,0.5649999976158142,-2.3671041373601653
49.344828,,5.225288043685034e-07,49.755,0.5789999961853027,-2.336352804421752
49.810345,,5.302964699510508e-07,50.224,0.5540000200271606,-2.3906337826044175
50.275862,,5.365095165077902e-07,50.691,0.5540000200271606,-2.3905201782511285
50.741379,,5.410786591325803e-07,51.151,0.5460000038146973,-2.407911757482881
51.206897,,5.439166161180107e-07,51.616,0.5879999995231628,-2.316447764175638
51.672414,,5.449385065599197e-07,52.081,0.5849999785423279,-2.3230977024234454
52.137931,,5.440622565768481e-07,52.547,0.550000011920929,-2.3995358634136625
52.603448,,5.412090130686612e-07,53.014,0.5690000057220459,-2.3583943920770007
53.068966,,5.36303563865244e-07,53.48,0.5460000038146973,-2.4088166082367413
53.534483,,5.292747630437752e-07,53.94,0.574999988079071,-2.3460003350266248
54.0,,5.200559601219122e-07,54.41,0.5440000295639038,-2.4139433089915787
54.465517,,5.085854317645752e-07,54.873,0.5809999704360962,-2.333766670984915
54.931034,,4.9480681457423e-07,55.336,0.5839999914169312,-2.327678449487734
55.396552,,4.786695374689412e-07,55.804,0.5540000200271606,-2.393486490416815
55.862069,,4.601292520893491e-07,56.266,0.5299999713897705,-2.446211686482137
56.327586,,4.391482596154189e-07,56.732,0.5849999785423279,-2.326799550593794
56.793102999999995,,4.156959323166876e-07,57.195,0.5860000252723694,-2.3249962366947408
57.258621000000005,,3.897491281061088e-07,57.661,0.5529999732971191,-2.3972171128096593
57.724138,,3.6129259631782494e-07,58.127,0.5669999718666077,-2.366982201619867
58.189655,,3.30319372883618e-07,58.593,0.5669999718666077,-2.367181028170165
58.655172,,2.9683116304174933e-07,59.058,0.550000011920929,-2.4043432207307704
59.120689999999996,,2.608387096757343e-07,59.524,0.5809999704360962,-2.3368527911648505
59.586207,,2.2236214534965908e-07,59.989,0.5659999847412109,-2.3695001141649645
60.051724,,1.8143132608125526e-07,60.455,0.5669999718666077,-2.367209698301729
60.517241,,1.3808614487444707e-07,60.918,0.5619999766349792,-2.3779150904322424
60.982758999999994,,9.237682301979029e-08,61.38,0.5799999833106995,-2.3384406619333276
61.448276,,4.4364177164452776e-08,61.851,0.5809999704360962,-2.335939332411656
61.913793,,5.880139846553607e-09,62.313,0.5669999718666077,-2.366063105079017
62.379310000000004,,5.8273426348994275e-08,62.777,0.5709999799728394,-2.3569282040188946
62.84482800000001,,1.1272174943439939e-07,63.239,0.5759999752044678,-2.345584289071556
63.310345000000005,,1.6911979467566385e-07,63.705,0.5730000138282776,-2.3516524194607022
63.775862000000004,,2.2735074992731168e-07,64.169,0.5680000185966492,-2.362075112042543
64.241379,,2.872862250861207e-07,64.634,0.5519999861717224,-2.3964750451201264
64.706897,,3.4878620965106997e-07,65.099,0.6209999918937683,-2.2457151071933095
65.172414,,4.116990698662676e-07,65.564,0.5419999957084656,-2.417433132066097
65.637931,,4.758615871664648e-07,66.029,0.5770000219345093,-2.340836191584139
66.103448,,5.410990395718128e-07,66.494,0.5509999990463257,-2.3971994324889008
66.56896599999999,,6.072253275965551e-07,66.959,0.5460000038146973,-2.4078827118949486
67.03448300000001,,6.740431461452638e-07,67.425,0.5799999833106995,-2.333677174779424
67.5,,7.4134420376996e-07,67.895,0.5720000267028809,-2.3510564811385
67.965517,,8.089094905519637e-07,68.358,0.5389999747276306,-2.4229860480832817
68.431034,,8.76509595753589e-07,68.821,0.550000011920929,-2.3991391319753763
68.896552,,9.439050762568676e-07,69.284,0.5699999928474426,-2.3557652802678684
69.362069,,1.0108468766693967e-06,69.755,0.578000009059906,-2.338608999219101
69.827586,,1.0770768018312579e-06,70.217,0.5540000200271606,-2.391235043857632
70.293103,,1.1423280423018888e-06,70.683,0.5460000038146973,-2.4090590863234795
70.75862099999999,,1.206325753241954e-06,71.144,0.5519999861717224,-2.396427129278793
71.22413800000001,,1.2687876869328758e-06,71.61,0.5460000038146973,-2.4099706877609894
71.689655,,1.3294248789959832e-06,72.077,0.5669999718666077,-2.36470797612019
72.15517200000001,,1.3879423881845315e-06,72.543,0.515999972820282,-2.476310404300821
72.62069,,1.4440400894254133e-06,73.007,0.5540000200271606,-2.3940010997132424
73.086207,,1.4974135195836392e-06,73.473,0.574999988079071,-2.3487014414129956
73.551724,,1.5477547752119924e-06,73.936,0.5540000200271606,-2.394862167459336
74.017241,,1.5947534613311177e-06,74.399,0.5709999799728394,-2.3581789083515647
74.482759,,1.638097690062201e-06,74.866,0.5519999861717224,-2.3998604363032827
74.94827599999999,,1.6774751277058397e-06,75.329,0.5759999752044678,-2.347784436323977
75.41379300000001,,1.7125740886272962e-06,75.799,0.5699999928474426,-2.360984976533366
75.87931,,1.7430846740706783e-06,76.262,0.5699999928474426,-2.361026317577144
76.344828,,1.7686999537833855e-06,76.727,0.5419999957084656,-2.421981585552324
76.810345,,1.7891171880880711e-06,77.189,0.546999990940094,-2.4109553366338
77.275862,,1.8040390877931776e-06,77.655,0.5699999928474426,-2.3606310073396664
77.741379,,1.8131751090855635e-06,78.122,0.5699999928474426,-2.3603386394994694
78.206897,,1.8162427803007092e-06,78.588,0.5509999990463257,-2.401372303260702
78.67241399999999,,1.8129690572182896e-06,79.055,0.546999990940094,-2.4096696583200883
79.137931,,1.8030917032844782e-06,79.514,0.5450000166893005,-2.4135662559962907
79.603448,,1.7863606909180894e-06,79.98,0.5649999976158142,-2.3695030864189026
80.068966,,1.762539619816576e-06,80.446,0.5540000200271606,-2.3929628337069926
80.53448300000001,,1.7314071479409313e-06,80.91,0.550000011920929,-2.401172574722517
81.0,,1.6927584306267649e-06,81.38,0.5690000057220459,-2.359289362988608
81.465517,,1.6464065630432557e-06,81.84,0.5759999752044678,-2.343580283339257
81.931034,,1.592184021003398e-06,82.31,0.5910000205039978,-2.310485446488903
82.396552,,1.5299440949190803e-06,82.773,0.5329999923706055,-2.436489120726851
82.86206899999999,,1.4595623114941204e-06,83.236,0.5540000200271606,-2.390449121733768
83.327586,,1.3809378375586122e-06,83.701,0.5669999718666077,-2.361917445381759
83.79310299999999,,1.2939948602699102e-06,84.166,0.5669999718666077,-2.361792946319234
84.258621,,1.1986839377404401e-06,84.632,0.5720000267028809,-2.3508637646446386
84.72413800000001,,1.09498331400145e-06,85.099,0.5519999861717224,-2.394491370987482
85.189655,,9.829001920759047e-07,85.565,0.5669999718666077,-2.3619556337312
85.65517200000001,,8.624719588141653e-07,86.028,0.5699999928474426,-2.3556487590837065
86.12069,,7.337673550439699e-07,86.494,0.5659999847412109,-2.3646706451933825
86.586207,,5.968875845027026e-07,86.958,0.5529999732971191,-2.3933697712245214
87.051724,,4.519673549560805e-07,87.424,0.5669999718666077,-2.363303763415239
87.517241,,2.991758448642862e-07,87.885,0.5529999732971191,-2.394285203034026
87.98275899999999,,1.3871758893527848e-07,88.354,0.550000011920929,-2.4013324312808213
88.448276,,2.9166724093460388e-08,88.814,0.5680000185966492,-2.3626435286923875
88.913793,,2.0419954807814603e-07,89.284,0.5669999718666077,-2.36534773960192
89.37931,,3.860658770802135e-07,89.755,0.5320000052452087,-2.4421086628785162
89.844828,,5.744127504737592e-07,90.21,0.5630000233650208,-2.3750465749090406
90.310345,,7.688488719543441e-07,90.675,0.5929999947547913,-2.3101151188782687
90.775862,,9.68944348725164e-07,91.14,0.5720000267028809,-2.3562317764485328
91.241379,,1.1742305569792042e-06,91.605,0.5809999704360962,-2.3369148197101555
91.706897,,1.3842001396099762e-06,92.07,0.5649999976158142,-2.371980698432672
92.17241399999999,,1.5983071418682373e-06,92.536,0.578000009059906,-2.343776070178325
92.63793100000001,,1.8159672904372124e-06,93.003,0.5730000138282776,-2.3546934056800595
93.103448,,2.036558421123869e-06,93.468,0.5540000200271606,-2.3960173496236052
93.568966,,2.25942106005842e-06,93.929,0.5759999752044678,-2.347924574979318
94.03448300000001,,2.483859162958197e-06,94.399,0.5740000009536743,-2.3520313052720767
94.5,,2.7091410166452686e-06,94.862,0.5669999718666077,-2.3669507215182475
94.965517,,2.9345003066095983e-06,95.324,0.574999988079071,-2.34911974155078
95.431034,,3.1591373539812845e-06,95.792,0.5720000267028809,-2.3551953694893606
95.896552,,3.3822205248166654e-06,96.254,0.5460000038146973,-2.4113360643943413
96.36206899999999,,3.6028878141141245e-06,96.72,0.5759999752044678,-2.345444315855826
96.827586,,3.8202486064567335e-06,97.184,0.546999990940094,-2.4080809150744007
97.293103,,4.03338561463102e-06,97.649,0.5400000214576721,-2.4227927234490045
97.758621,,4.241356996994788e-06,98.114,0.5809999704360962,-2.3329516882967134
98.224138,,4.4431986537629075e-06,98.58,0.5669999718666077,-2.3629731678956025
98.689655,,4.6379267017492806e-06,99.048,0.5830000042915344,-2.327686314561665
99.155172,,4.824540126446806e-06,99.513,0.5699999928474426,-2.355644825118744
99.62069,,5.002023609646486e-06,99.974,0.5910000205039978,-2.309604816227911
100.086207,,5.169350530093076e-06,100.44,0.5460000038146973,-2.407440834428027
100.551724,,5.325486133949445e-06,100.91,0.5879999995231628,-2.315826499442491
101.017241,,5.46939087109676e-06,101.372,0.5519999861717224,-2.394242687503669
101.482759,,5.60002389253448e-06,101.84,0.5640000104904175,-2.368180654819975
101.948276,,5.716346703364936e-06,102.302,0.5669999718666077,-2.3618216294551675
102.413793,,5.817326965054045e-06,102.766,0.5730000138282776,-2.349015948638763
102.87931,,5.901942439854634e-06,103.235,0.5709999799728394,-2.353720968671998
103.344828,,5.969185069464412e-06,103.701,0.574999988079071,-2.3454248238455193
103.810345,,6.018065179169119e-06,104.166,0.5799999833106995,-2.335008060495827
104.275862,,6.047615797895682e-06,104.624,0.5120000243186951,-2.483677172743332
104.741379,,6.056897083772828e-06,105.095,0.546999990940094,-2.4079760783087774
105.206897,,6.045000843970577e-06,105.561,0.5630000233650208,-2.373682408505814
105.672414,,6.011055136768355e-06,106.025,0.5879999995231628,-2.3197750740962233
106.13793100000001,,5.954228942987125e-06,106.491,0.546999990940094,-2.4096348022638363
106.603448,,5.873736893117321e-06,106.955,0.5849999785423279,-2.327341189556151
107.068966,,5.7688440356846435e-06,107.42,0.5540000200271606,-2.395318643359001
107.534483,,5.638870631623481e-06,107.884,0.5630000233650208,-2.3760810656411038
108.0,,5.483196958676299e-06,108.346,0.6060000061988831,-2.282688027327476
108.46551699999999,,5.301268109110374e-06,108.814,0.5830000042915344,-2.332993794712037
108.931034,,5.092598763344375e-06,109.276,0.5640000104904175,-2.3744869760806653
109.396552,,4.856777921410279e-06,109.742,0.5789999961853027,-2.3418056901831665
109.862069,,4.59347357354459e-06,110.206,0.5709999799728394,-2.3591326281130716
110.32758600000001,,4.302437290610724e-06,110.672,0.550000011920929,-2.4046845028758645
110.793103,,3.983508714505405e-06,111.136,0.5669999718666077,-2.367357001023008
111.258621,,3.636619928199942e-06,111.602,0.5730000138282776,-2.353911969598593
111.724138,,3.2617996846159945e-06,112.069,0.550000011920929,-2.403576545131766
112.189655,,2.8591774731388164e-06,112.535,0.5460000038146973,-2.4117898197050907
112.655172,,2.4289874022327136e-06,112.994,0.5889999866485596,-2.3175646829279937
113.12069,,1.9715718763472356e-06,113.459,0.5669999718666077,-2.3649253083243855
113.586207,,1.4873850450922053e-06,113.929,0.5669999718666077,-2.3643466847475825
114.051724,,9.769960025185894e-07,114.391,0.5690000057220459,-2.3594199506802815
114.51724100000001,,4.4109171427394926e-07,114.854,0.5879999995231628,-2.317482692606287
114.982759,,1.1952034959081765e-07,115.324,0.5379999876022339,-2.425915703021169
115.448276,,7.039098982992868e-07,115.788,0.5789999961853027,-2.3361513590405916
115.913793,,1.3110218424776424e-06,116.251,0.5680000185966492,-2.359749881088048
116.37931,,1.939674676443278e-06,116.716,0.5529999732971191,-2.3921477493277377
116.84482799999999,,2.588559242020005e-06,117.18,0.5879999995231628,-2.3157066798734554
117.310345,,3.2562378948110725e-06,117.645,0.5929999947547913,-2.30472381759597
117.77586199999999,,3.94114409333294e-06,118.11,0.5519999861717224,-2.3940605238564188
118.241379,,4.641582430788988e-06,118.576,0.5699999928474426,-2.3549596990423796
118.70689700000001,,5.3557291285412295e-06,119.041,0.550000011920929,-2.3987476284779685
119.172414,,6.081633009517921e-06,119.506,0.5529999732971191,-2.392520934784161
119.63793100000001,,6.817216968874487e-06,119.974,0.5759999752044678,-2.3428059463218824
120.103448,,7.56027995820319e-06,120.44,0.550000011920929,-2.399917135612549
120.568966,,8.308499498462866e-06,120.903,0.5419999957084656,-2.417871690876578
121.034483,,9.05943473557332e-06,121.365,0.5799999833106995,-2.3356512945411136
121.5,,9.810530051289584e-06,121.833,0.5509999990463257,-2.3994250321372315
121.96551699999999,,1.0559119240539551e-05,122.295,0.5659999847412109,-2.3673447344121112
122.431034,,1.1302430264875083e-05,122.763,0.546999990940094,-2.4093266778302103
122.896552,,1.2037590590052633e-05,123.225,0.5839999914169312,-2.3292739272639307
123.362069,,1.2761633114026291e-05,123.69,0.5540000200271606,-2.3951423739979845
123.827586,,1.3471502689805679e-05,124.154,0.5789999961853027,-2.341120971731217
124.293103,,1.4164063245705765e-05,124.62,0.6669999957084656,-2.149764321014253
124.758621,,1.4836105503498094e-05,125.085,0.5929999947547913,-2.311254673452536
125.22413800000001,,1.5484355292866304e-05,125.55,0.546999990940094,-2.4116421679474187
125.68965500000002,,1.610548245837674e-05,126.015,0.5540000200271606,-2.3964581412872907
126.15517200000001,,1.6696110352901785e-05,126.481,0.5609999895095825,-2.381169505532334
126.62069000000001,,1.7252825909083637e-05,126.955,0.5429999828338623,-2.420243283562697
127.086207,,1.777219027800466e-05,127.413,0.5830000042915344,-2.3328555749210027
127.55172400000001,,1.825075002174271e-05,127.877,0.550000011920929,-2.4044162407636773
128.017241,,1.868504884394193e-05,128.339,0.546999990940094,-2.4105351177266083
128.48275900000002,,1.9071639839927905e-05,128.807,0.5460000038146973,-2.4122276646993432
128.948276,,1.9407098245247806e-05,129.27,0.5770000219345093,-2.3441487580426545
129.413793,,1.9688034658828303e-05,129.735,0.5709999799728394,-2.3566407743438105
129.87931,,1.9911108714224678e-05,130.205,0.5460000038146973,-2.4105055758209986
130.344828,,2.0073043169691982e-05,130.671,0.5709999799728394,-2.3554356027667276
130.81034499999998,,2.017063838505193e-05,131.129,0.5669999718666077,-2.3635621308715784
131.275862,,2.020078715056663e-05,131.595,0.5690000057220459,-2.358650100990098
131.741379,,2.0160489830271884e-05,132.062,0.5490000247955322,-2.40171929044056
132.206897,,2.0046869779478314e-05,132.528,0.5669999718666077,-2.3620668217651644
132.67241399999997,,1.9857188993428874e-05,132.993,0.5649999976158142,-2.3660673136917723
133.13793099999998,,1.9588863941416406e-05,133.458,0.5540000200271606,-2.389766868653341
133.60344800000001,,1.9239481538026305e-05,133.921,0.5649999976158142,-2.3656360405572463
134.06896600000002,,1.880681520058813e-05,134.384,0.5540000200271606,-2.3895404974730785
134.53448300000002,,1.8288840939407846e-05,134.855,0.5759999752044678,-2.3416566478626093
135.0,,1.7683753424920966e-05,135.317,0.5540000200271606,-2.389738736385209
135.465517,,1.6989981973568688e-05,135.78,0.5740000009536743,-2.346418865937578
135.931034,,1.620620639196582e-05,136.251,0.5929999947547913,-2.3053705542207084
136.396552,,1.5331372616813712e-05,136.709,0.5759999752044678,-2.3428354335131405
136.862069,,1.4364708086025944e-05,137.18,0.5680000185966492,-2.3607616834882177
137.327586,,1.33057367746915e-05,137.645,0.5680000185966492,-2.3613138097901323
137.793103,,1.2154293827812612e-05,138.11,0.5669999718666077,-2.364083130468279
138.258621,,1.0910539720234471e-05,138.575,0.5540000200271606,-2.3930168425134015
138.724138,,9.574973872844525e-06,139.04,0.5669999718666077,-2.3653083468178924
139.189655,,8.148447652972107e-06,139.499,0.6060000061988831,-2.280937538349898
139.655172,,6.632176685977312e-06,139.966,0.5730000138282776,-2.3533929438923393
140.12069,,5.027752404292897e-06,140.432,0.5669999718666077,-2.366971814094953
140.586207,,3.3371527596867407e-06,140.895,0.5839999914169312,-2.3303734874622637
141.05172399999998,,1.5627520242562016e-06,141.365,0.5490000247955322,-2.406983398082819
141.51724099999998,,2.926703943392948e-07,141.825,0.5690000057220459,-2.3636757957671963
141.982759,,2.2259221976443385e-06,142.295,0.550000011920929,-2.40523551394852
142.44827600000002,,4.233391574880441e-06,142.755,0.503000020980835,-2.507693382237259
142.913793,,6.311041788023684e-06,143.225,0.5920000076293945,-2.3137492303552785
143.37931,,8.45440703528428e-06,143.684,0.593999981880188,-2.309240280394212
143.844828,,1.0658589663385642e-05,144.151,0.5460000038146973,-2.413559761419671
144.310345,,1.2918258797334593e-05,144.617,0.5929999947547913,-2.310812015041909
144.77586200000002,,1.5227650454355222e-05,145.081,0.5730000138282776,-2.3539479815354247
145.241379,,1.758056920632049e-05,145.547,0.5669999718666077,-2.366510293453257
145.706897,,1.9970391452353012e-05,146.014,0.5879999995231628,-2.320191756617785
146.172414,,2.2390070360275587e-05,146.479,0.574999988079071,-2.347906915771559
146.637931,,2.4832142532269582e-05,146.943,0.578000009059906,-2.340741640500698
147.103448,,2.7288736446443494e-05,147.405,0.5669999718666077,-2.364075145616393
147.568966,,2.975158272202358e-05,147.869,0.5669999718666077,-2.363460700073443
148.034483,,3.2212026251554325e-05,148.339,0.5669999718666077,-2.3628826197546258
148.5,,3.4661040238839515e-05,148.8,0.5860000252723694,-2.3209639289141664
148.965517,,3.7089242176367986e-05,149.269,0.5540000200271606,-2.3902264513059066
149.43103399999998,,3.948691179065602e-05,149.735,0.5699999928474426,-2.3549985364953527
149.89655199999999,,4.184401097830544e-05,150.198,0.5830000042915344,-2.326402529159569
150.362069,,4.41502057496309e-05,150.664,0.5540000200271606,-2.38941428511541
150.82758600000003,,4.6394890190459124e-05,151.129,0.550000011920929,-2.398070817147302
151.293103,,4.8567212446156625e-05,151.594,0.5699999928474426,-2.354553197595397
151.758621,,5.065610272511301e-05,152.058,0.5289999842643738,-2.444045293923097
152.224138,,5.265030331180592e-05,152.524,0.5690000057220459,-2.3571744451567187
152.68965500000002,,5.453840057221647e-05,152.988,0.5889999866485596,-2.313975082587561
153.155172,,5.630885892676598e-05,153.454,0.5630000233650208,-2.371079626616033
153.62069,,5.7950056758123896e-05,153.917,0.5669999718666077,-2.3628976796065397
154.086207,,5.945032421321224e-05,154.38,0.5709999799728394,-2.3547725053961805
154.551724,,6.0797982850523726e-05,154.847,0.5860000252723694,-2.3227205679636014
155.017241,,6.198138707550198e-05,155.31,0.5830000042915344,-2.329903191401954
155.482759,,6.298896729822668e-05,155.781,0.5680000185966492,-2.363228627039189
155.948276,,6.38092747390294e-05,156.243,0.5730000138282776,-2.3529609986500617
156.413793,,6.443102779896508e-05,156.708,0.5839999914169312,-2.329582113142082
156.87931,,6.484315990330575e-05,157.172,0.5540000200271606,-2.395470390595675
157.34482799999998,,6.503486871744111e-05,157.638,0.550000011920929,-2.404641226573306
157.81034499999998,,6.499566662579182e-05,158.103,0.5789999961853027,-2.341830052060347
158.275862,,6.471543235560286e-05,158.568,0.5249999761581421,-2.4597486252476224
158.741379,,6.418446361881673e-05,159.036,0.550000011920929,-2.4054480421894984
159.20689700000003,,6.339353063666737e-05,159.494,0.5690000057220459,-2.364107971316893
159.672414,,6.233393040322091e-05,159.959,0.5540000200271606,-2.396727458872923
160.137931,,6.099754153585566e-05,160.425,0.5910000205039978,-2.3159436404198805
160.60344800000001,,5.937687955266254e-05,160.895,0.5730000138282776,-2.3548760686396575
161.06896600000002,,5.7465152408993635e-05,161.358,0.574999988079071,-2.3501342794803723
161.534483,,5.5256316117935676e-05,161.821,0.5519999861717224,-2.3997695028045283
162.0,,5.274513027237463e-05,162.284,0.593999981880188,-2.307717598228713
162.465517,,4.9927213279590954e-05,162.751,0.6060000061988831,-2.28096536315996
162.931034,,4.679909711302343e-05,163.221,0.5680000185966492,-2.363103833729992
163.396552,,4.335828138000563e-05,163.679,0.5540000200271606,-2.3929343113302735
163.862069,,3.960328649895563e-05,164.144,0.550000011920929,-2.400979790756896
164.327586,,3.5533705774729404e-05,164.61,0.5540000200271606,-2.3916184518216377
164.793103,,3.115025615667325e-05,165.077,0.5540000200271606,-2.391014009675142
165.258621,,2.645482746037379e-05,165.542,0.5529999732971191,-2.392649224821638
165.72413799999998,,2.145052983124613e-05,166.007,0.5649999976158142,-2.3660394058154637
166.189655,,1.614173922596355e-05,166.472,0.5460000038146973,-2.407059730858071
166.655172,,1.0534140686355975e-05,166.94,0.5709999799728394,-2.352323249391762
167.12069,,4.634769179828753e-06,167.403,0.5799999833106995,-2.3325565820584027
167.58620699999997,,1.547952219384366e-06,167.866,0.5669999718666077,-2.3608363089345334
168.051724,,8.004177032683789e-06,168.336,0.5630000233650208,-2.369626161867227
168.517241,,1.4722603185786125e-05,168.796,0.5789999961853027,-2.3349594364725386
168.98275900000002,,2.169044414313915e-05,169.265,0.5770000219345093,-2.3396185110351846
169.44827600000002,,2.8893403583616246e-05,169.731,0.5170000195503235,-2.470741536307662
169.913793,,3.631565382806844e-05,170.193,0.5740000009536743,-2.347054028601906
170.37931,,4.3939818223319306e-05,170.659,0.5529999732971191,-2.393377027261905
170.844828,,5.174695768014295e-05,171.125,0.5669999718666077,-2.363505228495598
171.310345,,5.971656155463529e-05,171.591,0.5440000295639038,-2.414282447995428
171.775862,,6.782654305315672e-05,172.055,0.5540000200271606,-2.3931834991495116
172.241379,,7.605323933069854e-05,172.514,0.5879999995231628,-2.319794428066375
172.706897,,8.437141644111431e-05,172.981,0.5950000286102295,-2.3052035437983185
173.172414,,9.275427928512099e-05,173.446,0.5540000200271606,-2.3951422110263594
173.637931,,0.0001011734866882451,173.914,0.5789999961853027,-2.34122636140734
174.103448,,0.00010959917172598364,174.376,0.5659999847412109,-2.3700185080471785
174.568966,,0.00011799996739752115,174.844,0.550000011920929,-2.4052516034366183
175.034483,,0.00012634303773248592,175.307,0.5789999961853027,-2.342339246890587
175.5,,0.0001345941143972223,175.769,0.5690000057220459,-2.364278734110449
175.96551699999998,,0.00014271753884756395,176.239,0.5860000252723694,-2.3272737918315167
176.43103399999998,,0.00015067631005433708,176.705,0.5519999861717224,-2.401258138127614
176.896552,,0.00015843213780672568,177.169,0.5879999995231628,-2.3226177435662385
177.36206900000002,,0.00016594550157754005,177.635,0.5529999732971191,-2.398548449770836
177.827586,,0.00017317571491180366,178.099,0.5709999799728394,-2.358907532792372
178.293103,,0.00018008099527405352,178.564,0.6079999804496765,-2.277781264826582
178.758621,,0.00018661853926213573,179.029,0.5759999752044678,-2.34690531821621
179.224138,,0.00019274460307144243,179.495,0.5630000233650208,-2.3745772678881294
179.68965500000002,,0.0001984145880741896,179.954,0.5950000286102295,-2.3041728538550066
180.155172,,0.00020358313135315979,180.42,0.5669999718666077,-2.3644709796406267
180.62069,,0.00020820420098878516,180.888,0.5680000185966492,-2.3615936256291525
181.086207,,0.00021223119585631292,181.35,0.5690000057220459,-2.3587440147891554
181.551724,,0.00021561704967689276,181.818,0.5669999718666077,-2.362478751203268
182.01724099999998,,0.00021831433907918842,182.28,0.5540000200271606,-2.39024640684425
182.482759,,0.00022027539540056085,182.746,0.5669999718666077,-2.3614548612034163
182.948276,,0.00022145241984393598,183.211,0.5540000200271606,-2.389408065037218
183.413793,,0.00022179760150814627,183.677,0.5630000233650208,-2.3695427697638336
183.87931,,0.00022126323789850742,184.144,0.5540000200271606,-2.38901302732265
184.34482799999998,,0.0002198018577331002,184.61,0.5540000200271606,-2.3889998450191077
184.81034499999998,,0.00021736634577999966,185.07,0.5789999961853027,-2.33464513646008
185.27586200000002,,0.00021391006890477017,185.536,0.5540000200271606,-2.389343660312201
185.74137900000002,,0.00020938700216763007,186.003,0.5929999947547913,-2.3047223152221283
186.206897,,0.00020375185462192502,186.468,0.6079999804496765,-2.2724903004045585
186.672414,,0.00019696019575472662,186.929,0.5929999947547913,-2.305704832397267
187.137931,,0.00018896858281334373,187.399,0.5690000057220459,-2.358598817919015
187.60344800000001,,0.0001797346860022585,187.862,0.5809999704360962,-2.3331156562977697
188.06896600000002,,0.0001692174073192525,188.325,0.5630000233650208,-2.373026138281982
188.534483,,0.00015737699448616606,188.795,0.5540000200271606,-2.393342690104546
189.0,,0.0001441751584245348,189.258,0.5529999732971191,-2.3962229645126696
189.465517,,0.00012957519657610508,189.723,0.5669999718666077,-2.3663946535492717
189.931034,,0.00011354210504757148,190.187,0.574999988079071,-2.349588091385185
190.39655199999999,,9.604265976741614e-05,190.652,0.5669999718666077,-2.3675702450099942
190.862069,,7.704548432421228e-05,191.12,0.5920000076293945,-2.313569677972189
191.327586,,5.652115778093583e-05,191.579,0.5789999961853027,-2.3422556890146193
191.793103,,3.444236710004468e-05,192.05,0.6039999723434448,-2.288039073075629
192.25862099999998,,1.0783996745739284e-05,192.509,0.5770000219345093,-2.346990061877686
192.72413799999998,,1.4476941299489843e-05,192.981,0.5669999718666077,-2.368778905977011
193.189655,,4.1361394895793385e-05,193.439,0.5540000200271606,-2.3969790753942473
193.655172,,6.988806556521044e-05,193.91,0.593999981880188,-2.3095901338924056
194.12069000000002,,0.00010007295461835966,194.372,0.5910000205039978,-2.315768148394221
194.586207,,0.0001319293388920615,194.84,0.5630000233650208,-2.376308404413246
195.051724,,0.0001654686234409073,195.302,0.5669999718666077,-2.367043028705551
195.517241,,0.0002007010365880276,195.766,0.574999988079071,-2.348990963299233
195.98275900000002,,0.00023763442338724635,196.236,0.5519999861717224,-2.3984241923744105
196.448276,,0.0002762718748468655,196.694,0.5540000200271606,-2.393359559142625
196.913793,,0.0003166123680698304,197.159,0.5669999718666077,-2.364320125658162
197.37931,,0.00035865623246643396,197.625,0.5699999928474426,-2.357078514412492
197.844828,,0.0004024083055162827,198.092,0.574999988079071,-2.3455122487385145
198.310345,,0.0004478693534926472,198.558,0.5740000009536743,-2.3470707880674584
198.775862,,0.0004950229141392481,199.025,0.5839999914169312,-2.3247359378944514
199.241379,,0.0005438426498894657,199.491,0.5759999752044678,-2.341705131715545
199.706897,,0.0005943255079557318,199.951,0.515999972820282,-2.4720678173009643
200.172414,,0.000646503323415818,200.417,0.5920000076293945,-2.3062498749035334
200.63793099999998,,0.0007003841925726406,200.885,0.5669999718666077,-2.360597608539497
201.103448,,0.0007558821822119953,201.348,0.5649999976158142,-2.364961503334785
201.568966,,0.0008128821743416637,201.81,0.5389999747276306,-2.421739251842954
202.034483,,0.0008714365198921202,202.28,0.5419999957084656,-2.4154592302626297
202.5,,0.0009317889892116613,202.746,0.550000011920929,-2.3984015696744807
202.965517,,0.000993989951346083,203.211,0.5759999752044678,-2.342231721330529
203.431034,,0.0010575406246321293,203.669,0.48399999737739563,-2.543231764647214
203.896552,,0.0011219010737065125,204.136,0.5730000138282776,-2.349969649585996
204.36206900000002,,0.0011876274466562358,204.602,0.5630000233650208,-2.372446062233169
204.827586,,0.0012562350827913812,205.066,0.5649999976158142,-2.3688083521388097
205.293103,,0.001327751392988098,205.532,0.5879999995231628,-2.319426001234019
205.758621,,0.0013990458315695652,205.999,0.531000018119812,-2.444320360652656
206.224138,,0.001467530156005661,206.465,0.574999988079071,-2.3491350110792157
206.689655,,0.0015375446066339697,206.928,0.5540000200271606,-2.3955044816060287
207.155172,,0.0016178439369845486,207.391,0.5540000200271606,-2.396046049784664
207.62069,,0.0017064609384415898,207.859,0.5849999785423279,-2.3289563529796844
208.086207,,0.0017838020491293095,208.321,0.5820000171661377,-2.3358323991403553
208.551724,,0.0018382646294883744,208.784,0.5540000200271606,-2.3970561962263432
209.01724099999998,,0.0019008691426348377,209.254,0.5669999718666077,-2.368831016171537
209.482759,,0.0020202096612115445,209.72,0.5509999990463257,-2.403659438667807
209.948276,,0.0021712601768412816,210.183,0.574999988079071,-2.351215802606289
210.413793,,0.0022341394318680045,210.649,0.5789999961853027,-2.3422231317598343
210.87930999999998,,0.0021646893051947267,211.114,0.5759999752044678,-2.3483671884486244
211.344828,,0.0021741974660336285,211.58,0.5929999947547913,-2.310836188031452
211.810345,,0.0025219560423127103,212.04,0.5849999785423279,-2.327684437067193
212.27586200000002,,0.002980140563833553,212.505,0.5820000171661377,-2.333570378748668
212.741379,,0.0028337915491367343,212.97,0.5649999976158142,-2.369909415854247
213.206897,,0.0019837705187154935,213.435,0.5690000057220459,-2.3604709939630575
213.672414,,0.001834827629098686,213.903,0.574999988079071,-2.3466721450826684
214.137931,,0.00373792673535899,214.365,0.6019999980926514,-2.2871402199923967
214.60344800000001,,0.005816598526547459,214.829,0.5669999718666077,-2.3627248100869993
215.068966,,0.003123021691118296,215.299,0.5460000038146973,-2.407870363749104
215.534483,,0.006657992483060547,215.762,0.5799999833106995,-2.3332721593239323
216.0,,0.018637484567586227,216.225,0.6069999933242798,-2.2740211600744047
216.465517,,0.024949550532814405,216.69,0.5540000200271606,-2.389171405366819
216.93103399999998,,0.02339932353022192,217.154,0.5879999995231628,-2.314899343328878
217.39655199999999,,0.01900795466706119,217.62,0.5519999861717224,-2.393259336545801
217.862069,,0.01701025494263577,218.084,0.5849999785423279,-2.321421447772586
218.327586,,0.017309580362494244,218.55,0.574999988079071,-2.343392181390157
218.793103,,0.01654856790493344,219.015,0.5699999928474426,-2.35459051722611
219.25862099999998,,0.013140857401947178,219.48,0.5669999718666077,-2.361543367742399
219.724138,,0.008450411795584839,219.944,0.5950000286102295,-2.301056368396006
220.18965500000002,,0.003973165506161298,220.413,0.550000011920929,-2.399693165155291
220.65517200000002,,0.0006841085997470434,220.881,0.5669999718666077,-2.3633182339737275
221.12069,,0.006518979284337818,221.343,0.5839999914169312,-2.326986903450102
221.586207,,0.012965572963636686,221.807,0.5540000200271606,-2.3930733991555475
222.051724,,0.01803386620185679,222.269,0.5519999861717224,-2.3981573494228448
222.517241,,0.020351252436574024,222.735,0.5730000138282776,-2.3531092874089135
222.98275900000002,,0.020208441094033896,223.205,0.5540000200271606,-2.3951618998310744
223.448276,,0.01847845939306246,223.671,0.5720000267028809,-2.356538516408447
223.913793,,0.015350472730917337,224.129,0.5789999961853027,-2.341795360252441
224.37931,,0.010792065187364216,224.594,0.5540000200271606,-2.396667807161513
224.844828,,0.0057778700443887115,225.059,0.5860000252723694,-2.327243664827191
225.31034499999998,,0.0020009535005169766,225.525,0.5630000233650208,-2.377522092946621
225.775862,,0.00013759816576444287,225.991,0.5669999718666077,-2.36884875272829
226.241379,,0.0008661332261732746,226.457,0.5759999752044678,-2.3491524420248746
226.706897,,0.002446616515650212,226.925,0.578000009059906,-2.344579236448385
227.172414,,0.004910087556846892,227.388,0.5899999737739563,-2.318098524555742
227.63793099999998,,0.00749875000652894,227.851,0.5849999785423279,-2.3285436986854187
228.103448,,0.009334712415139395,228.321,0.5720000267028809,-2.3563211213537216
228.56896600000002,,0.009915023407601043,228.781,0.5669999718666077,-2.3665904683064807
229.03448300000002,,0.009213386911036656,229.251,0.5929999947547913,-2.309261921202675
229.5,,0.007798517277450626,229.709,0.5789999961853027,-2.33904062183735
229.965517,,0.0065164307507858225,230.18,0.5950000286102295,-2.3034434406721376
230.431034,,0.005626583797555506,230.646,0.5669999718666077,-2.3637141134565463
230.896552,,0.004505472311285578,231.111,0.6449999809265137,-2.1930772625214203
231.362069,,0.0025047870195160117,231.569,0.5709999799728394,-2.3536457319240043
231.827586,,0.00020950471843362008,232.041,0.5699999928474426,-2.3552453877665815
232.293103,,0.0029476070238562795,232.499,0.5680000185966492,-2.3591161574984447
232.758621,,0.005274332493132821,232.966,0.5770000219345093,-2.3391297606584307
233.224138,,0.0071519986255342135,233.431,0.5860000252723694,-2.319262923779993
233.689655,,0.008524362846630499,233.899,0.5649999976158142,-2.36488341402175
234.155172,,0.009110338174416489,234.362,0.5720000267028809,-2.349634177566257
234.62069,,0.008667478312613837,234.825,0.574999988079071,-2.343232447696941
235.086207,,0.0073671053579295424,235.295,0.5529999732971191,-2.391425729491419
235.55172399999998,,0.00580669394693617,235.758,0.5669999718666077,-2.361308753927689
236.01724099999998,,0.00452803576465195,236.221,0.5540000200271606,-2.390124412237823
236.482759,,0.0034854739995166693,236.687,0.5770000219345093,-2.340602243588427
236.94827600000002,,0.0021007684232122402,237.151,0.578000009059906,-2.3390846410680233
237.413793,,1.4568304263000845e-05,237.617,0.5889999866485596,-2.315833213469887
237.87931,,0.00234885176956717,238.084,0.5989999771118164,-2.294789835369169
238.344828,,0.003615837327315436,238.55,0.5669999718666077,-2.3652556421016913
238.810345,,0.0028114920392642378,239.014,0.5830000042915344,-2.3311291414148427
239.27586200000002,,0.0002804509131452877,239.48,0.5659999847412109,-2.3688582661621806
239.741379,,0.0023733293567275876,239.94,0.5540000200271606,-2.395632745628048
240.206897,,0.0036812494823354187,240.41,0.5879999995231628,-2.322108306672672
240.672414,,0.003694533138165474,240.873,0.5879999995231628,-2.3225581789970287
241.137931,,0.0037805713480844197,241.336,0.5540000200271606,-2.39696801023163
241.603448,,0.004971139706891359,241.799,0.5950000286102295,-2.307854858639312
242.068966,,0.006872103106065522,242.269,0.5540000200271606,-2.3972597024019597
242.534483,,0.008421047304137544,242.735,0.5929999947547913,-2.312238712063587
243.0,,0.00923804482303087,243.198,0.5699999928474426,-2.3621612728293737
243.465517,,0.00972670581635707,243.664,0.5669999718666077,-2.3683841708531337
243.93103399999998,,0.010129656623373697,244.129,0.5669999718666077,-2.3679546559619893
244.39655199999999,,0.010054781676100603,244.595,0.5830000042915344,-2.332563457917178
244.862069,,0.008984552886372319,245.055,0.5680000185966492,-2.3646235939917943
245.327586,,0.0069780426812071465,245.52,0.5929999947547913,-2.309470285707547
245.793103,,0.004756737570046492,245.984,0.5669999718666077,-2.3653820096040254
246.258621,,0.0031162127046774667,246.45,0.5830000042915344,-2.3297676215794265
246.724138,,0.0022451901776502138,246.918,0.5960000157356262,-2.300690055056292
247.18965500000002,,0.0015949106149969832,247.38,0.5799999833106995,-2.334817685635009
247.655172,,0.0003867229234183803,247.847,0.5889999866485596,-2.3145266950998162
248.12069,,0.0017188012722753746,248.31,0.5659999847412109,-2.364022347840319
248.586207,,0.004305741270071153,248.781,0.5690000057220459,-2.356963170400418
249.051724,,0.006457917845779188,249.243,0.5860000252723694,-2.319509784837896
249.517241,,0.007448033250549185,249.709,0.5659999847412109,-2.362786523243916
249.982759,,0.0073420495623652375,250.172,0.5519999861717224,-2.3931215666954544
250.44827600000002,,0.006930289177957196,250.638,0.5730000138282776,-2.3473401224270187
250.913793,,0.006981815799569801,251.102,0.5789999961853027,-2.3343753266919105
251.37931000000003,,0.007533847872312105,251.568,0.5669999718666077,-2.36075945503932
251.844828,,0.007910476076836674,252.033,0.5540000200271606,-2.3894484497157578
252.31034499999998,,0.007473689226077501,252.499,0.5759999752044678,-2.342000134908693
252.77586200000002,,0.006457437719296711,252.959,0.5709999799728394,-2.3534748096655216
253.241379,,0.006018911086931162,253.425,0.6039999723434448,-2.28224122082971
253.706897,,0.007132434776827712,253.895,0.5699999928474426,-2.357036036825814
254.172414,,0.009219542247269496,254.358,0.6039999723434448,-2.2837189993444253
254.63793099999998,,0.010240690931222483,254.821,0.5860000252723694,-2.323703535619301
255.10344800000001,,0.008701964243400407,255.284,0.6019999980926514,-2.289601571553355
255.56896600000002,,0.005482987255908902,255.75,0.5270000100135803,-2.4537212298441355
256.03448299999997,,0.003047847416357769,256.214,0.5830000042915344,-2.332381136380984
256.5,,0.0027641731740415633,256.679,0.5709999799728394,-2.359110924382194
256.965517,,0.0036678225807293776,257.144,0.5789999961853027,-2.3421699028756473
257.431034,,0.004031007277462036,257.61,0.5669999718666077,-2.3686887411150646
257.896552,,0.003339904320874573,258.078,0.550000011920929,-2.4059760084288215
258.362069,,0.0023196438509454423,258.543,0.6060000061988831,-2.2840889364108463
258.827586,,0.0017710394647434784,259.01,0.5649999976158142,-2.3733927887472452
259.29310300000003,,0.0020539420745918943,259.476,0.6060000061988831,-2.2839093942222246
259.758621,,0.003188804364797477,259.936,0.5889999866485596,-2.320654049351573
260.224138,,0.004606784698699146,260.406,0.5920000076293945,-2.313700801506133
260.689655,,0.004995545215455657,260.866,0.5789999961853027,-2.3414946587075325
261.155172,,0.0033270442884058846,261.336,0.5669999718666077,-2.3670157943573775
261.62068999999997,,0.0002054052540964507,261.799,0.5809999704360962,-2.3358179397910677
262.086207,,0.0025572868027783965,262.262,0.6039999723434448,-2.284959426961104
262.551724,,0.003852665035154527,262.727,0.5759999752044678,-2.345182318576207
263.017241,,0.003903913991861898,263.19,0.5699999928474426,-2.357470626158792
263.482759,,0.0028099660999221406,263.656,0.5929999947547913,-2.30659908004875
263.94827599999996,,0.00030625677908112473,264.121,0.49799999594688416,-2.5128543764617097
264.413793,,0.005958614475313557,264.587,0.5669999718666077,-2.3618821173388826
264.87931,,0.013179829699702838,265.055,0.5699999928474426,-2.3547911272559086
265.34482799999995,,0.020846202595358805,265.521,0.5879999995231628,-2.3151268308873507
265.810345,,0.02933202477730594,265.985,0.5920000076293945,-2.306083492457204
266.27586199999996,,0.039418166315334735,266.451,0.6100000143051147,-2.2666686426659055
266.741379,,0.04975475483591685,266.914,0.5440000295639038,-2.4103968585369477
267.206897,,0.056765662061656876,267.376,0.5540000200271606,-2.388688487660805
267.672414,,0.05746385471195927,267.844,0.5170000195503235,-2.469516603175165
268.137931,,0.051610513481570724,268.306,0.5419999957084656,-2.4154024784259978
268.603448,,0.040852812611812825,268.774,0.531000018119812,-2.439842455904479
269.06896600000005,,0.02649972261756903,269.235,0.5820000171661377,-2.3293129764298497
269.53448299999997,,0.008725922948188834,269.701,0.5799999833106995,-2.334338539548653
270.0,,0.012272145991577572,270.165,0.5839999914169312,-2.326356447008735
270.465517,,0.03471846379186674,270.631,0.5680000185966492,-2.361988515360687
270.931034,,0.05494542255031875,271.095,0.5759999752044678,-2.3453501539181514
271.396552,,0.06882369391399078,271.561,0.5759999752044678,-2.3461327621838888
271.86206899999996,,0.0739803342517848,272.028,0.5709999799728394,-2.357775554198055
272.327586,,0.07107788766482494,272.494,0.5920000076293945,-2.312716345762285
272.793103,,0.06314221552043757,272.959,0.5709999799728394,-2.359081164510193
273.258621,,0.053560788039021014,273.425,0.5950000286102295,-2.3073077274826628
273.724138,,0.04443842397990213,273.888,0.5789999961853027,-2.3425650565330725
274.18965499999996,,0.03659218962198636,274.351,0.5929999947547913,-2.312334731786296
274.655172,,0.030801994422383756,274.814,0.5879999995231628,-2.3233619611922074
275.12069,,0.028466128075561557,275.284,0.5709999799728394,-2.3603923459327234
275.586207,,0.03041763395221536,275.75,0.5830000042915344,-2.3341019385832724
276.051724,,0.03510059550412903,276.213,0.5830000042915344,-2.333820127985502
276.517241,,0.03862022373620982,276.679,0.5669999718666077,-2.368270645376389
276.98275900000004,,0.03733852551347173,277.139,0.5730000138282776,-2.354678109919869
277.448276,,0.030681167469696957,277.605,0.6060000061988831,-2.282165593867681
277.913793,,0.02134117718362592,278.07,0.5879999995231628,-2.3206862664390324
278.37931,,0.012766828650237814,278.536,0.5820000171661377,-2.333007482374247
278.844828,,0.006511341641582378,279.003,0.5759999752044678,-2.345297806738652
279.31034500000004,,0.001763751020253416,279.469,0.5720000267028809,-2.3532249167435126
279.77586199999996,,0.003065058345088811,279.932,0.5699999928474426,-2.356814561562339
280.241379,,0.008603929300150357,280.395,0.5709999799728394,-2.353912400226946
280.706897,,0.014201195376360781,280.862,0.46399998664855957,-2.586373471034434
281.172414,,0.018884547001120737,281.324,0.5720000267028809,-2.350516687906387
281.637931,,0.022186628695011288,281.796,0.5630000233650208,-2.3696695331901636
282.10344799999996,,0.024039179865817866,282.258,0.5690000057220459,-2.3562625916885347
282.568966,,0.024534708522148025,282.724,0.593999981880188,-2.3015910398454293
283.034483,,0.024286567332168454,283.186,0.5709999799728394,-2.3516299040248527
283.5,,0.02447701977375677,283.652,0.5789999961853027,-2.3342680905763293
283.965517,,0.025743953808692127,284.118,0.578000009059906,-2.3366493836587705
284.431034,,0.02722047157838272,284.584,0.5820000171661377,-2.328265876190501
284.89655200000004,,0.02740551368790312,285.051,0.5910000205039978,-2.309106609796014
285.362069,,0.025934205677045418,285.509,0.5910000205039978,-2.3096579352510664
285.827586,,0.023882328102014443,285.974,0.5809999704360962,-2.332081113237047
286.293103,,0.02233902863157136,286.44,0.5809999704360962,-2.332783174702887
286.758621,,0.021251058523818086,286.91,0.5759999752044678,-2.344422080596446
287.22413800000004,,0.019802738955075515,287.372,0.5950000286102295,-2.3037932475834806
287.689655,,0.017532938476739635,287.84,0.6660000085830688,-2.149868745130492
288.155172,,0.014861406778132953,288.302,0.578000009059906,-2.3423182058917105
288.62069,,0.01265141495027672,288.77,0.5770000219345093,-2.3451732359998503
289.086207,,0.011372486655427514,289.232,0.5960000157356262,-2.3043837508898526
289.55172400000004,,0.010687713407468663,289.698,0.5709999799728394,-2.3593643932499657
290.01724099999996,,0.009830095409565604,290.165,0.5669999718666077,-2.3684876424154275
290.482759,,0.008288944245741866,290.624,0.5709999799728394,-2.360063963337999
290.948276,,0.0060572645776503075,291.095,0.6069999933242798,-2.281796170452481
291.413793,,0.0033938032607017834,291.561,0.5759999752044678,-2.349364872524679
291.87931,,0.0006579459815482145,292.026,0.5669999718666077,-2.3688701059076256
292.344828,,0.001630984566733768,292.484,0.5540000200271606,-2.3969612431581693
292.81034500000004,,0.0029480036976121003,292.951,0.5920000076293945,-2.3138201468646695
293.275862,,0.0032163849405747284,293.417,0.6060000061988831,-2.282855035186349
293.74137900000005,,0.0029663758036305044,293.88,0.5669999718666077,-2.367260917133077
294.206897,,0.0028971864490384878,294.351,0.5860000252723694,-2.3252259375193773
294.672414,,0.003392366294983409,294.814,0.5960000157356262,-2.3027398306949642
295.13793100000004,,0.004455669424221826,295.276,0.5899999737739563,-2.3150743574561257
295.603448,,0.0057597025681799556,295.742,0.5709999799728394,-2.3557168600351184
296.068966,,0.006600290456565549,296.206,0.5950000286102295,-2.3026868717318045
296.534483,,0.006212490678586378,296.672,0.6039999723434448,-2.282368840743872
297.0,,0.004484228050290557,297.139,0.5709999799728394,-2.353607935899044
297.46551700000003,,0.0021772790981862598,297.605,0.5709999799728394,-2.353027171842791
297.931034,,0.00023374562449409743,298.069,0.5920000076293945,-2.3067885853671175
298.396552,,0.0009589683446919495,298.535,0.5960000157356262,-2.2976952249538183
298.862069,,0.0014687291100788844,299.0,0.6039999723434448,-2.280006584563667
299.327586,,0.0012640466478590448,299.465,0.5659999847412109,-2.3626632703058243
299.79310300000003,,0.00017400243731610052,299.929,0.5680000185966492,-2.3583068201473867
300.258621,,0.0015321606527470494,300.391,0.5989999771118164,-2.290902533786854
300.724138,,0.0029362799450763873,300.855,0.5540000200271606,-2.389203596625695
301.189655,,0.0033128621350810208,301.324,0.5649999976158142,-2.3656212328919963
301.65517200000005,,0.003052378225863178,301.785,0.5820000171661377,-2.3290756773963714
302.12069,,0.0031059465888707114,302.255,0.574999988079071,-2.3449103586286495
302.586207,,0.003443695456120772,302.721,0.5920000076293945,-2.308531092081556
303.05172400000004,,0.0029340642268544303,303.184,0.5440000295639038,-2.413817420876786
303.517241,,0.0011785801552041749,303.649,0.5759999752044678,-2.344843855180662
303.982759,,0.0004836704480524493,304.114,0.5920000076293945,-2.310736355666114
304.448276,,0.0006828608807387762,304.58,0.5879999995231628,-2.3201850206766506
304.913793,,4.167055315739349e-06,305.04,0.5730000138282776,-2.3535589124889897
305.37931000000003,,4.847261281536069e-05,305.505,0.5730000138282776,-2.3541920633176727
305.844828,,0.0010770318019899892,305.97,0.5789999961853027,-2.341672621157845
306.310345,,0.0017129984492997,306.435,0.5789999961853027,-2.342126749658655
306.775862,,0.0010910158347029074,306.903,0.5709999799728394,-2.3598976316530145
307.241379,,0.0001917367554752557,307.365,0.5540000200271606,-2.3971536896490537
307.70689699999997,,0.0014301836238999307,307.833,0.5830000042915344,-2.334062856608286
308.172414,,0.0028148098581372793,308.295,0.597000002861023,-2.3035187498017704
308.637931,,0.004486448903544574,308.766,0.6060000061988831,-2.2837350468235833
309.103448,,0.005646415779621173,309.228,0.5799999833106995,-2.340076779214977
309.568966,,0.005558601473334135,309.694,0.5709999799728394,-2.3592647032308633
310.034483,,0.004846285849427841,310.158,0.5950000286102295,-2.3064540626700505
310.5,,0.004720585618481876,310.624,0.5630000233650208,-2.375561306535894
310.96551700000003,,0.005092882403473494,311.089,0.5669999718666077,-2.3661706477529894
311.431034,,0.004550697141830361,311.554,0.5540000200271606,-2.39377222721107
311.896552,,0.0024310836105865,312.014,0.5709999799728394,-2.3559927480329628
312.362069,,6.434358285534873e-05,312.48,0.5720000267028809,-2.353072633478011
312.827586,,0.0013392551673231305,312.955,0.5860000252723694,-2.3218540112533486
313.29310300000003,,0.001256570176785823,313.413,0.5669999718666077,-2.3625770800874424
313.758621,,0.000923410489111596,313.881,0.5360000133514404,-2.4295119645949845
314.224138,,0.0011513773270679188,314.343,0.6019999980926514,-2.2852053803463948
314.689655,,0.001756910976431083,314.807,0.5669999718666077,-2.3610446310935758
315.155172,,0.0020599047330188453,315.269,0.5989999771118164,-2.291028902263793
315.62068999999997,,0.0014557314167498146,315.734,0.5730000138282776,-2.347498583204181
316.086207,,0.00036912900984605496,316.204,0.5400000214576721,-2.4193491072280704
316.551724,,0.0031812885643357817,316.671,0.5789999961853027,-2.3344695107593405
317.017241,,0.00602607092214756,317.129,0.5830000042915344,-2.3259713396324773
317.482759,,0.007736784691943876,317.595,0.5720000267028809,-2.3502740694987976
317.94827599999996,,0.007942727595762762,318.062,0.5540000200271606,-2.3899385779941724
318.413793,,0.007492291318497723,318.528,0.5690000057220459,-2.3578052640937908
318.87931000000003,,0.007682564025880673,318.992,0.5669999718666077,-2.3627891713437146
319.344828,,0.009014788676451651,319.457,0.5759999752044678,-2.3438678457306676
319.810345,,0.010734103979703312,319.921,0.5789999961853027,-2.3380563589350944
320.275862,,0.011548988843968407,320.391,0.6190000176429749,-2.2516489807854496
320.741379,,0.010690040457333834,320.851,0.5950000286102295,-2.3046649927653773
321.20689699999997,,0.008254705937845266,321.321,0.6060000061988831,-2.2813953043601
321.672414,,0.004683257575112353,321.781,0.5830000042915344,-2.332145373902652
322.137931,,0.00010371783415632302,322.244,0.5929999947547913,-2.310926311226185
322.603448,,0.005664326433291041,322.71,0.5669999718666077,-2.368047906765778
323.068966,,0.012484688046686893,323.18,0.5989999771118164,-2.2987025363922355
323.53448299999997,,0.01963816254429958,323.646,0.5709999799728394,-2.359959307418615
324.0,,0.026481352379052,324.105,0.5759999752044678,-2.349196492570711
324.465517,,0.03294031959985444,324.571,0.5720000267028809,-2.3579137975453537
324.931034,,0.03863590122731736,325.039,0.5759999752044678,-2.349074648191427
325.396552,,0.04172094542236081,325.505,0.5929999947547913,-2.3117891201657064
325.86206899999996,,0.03947534757608678,325.97,0.5849999785423279,-2.3288534987880234
326.327586,,0.030331702687228585,326.435,0.5540000200271606,-2.395922411587401
326.793103,,0.015057716475013331,326.899,0.6060000061988831,-2.2820744205294856
327.258621,,0.003773675895422772,327.361,0.5870000123977661,-2.322837879119178
327.724138,,0.022926521357565108,327.829,0.5690000057220459,-2.3613699840694897
328.189655,,0.03940505855139965,328.291,0.5479999780654907,-2.406408191366805
328.655172,,0.05112604160150906,328.759,0.5720000267028809,-2.353400092947747
329.12068999999997,,0.05720695399488849,329.222,0.574999988079071,-2.3461587662745176
329.586207,,0.05773535665705972,329.687,0.5640000104904175,-2.369454891492644
330.051724,,0.053580591429427234,330.154,0.5789999961853027,-2.3361635026852934
330.517241,,0.046608714321216785,330.62,0.5789999961853027,-2.3356276378973897
330.982759,,0.039442803453507716,331.084,0.6019999980926514,-2.285074437374562
331.44827599999996,,0.03392655803233574,331.549,0.5789999961853027,-2.3348439192990886
331.913793,,0.029402190469730884,332.009,0.5759999752044678,-2.3411561416525797
332.37931,,0.023067209453679387,332.474,0.5669999718666077,-2.3606634079590436
332.844828,,0.012744538400622257,332.939,0.5669999718666077,-2.3606893529069835
333.310345,,0.0006061011511643417,333.408,0.574999988079071,-2.3434116122835476
333.77586199999996,,0.013464055674851,333.869,0.5929999947547913,-2.30446738722708
334.241379,,0.022961236885158373,334.34,0.5669999718666077,-2.3614948015966584
334.706897,,0.02923680719743263,334.803,0.5669999718666077,-2.3619768600353575
335.17241399999995,,0.03434072248992793,335.265,0.5849999785423279,-2.323327788576123
335.637931,,0.03923084042789903,335.731,0.5360000133514404,-2.4307151979896684
336.103448,,0.042742909730899684,336.194,0.5929999947547913,-2.3072135304713495
336.56896600000005,,0.04366295477699557,336.659,0.5929999947547913,-2.307919915245613
337.034483,,0.04278459258259449,337.125,0.5709999799728394,-2.3565589807009135
337.5,,0.04199774638812326,337.591,0.5889999866485596,-2.318032799214474
337.965517,,0.04163830400843411,338.056,0.6050000190734863,-2.283822634722544
338.431034,,0.039636793379786386,338.521,0.5849999785423279,-2.3279821267492795
338.89655200000004,,0.03359094548346001,338.989,0.5899999737739563,-2.3175957001002474
339.36206899999996,,0.02322607918474384,339.454,0.5910000205039978,-2.3158287640265547
339.827586,,0.010489951496352784,339.917,0.6100000143051147,-2.274738229319464
340.293103,,0.002250974504334278,340.38,0.5799999833106995,-2.340284232031025
340.758621,,0.013325159579389982,340.848,0.5789999961853027,-2.3425273307041907
341.224138,,0.021338097669406857,341.31,0.5680000185966492,-2.3664340968494497
341.68965499999996,,0.024941378724032383,341.78,0.5759999752044678,-2.3488263200661645
342.155172,,0.023826269066844912,342.243,0.5759999752044678,-2.348533075630838
342.62069,,0.01948144819028916,342.709,0.5669999718666077,-2.3677425269132018
343.086207,,0.01425679457114521,343.173,0.574999988079071,-2.34982253944509
343.551724,,0.009742772474014625,343.638,0.5720000267028809,-2.3557906259498567
344.01724099999996,,0.0063415036334009585,344.102,0.574999988079071,-2.348627615046386
344.48275900000004,,0.0039876223392367564,344.568,0.5669999718666077,-2.3653899405640044
344.948276,,0.0025626116589650407,345.033,0.6060000061988831,-2.2797360878551616
345.413793,,0.0015686401387367168,345.499,0.5699999928474426,-2.3574820863984267
345.87931,,4.070145109026817e-05,345.966,0.6029999852180481,-2.284923509522125
346.344828,,0.0032598950047242675,346.424,0.6039999723434448,-2.2821238399029418
346.81034500000004,,0.008036591883517515,346.892,0.574999988079071,-2.34474474569876
347.275862,,0.012771033102029107,347.354,0.5960000157356262,-2.298512253065368
347.741379,,0.015098854378367952,347.822,0.593999981880188,-2.3024825018452444
348.206897,,0.013690774875121941,348.284,0.574999988079071,-2.343595294189224
348.672414,,0.00928500139278061,348.755,0.5839999914169312,-2.323820691803022
349.13793100000004,,0.0035645857534024705,349.217,0.5809999704360962,-2.330309817670822
349.60344799999996,,0.0027118213595304845,349.683,0.5720000267028809,-2.3499919690595443
350.068966,,0.009657264726449705,350.148,0.5540000200271606,-2.389401655603028
350.534483,,0.016463816414540585,350.614,0.593999981880188,-2.302563196675835
351.0,,0.020911665948392093,351.08,0.5849999785423279,-2.322581178407638
351.465517,,0.021354609892278435,351.546,0.5799999833106995,-2.3339740083523908
351.93103399999995,,0.01851328788712139,352.01,0.5659999847412109,-2.3650490943554754
352.396552,,0.014564635670922416,352.476,0.5879999995231628,-2.31774942198137
352.862069,,0.010786650911189855,352.936,0.5669999718666077,-2.364168521242129
353.32758600000005,,0.006722482004904987,353.399,0.6119999885559082,-2.2668121362327476
353.793103,,0.001455548451657143,353.869,0.5540000200271606,-2.393850571252886
354.258621,,0.005013668703438004,354.332,0.6019999980926514,-2.2899256691724514
354.72413800000004,,0.011837492820544524,354.8,0.5920000076293945,-2.3123150137451938
355.189655,,0.0182513954970458,355.262,0.5860000252723694,-2.3259233261096264
355.655172,,0.0240021883470409,355.728,0.5649999976158142,-2.372129312686377
356.12069,,0.028996659618105037,356.191,0.5960000157356262,-2.3049496265027147
356.586207,,0.03293530854420109,356.656,0.6000000238418579,-2.2964858633726224
357.05172400000004,,0.03535922250370916,357.121,0.6330000162124634,-2.2247247368216243
357.517241,,0.03570083453167603,357.587,0.5720000267028809,-2.3576359516066283
357.982759,,0.033086311426855884,358.052,0.5669999718666077,-2.3684239595009546
358.448276,,0.026453127571214156,358.518,0.5979999899864197,-2.3006657915755904
358.913793,,0.015382579110116297,358.984,0.5809999704360962,-2.33737461214838
359.37931000000003,,0.0008757588806443349,359.45,0.5709999799728394,-2.358735289578108
359.844828,,0.01489269147486694,359.91,0.5820000171661377,-2.334260699747809
360.310345,,0.029448213181771547,360.38,0.5910000205039978,-2.3140755374200443
360.775862,,0.040481800070413215,360.844,0.5540000200271606,-2.394058535875998
361.241379,,0.04612808034814821,361.306,0.6079999804496765,-2.275754603292245
361.706897,,0.04593120187393577,361.77,0.597000002861023,-2.2990521196934646
362.172414,,0.04172837011421709,362.24,0.5979999899864197,-2.2962154278798512
362.63793100000004,,0.03665328652078344,362.705,0.5789999961853027,-2.33698213832161
363.103448,,0.03267408197698031,363.169,0.5950000286102295,-2.3015463785537524
363.568966,,0.029479884403537562,363.635,0.574999988079071,-2.344610452387051
364.034483,,0.025998849889273125,364.099,0.5929999947547913,-2.3049698693523646
364.5,,0.02229363281819276,364.565,0.5720000267028809,-2.3503938156672333
364.96551700000003,,0.01925688308374424,365.025,0.5839999914169312,-2.3240299699528677
365.431034,,0.01687748099019692,365.49,0.5920000076293945,-2.3064945147613365
365.896552,,0.013942666343172302,365.955,0.5019999742507935,-2.502584918509
366.362069,,0.009818363450517276,366.42,0.5989999771118164,-2.2913867044048915
366.827586,,0.0056643327470350035,366.888,0.5730000138282776,-2.3482752557975815
367.29310300000003,,0.003082433546162877,367.351,0.5799999833106995,-2.3333725729400983
367.758621,,0.0019784108142443914,367.814,0.5690000057220459,-2.357778745061092
368.224138,,0.0006315002814567567,368.284,0.6039999723434448,-2.2820460093805437
368.689655,,0.0021818223551523445,368.751,0.5799999833106995,-2.3349151738186764
369.155172,,0.005835064512634444,369.214,0.6029999852180481,-2.2854310040491246
369.62068999999997,,0.008726973688751383,369.679,0.5839999914169312,-2.327473587488108
370.086207,,0.010030685836627013,370.144,0.578000009059906,-2.3411973356339724
370.55172400000004,,0.01037652267201847,370.61,0.5509999990463257,-2.400657194050034
371.017241,,0.011030859667826878,371.07,0.5830000042915344,-2.3315418833415147
371.482759,,0.01259836900528777,371.536,0.6039999723434448,-2.2863372217499944
371.948276,,0.01452332560809497,372.003,0.5830000042915344,-2.332563218081006
372.413793,,0.015749829138081387,372.468,0.5899999737739563,-2.317700387703665
372.87931000000003,,0.015750689892948123,372.929,0.6140000224113464,-2.2657014387023113
373.344828,,0.014923094449619716,373.398,0.6050000190734863,-2.285489597972573
373.810345,,0.014136289262232869,373.859,0.6019999980926514,-2.292092208456887
374.275862,,0.013954442603473336,374.329,0.6050000190734863,-2.285507767954897
374.741379,,0.014170876856006646,374.792,0.6010000109672546,-2.2940609253685973
375.20689699999997,,0.014044759329770767,375.255,0.5400000214576721,-2.426690855430731
375.672414,,0.013118929445060257,375.72,0.6079999804496765,-2.2781789050743337
376.137931,,0.011800894531776112,376.184,0.5979999899864197,-2.2995158298194744
376.603448,,0.010921243628506784,376.649,0.5839999914169312,-2.329495497047989
377.068966,,0.010707814333950367,377.114,0.6190000176429749,-2.2526660958882068
377.53448299999997,,0.01050062027783201,377.58,0.5860000252723694,-2.323947533257532
378.0,,0.009607742630951013,378.047,0.6079999804496765,-2.2753855886924517
378.465517,,0.008198047737853762,378.513,0.5929999947547913,-2.30743570976734
378.931034,,0.007172650396368025,378.974,0.6039999723434448,-2.282862896184633
379.396552,,0.0072959818642350715,379.44,0.5889999866485596,-2.314975893631693
379.862069,,0.008577016775259254,379.91,0.5989999771118164,-2.292681532185705
380.327586,,0.0103440304523241,380.372,0.5889999866485596,-2.314034755225407
380.79310300000003,,0.011720032579889175,380.84,0.6190000176429749,-2.248329552746192
381.258621,,0.012102988385134763,381.302,0.5889999866485596,-2.3134411877184426
381.724138,,0.011463822489670872,381.77,0.5910000205039978,-2.3089416166455705
382.189655,,0.010303085235946233,382.233,0.5920000076293945,-2.3067310696819217
382.655172,,0.009156839229249545,382.698,0.5830000042915344,-2.3264179662782127
383.12068999999997,,0.00797403869466236,383.165,0.5849999785423279,-2.3222481240902053
383.586207,,0.006085324018023141,383.624,0.5740000009536743,-2.346502954631498
384.051724,,0.0030242095589500828,384.095,0.6140000224113464,-2.2597391016506796
384.517241,,0.0006626180468221766,384.554,0.625,-2.2362346778047746
384.982759,,0.003786001135448023,385.026,0.5929999947547913,-2.306475256533827
385.44827599999996,,0.005868689661268896,385.484,0.6060000061988831,-2.2787237427005564
385.913793,,0.00779751325698691,385.956,0.5889999866485596,-2.3163612534584836
386.37931,,0.010765922742249823,386.414,0.5989999771118164,-2.295185937146144
386.84482799999995,,0.014757203704947758,386.884,0.6169999837875366,-2.256572495995366
387.310345,,0.01849680341751283,387.346,0.5899999737739563,-2.3159701893445948
387.775862,,0.020819497587962598,387.81,0.6110000014305115,-2.2707469041139885
388.241379,,0.02159641890990326,388.28,0.5989999771118164,-2.2973569851512874
388.70689699999997,,0.02128424591305814,388.746,0.5929999947547913,-2.3108187157353073
389.172414,,0.020137474494184078,389.204,0.6000000238418579,-2.295870029672745
389.637931,,0.018152902809951715,389.67,0.6060000061988831,-2.2830027754128723
390.103448,,0.015455227867892328,390.137,0.6299999952316284,-2.23081568146134
390.56896600000005,,0.01251721311668986,390.603,0.5839999914169312,-2.3310270267825666
391.03448299999997,,0.01006803541681434,391.069,0.5879999995231628,-2.322200776446381
391.5,,0.00856362416297532,391.534,0.5830000042915344,-2.3328820462973607
391.965517,,0.007539268301451027,391.999,0.5920000076293945,-2.312968916870632
392.431034,,0.005937204217210662,392.465,0.5960000157356262,-2.3038653325575114
392.896552,,0.0034918553252784004,392.929,0.5799999833106995,-2.338263614701891
393.36206899999996,,0.0013211194759695693,393.391,0.6169999837875366,-2.25713670785433
393.827586,,0.000544419432263753,393.854,0.5889999866485596,-2.3175811037876635
394.293103,,0.0005946674443420492,394.324,0.5929999947547913,-2.308285698881523
394.75862099999995,,0.0003991395258243372,394.788,0.5860000252723694,-2.322951128325621
395.224138,,0.0033995239493466,395.251,0.597000002861023,-2.2984150112159454
395.68965499999996,,0.007055430487264945,395.716,0.6019999980926514,-2.2869821830263057
396.155172,,0.008897357076309047,396.18,0.6110000014305115,-2.2668823421023343
396.62069,,0.007904934988677169,396.646,0.6129999756813049,-2.262095439367046
397.086207,,0.005554524243694682,397.11,0.6060000061988831,-2.276991694837208
397.551724,,0.004153484379114739,397.576,0.5830000042915344,-2.326833343834893
398.017241,,0.0044120871864378915,398.041,0.5820000171661377,-2.328840718008086
398.48275900000004,,0.0050253391767631,398.507,0.6200000047683716,-2.245981671111173
398.94827599999996,,0.004524524455189143,398.973,0.5820000171661377,-2.328801926146661
399.413793,,0.002941066426125198,399.439,0.6209999918937683,-2.243966935009537
399.87931,,0.0013289440931429143,399.903,0.5920000076293945,-2.3073759898285977
400.344828,,0.00016004502286426744,400.365,0.5339999794960022,-2.434055943523346
400.810345,,0.0010678121349511093,400.834,0.5989999771118164,-2.2928431819374406
401.27586199999996,,0.002714974719230764,401.296,0.5960000157356262,-2.299845536324843
401.741379,,0.004259941115649694,401.759,0.5879999995231628,-2.317792416696462
402.206897,,0.004960353402647256,402.228,0.6209999918937683,-2.2464490562739163
402.672414,,0.004758049767707997,402.694,0.6119999885559082,-2.266624919265756
403.137931,,0.00415372241584334,403.159,0.6079999804496765,-2.2759053829346594
403.60344799999996,,0.003472693861125982,403.625,0.6209999918937683,-2.2481289270629476
404.068966,,0.0026915190571599724,404.084,0.6010000109672546,-2.2922109749996666
404.534483,,0.001914376873994836,404.55,0.6060000061988831,-2.2817745787672292
405.0,,0.0015303073186658585,405.014,0.5929999947547913,-2.3104879951689865
405.465517,,0.0017197810958678326,405.48,0.5139999985694885,-2.4829162767367308
405.931034,,0.0021829197178141646,405.955,0.5820000171661377,-2.3349995032631767
406.39655200000004,,0.002516187392538638,406.413,0.6050000190734863,-2.285029896773439
406.862069,,0.0023454550142340646,406.877,0.6169999837875366,-2.258926918750027
407.327586,,0.0007945030813750699,407.339,0.5529999732971191,-2.398301907986362
407.793103,,0.0035089061410852975,407.807,0.5929999947547913,-2.311001482355567
408.258621,,0.011120330572056684,408.269,0.6259999871253967,-2.2388599697028977
408.72413800000004,,0.02063551563187971,408.735,0.6079999804496765,-2.2777441291828695
409.18965499999996,,0.029500892279656275,409.206,0.6200000047683716,-2.251193741599929
409.655172,,0.03606707443534581,409.664,0.6309999823570251,-2.226759763786036
410.12069,,0.04046755418210035,410.129,0.6000000238418579,-2.293781477553913
410.586207,,0.04337786203310367,410.595,0.5879999995231628,-2.3193792056923788
411.05172400000004,,0.04426217306509207,411.062,0.5699999928474426,-2.358037740540375
411.51724099999996,,0.04115200569218214,411.528,0.5839999914169312,-2.326986731760523
411.982759,,0.03215496199710127,411.995,0.5920000076293945,-2.3090318276288224
412.448276,,0.01718539238140616,412.454,0.6000000238418579,-2.291116957347062
412.913793,,0.0015041913245117857,412.922,0.6019999980926514,-2.286328799134285
413.37931,,0.020208071203873627,413.384,0.6050000190734863,-2.279429749189989
413.844828,,0.035306755655530264,413.854,0.597000002861023,-2.2965750327261616
414.31034500000004,,0.04447169248423574,414.317,0.6060000061988831,-2.276771163077755
414.775862,,0.047069025793935106,414.781,0.6039999723434448,-2.2810262505792185
415.241379,,0.04403654458291255,415.251,0.6060000061988831,-2.2766631993114514
415.706897,,0.03752778552275939,415.709,0.625,-2.2353593788897923
416.172414,,0.030091499336638114,416.18,0.5799999833106995,-2.333582368922618
416.63793100000004,,0.023407996787128304,416.645,0.6039999723434448,-2.281566715803111
417.103448,,0.017569259741276905,417.105,0.6050000190734863,-2.2797392451887424
417.568966,,0.011743225145987954,417.571,0.6169999837875366,-2.254014275313516
418.034483,,0.005516906566085952,418.036,0.6169999837875366,-2.254486726010752
418.5,,0.000535503508444176,418.501,0.5960000157356262,-2.3007496867016517
418.96551700000003,,0.00540103241697204,418.966,0.6110000014305115,-2.268604718604252
419.43103399999995,,0.00842285401477238,419.432,0.6050000190734863,-2.2822177943125928
419.896552,,0.009626164748632303,419.895,0.6359999775886536,-2.2152098442012886
420.362069,,0.009547491811883014,420.365,0.5929999947547913,-2.3093938561675484
420.827586,,0.008771645026498019,420.829,0.5830000042915344,-2.331640071979309
421.293103,,0.007498726295702014,421.291,0.5789999961853027,-2.340758990982523
421.758621,,0.005588032701942401,421.759,0.6110000014305115,-2.2713782193165537
422.22413800000004,,0.0030252861933368655,422.222,0.5989999771118164,-2.297778426568867
422.689655,,9.87824634317899e-05,422.687,0.5910000205039978,-2.315376270079639
423.15517200000005,,0.002944467417889153,423.154,0.5920000076293945,-2.313274057838966
423.62069,,0.0059780165180191,423.62,0.6129999756813049,-2.2675039467469653
424.086207,,0.008456406654443476,424.085,0.5879999995231628,-2.321856914219054
424.55172400000004,,0.00925559992656751,424.551,0.5899999737739563,-2.317295892095316
425.017241,,0.007608395998259857,425.011,0.6200000047683716,-2.2516482471087236
425.482759,,0.004099302796593875,425.476,0.5929999947547913,-2.310107771181155
425.948276,,0.0004220665323195138,425.94,0.5839999914169312,-2.3292877162985457
426.413793,,0.0017324682882928575,426.41,0.5879999995231628,-2.3200955070245324
426.87931000000003,,0.001504676646016812,426.873,0.6159999966621399,-2.2585804951910333
427.344828,,0.0008439129228816368,427.336,0.5860000252723694,-2.3234073017208408
427.810345,,0.003982070961418,427.799,0.625,-2.237904184958483
428.275862,,0.006133669021982623,428.269,0.5920000076293945,-2.309276983472869
428.741379,,0.006218890708021012,428.735,0.6119999885559082,-2.2652111698598967
429.20689699999997,,0.004666451313634946,429.197,0.593999981880188,-2.3039793938310935
429.672414,,0.0031846822075420503,429.663,0.593999981880188,-2.3035916442083573
430.137931,,0.0035555999360495573,430.129,0.6110000014305115,-2.2662387244801847
430.603448,,0.006140627098126575,430.594,0.6100000143051147,-2.2681827097078706
431.068966,,0.009306188312269351,431.058,0.5950000286102295,-2.3007163685197556
431.534483,,0.010683476052909474,431.524,0.5920000076293945,-2.3072001592950837
432.0,,0.009348869507271585,431.984,0.5669999718666077,-2.361710650119611
432.46551700000003,,0.006600047376212529,432.45,0.6209999918937683,-2.24420272656804
432.931034,,0.004424575197796761,432.918,0.6209999918937683,-2.2444309793997044
433.396552,,0.003517724136802644,433.38,0.5910000205039978,-2.310100123485321
433.862069,,0.0031068853000452436,433.851,0.6069999933242798,-2.2756241476314645
434.327586,,0.0024016003952850493,434.314,0.6069999933242798,-2.2760671413952727
434.79310300000003,,0.001571338456771192,434.774,0.628000020980835,-2.230804550183929
435.258621,,0.0011728917872872555,435.243,0.5830000042915344,-2.3293638058042463
435.724138,,0.0011563533742982007,435.709,0.5830000042915344,-2.3298997812655062
436.189655,,0.0008662498410400904,436.172,0.6060000061988831,-2.280326462859206
436.655172,,0.00012838168221211403,436.638,0.5789999961853027,-2.3396681541759174
437.12068999999997,,0.001504257804329096,437.102,0.6129999756813049,-2.266078482566714
437.586207,,0.002535811886213414,437.568,0.5929999947547913,-2.3100863921689525
438.051724,,0.0029731694992287503,438.033,0.6370000243186951,-2.2145969423625087
438.517241,,0.0035473722739449982,438.499,0.6039999723434448,-2.286787543519687
438.982759,,0.005351761602219331,438.959,0.6150000095367432,-2.2630322033464747
439.448276,,0.008500004258037944,439.425,0.6330000162124634,-2.223934496675596
439.913793,,0.011643361383620354,439.895,0.628000020980835,-2.234849382449899
440.37931000000003,,0.013231668381751755,440.358,0.6060000061988831,-2.282704658353655
440.844828,,0.01317360323196091,440.821,0.6069999933242798,-2.2803576639856153
441.310345,,0.012862737735400278,441.284,0.6179999709129333,-2.256136425283509
441.775862,,0.013646227536284273,441.751,0.5950000286102295,-2.3059094560477083
442.241379,,0.015720547867800288,442.214,0.5950000286102295,-2.3055053363216724
442.70689699999997,,0.018461123088885416,442.679,0.5989999771118164,-2.296331491250348
443.172414,,0.021212364848662745,443.147,0.5910000205039978,-2.3132604304629942
443.637931,,0.02355466506318401,443.612,0.5989999771118164,-2.2953061250085085
444.103448,,0.02530827367648069,444.078,0.597000002861023,-2.299129426018764
444.568966,,0.026679017428356076,444.543,0.6190000176429749,-2.2506726090406923
445.03448299999997,,0.028190500531523152,445.011,0.6150000095367432,-2.2588838612166118
445.5,,0.03009890947591565,445.469,0.5189999938011169,-2.4675712160210725
445.965517,,0.03181589875644283,445.94,0.6110000014305115,-2.2667291451315243
446.431034,,0.0320672515274119,446.402,0.6340000033378601,-2.2162810166538973
446.896552,,0.0298061027948859,446.866,0.5879999995231628,-2.316235510188758
447.36206899999996,,0.025193765976631075,447.336,0.6110000014305115,-2.2659479200231636
447.827586,,0.01980805397720423,447.799,0.5929999947547913,-2.3050754484863343
448.29310300000003,,0.015665020797570407,448.262,0.6079999804496765,-2.2724006103551195
448.758621,,0.01358108079347535,448.728,0.5929999947547913,-2.3051779864771813
449.224138,,0.01224177253389118,449.19,0.5929999947547913,-2.3053655506834936
449.689655,,0.009048750334003632,449.656,0.5979999899864197,-2.2947439780125753
450.155172,,0.002273808023522806,450.121,0.6029999852180481,-2.2841976212287065
450.62068999999997,,0.00737925981103518,450.587,0.6150000095367432,-2.2584644342327933
451.086207,,0.017341956266306975,451.052,0.6050000190734863,-2.2807120952383824
451.551724,,0.025211660459732853,451.517,0.5860000252723694,-2.322604220978407
452.017241,,0.029966037263412414,451.984,0.6110000014305115,-2.2686573561438967
452.482759,,0.031429573826408645,452.45,0.6190000176429749,-2.2517520384225325
452.94827599999996,,0.029666359368718156,452.914,0.5979999899864197,-2.2980155776929667
453.413793,,0.025681129611749287,453.376,0.5759999752044678,-2.3464308485600935
453.87931,,0.02194137353166178,453.844,0.6079999804496765,-2.277157726606219
454.344828,,0.020932114731451134,454.307,0.6000000238418579,-2.294974828644926
454.810345,,0.02327289453160545,454.77,0.6010000109672546,-2.2931162341856437
455.27586199999996,,0.02810074192741584,455.24,0.5960000157356262,-2.3042518607258153
455.741379,,0.03486914239049248,455.705,0.6079999804496765,-2.278265403190646
456.206897,,0.04331440266980214,456.169,0.5960000157356262,-2.304476320820813
456.672414,,0.05146651426768279,456.635,0.6159999966621399,-2.2608783993981145
457.137931,,0.05518125698870426,457.099,0.6010000109672546,-2.293441599713408
457.603448,,0.0507500529924475,457.564,0.6019999980926514,-2.2910588645518652
458.06896600000005,,0.03776946048518567,458.029,0.5889999866485596,-2.3190965755040116
458.53448299999997,,0.019252907328534335,458.494,0.6119999885559082,-2.268631256868149
459.0,,0.0004444573599390951,458.954,0.6330000162124634,-2.2224617289377355
459.465517,,0.017405710665119537,459.42,0.5960000157356262,-2.30260504688137
459.931034,,0.028589045397901153,459.888,0.5929999947547913,-2.3086411519279117
460.39655200000004,,0.031744576805630996,460.351,0.5669999718666077,-2.364769958564639
460.86206899999996,,0.02581016747391788,460.814,0.5929999947547913,-2.307609322323078
461.327586,,0.011745602610244371,461.284,0.5920000076293945,-2.309288214036307
461.793103,,0.0070939573437128235,461.755,0.5820000171661377,-2.3306061426539544
462.258621,,0.025789678117912412,462.21,0.5889999866485596,-2.3149330225476805
462.724138,,0.03971998751864132,462.675,0.6110000014305115,-2.2666384565494484
463.18965499999996,,0.046362784013536086,463.139,0.5709999799728394,-2.3534895368315127
463.655172,,0.045752300819322,463.605,0.625,-2.2356258421831723
464.12069,,0.03932402841870517,464.069,0.5920000076293945,-2.3073888543163976
464.58620699999994,,0.02846046678813734,464.535,0.5929999947547913,-2.305166138246545
465.051724,,0.01424656956943324,464.999,0.6169999837875366,-2.252924085383808
465.517241,,0.0017809076469550767,465.465,0.6039999723434448,-2.2813793821755226
465.98275900000004,,0.017472429313772988,465.933,0.6029999852180481,-2.2837739426044545
466.448276,,0.031103806741635365,466.395,0.6060000061988831,-2.277530404655441
466.913793,,0.0423135345851574,466.866,0.46399998664855957,-2.5872610109532514
467.37931,,0.05159711872954114,467.328,0.593999981880188,-2.304460360778632
467.844828,,0.05888497692474094,467.796,0.6079999804496765,-2.274428532891741
468.31034500000004,,0.06283878662954204,468.258,0.6039999723434448,-2.2836402103088
468.77586199999996,,0.061502579575361885,468.724,0.6200000047683716,-2.2492905581290006
469.241379,,0.053489046436771166,469.187,0.5809999704360962,-2.33476276601392
469.706897,,0.03883987287278412,469.652,0.5889999866485596,-2.3178196160148223
470.172414,,0.01949268638070608,470.12,0.5049999952316284,-2.501280350583573
470.63793100000004,,0.0007829970595228436,470.579,0.5929999947547913,-2.3099687646681297
471.10344799999996,,0.01764924214350651,471.05,0.6159999966621399,-2.260209736347343
471.568966,,0.02840981772918121,471.509,0.5950000286102295,-2.3062385041340296
472.034483,,0.033212838065600395,471.981,0.6050000190734863,-2.2846480720359397
472.5,,0.033862421585416164,472.439,0.593999981880188,-2.308722358974863
472.965517,,0.03169996830082204,472.907,0.5809999704360962,-2.3370641077551686
473.43103399999995,,0.02711350134507305,473.37,0.6190000176429749,-2.2542043800527116
473.89655200000004,,0.020768346114239222,473.84,0.5950000286102295,-2.3063324238191276
474.362069,,0.014213252521785376,474.302,0.6039999723434448,-2.286481858861423
474.827586,,0.00870158920258271,474.766,0.6190000176429749,-2.2534835264389472
475.293103,,0.003948146605171175,475.236,0.5820000171661377,-2.3337096072070342
475.758621,,0.001291278910814643,475.694,0.5929999947547913,-2.309308329199064
476.22413800000004,,0.007543470674605027,476.159,0.503000020980835,-2.5049141606458094
476.689655,,0.013938644841077577,476.625,0.6050000190734863,-2.2821992748818887
477.155172,,0.019089351156568755,477.092,0.5950000286102295,-2.3034865033990846
477.62069,,0.02225476926889654,477.558,0.6110000014305115,-2.2681361552503025
478.086207,,0.023660497145594917,478.025,0.5989999771118164,-2.2938104037453804
478.55172400000004,,0.02408431094417173,478.491,0.6119999885559082,-2.265055353793572
479.01724099999996,,0.02431095699612001,478.955,0.6340000033378601,-2.2167423118624834
479.482759,,0.024697850090025817,479.421,0.5960000157356262,-2.2992097117746932
479.948276,,0.02495552918208896,479.884,0.5950000286102295,-2.3011396811587805
480.413793,,0.024404692793477283,480.347,0.6079999804496765,-2.2726496018024567
480.87931000000003,,0.02265182259941947,480.81,0.5389999747276306,-2.422895658715684
481.344828,,0.020084330230627372,481.28,0.6060000061988831,-2.276935910330198
481.810345,,0.017727091993401656,481.746,0.5879999995231628,-2.3162507181280687
482.275862,,0.01660831093221973,482.204,0.6060000061988831,-2.2772192528150073
482.74137900000005,,0.01705151008757562,482.669,0.5929999947547913,-2.3058050666866428
483.206897,,0.01829520561845796,483.136,0.597000002861023,-2.297424586323791
483.672414,,0.018830889523633595,483.602,0.6119999885559082,-2.265138991952896
484.13793100000004,,0.01747302108499552,484.066,0.5789999961853027,-2.3374759837107764
484.603448,,0.014338120495462991,484.532,0.6299999952316284,-2.2268399658569553
485.068966,,0.010619240921204818,484.999,0.5820000171661377,-2.331908293342905
485.534483,,0.0071581025106066485,485.465,0.6110000014305115,-2.26922359902997
486.0,,0.0033242693508574853,485.929,0.597000002861023,-2.300208148851449
486.46551700000003,,0.002426180501310737,486.391,0.6150000095367432,-2.261447743035372
486.931034,,0.01081928150897674,486.855,0.5789999961853027,-2.3402922697935433
487.396552,,0.020698008589658534,487.324,0.5989999771118164,-2.2970779999818354
487.862069,,0.029682995269972024,487.788,0.5649999976158142,-2.3714456054903996
488.327586,,0.035801695338825934,488.25,0.6330000162124634,-2.2235163441234156
488.79310300000003,,0.03853659880751522,488.716,0.578000009059906,-2.3434786269658128
489.258621,,0.038619495419154645,489.18,0.609000027179718,-2.275990617135445
489.724138,,0.03717511068041241,489.646,0.5920000076293945,-2.3129901177341052
490.189655,,0.03503042187148122,490.11,0.5920000076293945,-2.3128660976555953
490.655172,,0.03240954466154845,490.576,0.6079999804496765,-2.2778012769927583
491.12069,,0.029016909591555645,491.041,0.593999981880188,-2.3080195996303643
491.586207,,0.024574966484679633,491.506,0.5979999899864197,-2.298955034922895
492.05172400000004,,0.019413049263142232,491.97,0.5839999914169312,-2.3290504019217173
492.517241,,0.014323971626100945,492.436,0.6340000033378601,-2.2196687235526147
492.982759,,0.009718662705303239,492.899,0.5799999833106995,-2.336836715744542
493.448276,,0.005227321840299577,493.369,0.6039999723434448,-2.2840558672509794
493.913793,,0.00044734633158248765,493.832,0.5889999866485596,-2.3162440435462677
494.37931000000003,,0.004133620198060838,494.295,0.6039999723434448,-2.28308987514244
494.844828,,0.007456081267423356,494.766,0.5960000157356262,-2.3000763848342074
495.310345,,0.0091900738520006,495.228,0.6299999952316284,-2.2256049459774627
495.775862,,0.010251867851404866,495.694,0.6069999933242798,-2.2753734804355097
496.241379,,0.01172151717413321,496.159,0.5889999866485596,-2.314317104009751
496.70689699999997,,0.013576225632908988,496.624,0.5860000252723694,-2.3206589972161744
497.172414,,0.01494059362272813,497.084,0.628000020980835,-2.2290456896556265
497.637931,,0.015388044193983125,497.55,0.5910000205039978,-2.309632264725159
498.103448,,0.015418479483632985,498.014,0.5669999718666077,-2.361984938953279
498.568966,,0.015646704617814172,498.48,0.5920000076293945,-2.3076711574608377
499.03448299999997,,0.016100713961844985,498.954,0.6169999837875366,-2.2534392761631894
499.5,,0.016483115030972606,499.413,0.609000027179718,-2.271175777538891
499.96551700000003,,0.01654398128482683,499.881,0.6069999933242798,-2.2759038223305086
500.431034,,0.015788093249708438,500.343,0.6079999804496765,-2.2741476735309516
500.89655200000004,,0.013240100442254245,500.807,0.5839999914169312,-2.326896657250756
501.362069,,0.008137549373900254,501.269,0.5839999914169312,-2.327383391353676
501.827586,,0.0008406375403286376,501.734,0.6029999852180481,-2.2864858580085934
502.293103,,0.007357081081280239,502.205,0.6029999852180481,-2.2869762979923918
502.758621,,0.015275153448228053,502.671,0.6169999837875366,-2.2569431834849287
503.224138,,0.02229317336865335,503.129,0.5989999771118164,-2.296589414309657
503.68965499999996,,0.027841474361081173,503.594,0.6039999723434448,-2.2860759920017517
504.15517200000005,,0.031086251575732467,504.059,0.5960000157356262,-2.303822498997879
504.62068999999997,,0.031486934205449,504.525,0.5960000157356262,-2.3040676817002193
505.08620699999994,,0.029413732425438453,504.992,0.628000020980835,-2.2345156478032497
505.55172400000004,,0.025869127940962963,505.457,0.6119999885559082,-2.2694523170855097
506.017241,,0.02167540773091142,505.925,0.5759999752044678,-2.3478735996675266
506.48275899999993,,0.01721789871309007,506.388,0.5839999914169312,-2.3303477492888214
506.948276,,0.012864758346353328,506.851,0.5960000157356262,-2.304023960253436
507.413793,,0.009099646802332436,507.321,0.6050000190734863,-2.284157693703252
507.87931,,0.005997309012627805,507.781,0.5920000076293945,-2.312151032462738
508.344828,,0.002958570350482647,508.244,0.5899999737739563,-2.316119227856294
508.810345,,0.0005733709156333119,508.71,0.6299999952316284,-2.228535744435454
509.27586199999996,,0.00422877176032673,509.174,0.597000002861023,-2.299958274056847
509.74137900000005,,0.007031546577531949,509.639,0.6119999885559082,-2.2667853502829165
510.20689699999997,,0.008719256682474308,510.106,0.574999988079071,-2.3468981046293527
510.67241399999995,,0.010186894243456672,510.572,0.6330000162124634,-2.2200507624868964
511.13793100000004,,0.01221084249082047,511.037,0.6039999723434448,-2.2827720913800125
511.603448,,0.014292818619617604,511.502,0.6159999966621399,-2.256208996144398
512.0689659999999,,0.015528512450302411,511.969,0.6169999837875366,-2.253664849651432
512.534483,,0.016208253206428148,512.435,0.6299999952316284,-2.2250417363379458
513.0,,0.017466750634161015,512.895,0.625,-2.2357084510635636
513.465517,,0.019417830076639175,513.365,0.5910000205039978,-2.309638046629229
513.931034,,0.020857649772185665,513.826,0.6050000190734863,-2.279080542570034
514.396552,,0.021136185315018704,514.295,0.5820000171661377,-2.3292236658235264
514.862069,,0.021176688033441166,514.758,0.6019999980926514,-2.2857748986313906
515.327586,,0.021894509154003705,515.221,0.6060000061988831,-2.27727033788678
515.793103,,0.022244303745076317,515.686,0.5879999995231628,-2.3167753180666986
516.258621,,0.01959980926930513,516.152,0.6449999809265137,-2.192951389254521
516.724138,,0.012050282733759484,516.618,0.5989999771118164,-2.2935858965754945
517.189655,,0.0001677578852048366,517.085,0.625,-2.237402317046479
517.655172,,0.01328045736107418,517.55,0.5960000157356262,-2.3010751365244007
518.1206900000001,,0.025132092637665325,518.01,0.5920000076293945,-2.310297658882502
518.5862070000001,,0.033393245284509536,518.476,0.6430000066757202,-2.1996940632025113
519.051724,,0.03737972178116112,518.944,0.5929999947547913,-2.309116729370696
519.517241,,0.0369902379407863,519.407,0.6320000290870667,-2.224606848950778
519.982759,,0.03250040949451764,519.869,0.5669999718666077,-2.366630209128681
520.448276,,0.025084083088768857,520.34,0.6079999804496765,-2.277657979739013
520.9137929999999,,0.0168540192112372,520.803,0.6200000047683716,-2.251796080841309
521.37931,,0.009804539500055637,521.265,0.6060000061988831,-2.282498580999311
521.844828,,0.004728028655846843,521.731,0.5839999914169312,-2.3305439011212674
522.310345,,0.001233533724395317,522.194,0.6190000176429749,-2.2543162595804374
522.7758620000001,,0.001559644788362403,522.66,0.593999981880188,-2.308716332599911
523.241379,,0.004554339604151342,523.128,0.6110000014305115,-2.271523398948226
523.7068969999999,,0.008289632007305271,523.594,0.6069999933242798,-2.279997070650869
524.172414,,0.012353759173862059,524.058,0.6290000081062317,-2.2317474656822456
524.637931,,0.015403203038601607,524.523,0.6190000176429749,-2.253145573013199
525.103448,,0.01638386929808254,524.988,0.593999981880188,-2.3071669457657964
525.568966,,0.015757267245319367,525.454,0.6510000228881836,-2.182496313748455
526.034483,,0.015124127247018096,525.914,0.6370000243186951,-2.2124811851864323
526.5,,0.015590730254433718,526.384,0.6370000243186951,-2.211952079628562
526.9655170000001,,0.016748149516493147,526.847,0.5860000252723694,-2.322539259085916
527.4310340000001,,0.017268760012700668,527.31,0.6600000262260437,-2.1608177533813016
527.8965519999999,,0.01632977038225948,527.781,0.6470000147819519,-2.1886757825598178
528.362069,,0.01440407074179758,528.243,0.6269999742507935,-2.2318359711232647
528.827586,,0.012711506634282806,528.709,0.6370000243186951,-2.209702361983558
529.293103,,0.011988377289486207,529.172,0.6449999809265137,-2.1920034911855155
529.7586210000001,,0.011962199633203954,529.638,0.6349999904632568,-2.213606252563299
530.224138,,0.012029403613999571,530.102,0.6480000019073486,-2.1851925704579185
530.689655,,0.01209364645777449,530.568,0.6209999918937683,-2.244021159088048
531.155172,,0.01252651363830166,531.033,0.5899999737739563,-2.3116624761532174
531.62069,,0.01364739290454757,531.499,0.6549999713897705,-2.1702493523954938
532.086207,,0.015603006288475317,531.959,0.6449999809265137,-2.192323394896869
532.5517239999999,,0.018549119390105225,532.424,0.6330000162124634,-2.2188339493574505
533.017241,,0.022521829799137708,532.892,0.6060000061988831,-2.2780935755858
533.482759,,0.027085899584605184,533.354,0.6549999713897705,-2.1718320054621985
533.9482760000001,,0.031377530187560884,533.825,0.6570000052452087,-2.1680061789683096
534.413793,,0.034570316803533785,534.287,0.7089999914169312,-2.05526873418516
534.87931,,0.03605292527345435,534.759,0.6830000281333923,-2.1124676989174196
535.344828,,0.03500455544736669,535.221,0.640999972820282,-2.204510494464815
535.810345,,0.03006046951312047,535.679,0.6819999814033508,-2.115694821655121
536.275862,,0.01980832444205361,536.144,0.6779999732971191,-2.124871218532643
536.7413789999999,,0.003908908241388337,536.61,0.6620000004768372,-2.16012921132807
537.206897,,0.01596648441836675,537.077,0.6439999938011169,-2.199670777550687
537.672414,,0.03608367497130884,537.543,0.6740000247955322,-2.1345532936949088
538.137931,,0.05190316521488744,538.006,0.6700000166893005,-2.143417618560218
538.6034480000001,,0.060349685783330685,538.472,0.6759999990463257,-2.130397636492728
539.0689659999999,,0.06151622361690204,538.94,0.7149999737739563,-2.0453816421282807
539.5344829999999,,0.05803806224290682,539.403,0.7490000128746033,-1.9711572486286475
540.0,,0.05244816787549448,539.866,0.6449999809265137,-2.1974896350552706
540.465517,,0.045105750397471986,540.336,0.734000027179718,-2.0032549104695296
540.931034,,0.0347805316771483,540.799,0.7239999771118164,-2.0246284028235513
541.396552,,0.021076588618372735,541.262,0.6909999847412109,-2.0960448836440704
541.862069,,0.006013702077955961,541.727,0.6830000281333923,-2.1129461056267145
542.327586,,0.006769493319577366,542.19,0.6700000166893005,-2.140709799787867
542.7931030000001,,0.014205740963402809,542.655,0.6669999957084656,-2.1466747070356833
543.258621,,0.015291928601507887,543.121,0.7850000262260437,-1.8890270461252265
543.7241379999999,,0.01087011031542874,543.587,0.6700000166893005,-2.1390248145175694
544.189655,,0.002455576732359307,544.052,0.6779999732971191,-2.121088436148854
544.655172,,0.008481014852989462,544.517,0.7110000252723694,-2.0487428865961363
545.12069,,0.020298745901329705,544.984,0.7099999785423279,-2.050542104577883
545.5862070000001,,0.030833804374274354,545.45,0.746999979019165,-1.969634114913554
546.051724,,0.03780722736833302,545.91,0.7229999899864197,-2.0217141751328356
546.517241,,0.039858207481824386,546.38,0.6930000185966492,-2.086964337894013
546.982759,,0.03727552741240824,546.843,0.6959999799728394,-2.080422903644113
547.448276,,0.031746940187077966,547.306,0.7519999742507935,-1.9585166818749418
547.9137929999999,,0.025277285731948186,547.773,0.7229999899864197,-2.0218949856564814
548.3793099999999,,0.019082849589187906,548.236,0.7089999914169312,-2.052687423448653
548.844828,,0.013308725010320955,548.701,0.7239999771118164,-2.020384861639206
549.310345,,0.007708375122639831,549.166,0.6620000004768372,-2.1559132630276503
549.775862,,0.002439524668476902,549.631,0.7360000014305115,-1.995207062242549
550.241379,,0.0020078746785319704,550.099,0.8159999847412109,-1.8214714271205528
550.706897,,0.005555739897848826,550.564,0.7149999737739563,-2.0420937351991957
551.172414,,0.008738519660619393,551.029,0.7739999890327454,-1.9141375570274908
551.637931,,0.011973267012659565,551.495,0.7429999709129333,-1.9822472514219374
552.103448,,0.015031152921110645,551.954,0.7269999980926514,-2.017646876634033
552.568966,,0.017498842559519154,552.42,0.7770000100135803,-1.909208669443939
553.034483,,0.019363063042613936,552.888,0.7260000109672546,-2.0207508496190023
553.5,,0.02078632677280487,553.351,0.7089999914169312,-2.058143474735347
553.965517,,0.021669180218174284,553.814,0.8130000233650208,-1.8318322730717602
554.4310340000001,,0.021867286685813017,554.284,0.7459999918937683,-1.9779721878797951
554.896552,,0.0215855942533235,554.755,0.7440000176429749,-1.9823968791504936
555.3620689999999,,0.021124141272357008,555.21,0.7450000047683716,-1.9801819163842975
555.827586,,0.020402559344784552,555.676,0.75,-1.9691495062070783
556.293103,,0.0191502553010869,556.139,0.75,-1.968911568171144
556.758621,,0.01741892305515471,556.604,0.7789999842643738,-1.9054008180523245
557.224138,,0.01539731466398241,557.069,0.7080000042915344,-2.059673431775295
557.689655,,0.012803888340291787,557.535,0.7789999842643738,-1.9045101156756292
558.155172,,0.009234206695798693,558.0,0.8270000219345093,-1.7994005654904834
558.6206900000001,,0.005406446096104349,558.465,0.7139999866485596,-2.0450144533312247
559.0862070000001,,0.0032438915570710417,558.929,0.7080000042915344,-2.0574950696401513
559.5517239999999,,0.003902516658524862,559.398,0.6850000023841858,-2.1070165152541387
560.017241,,0.006100653427025026,559.862,0.7329999804496765,-2.0018762011839124
560.482759,,0.007270021115817876,560.324,0.7170000076293945,-2.0362082351450557
560.948276,,0.006258234982219737,560.795,0.7710000276565552,-1.9180888297748115
561.413793,,0.004115683027917861,561.258,0.6940000057220459,-2.085440959927627
561.87931,,0.0022806207151396408,561.724,0.6740000247955322,-2.1286931575635086
562.344828,,0.0009912080740270327,562.186,0.7580000162124634,-1.9454595303425135
562.8103450000001,,0.000186093160951809,562.652,0.6790000200271606,-2.117444892495231
563.275862,,0.0012596441524912766,563.117,0.7239999771118164,-2.0193812811973317
563.7413789999999,,0.0020620757616168516,563.583,0.7440000176429749,-1.9758869881583692
564.206897,,0.0029968124400218212,564.048,0.7170000076293945,-2.034888675063851
564.672414,,0.0045553455766016,564.514,0.6940000057220459,-2.085270250264231
565.137931,,0.006233317345128177,564.98,0.7039999961853027,-2.0638432260296518
565.603448,,0.006771342480715942,565.439,0.6890000104904175,-2.0969579185161416
566.068966,,0.005617981824865099,565.906,0.6919999718666077,-2.090918902918681
566.534483,,0.003606793245772766,566.369,0.722000002861023,-2.026101729940674
567.0,,0.002051701507725199,566.839,0.6449999809265137,-2.194428556185755
567.465517,,0.0015602932098622518,567.302,0.7570000290870667,-1.9510009110610873
567.931034,,0.001771456951336825,567.77,0.765999972820282,-1.931963277658516
568.396552,,0.001850716966782072,568.232,0.6869999766349792,-2.1046164977403796
568.862069,,0.0011549132004974628,568.698,0.6800000071525574,-2.1203626519032124
569.327586,,0.00023070091881293375,569.166,0.722000002861023,-2.029296180556195
569.793103,,0.0014661363603060795,569.624,0.675000011920929,-2.132056313289313
570.2586210000001,,0.0017370928142646372,570.091,0.7429999709129333,-1.9841870838071165
570.724138,,0.0011913288459309637,570.557,0.7110000252723694,-2.0540880490656823
571.189655,,0.0007897826751327551,571.021,0.7129999995231628,-2.049814877364076
571.655172,,0.0010107249422716394,571.488,0.7269999980926514,-2.0192955034871343
572.12069,,0.001057852613919879,571.955,0.6899999976158142,-2.0997859021919743
572.586207,,0.00019905189819468958,572.42,0.765999972820282,-1.9339914745429811
573.051724,,0.0026966607553203024,572.881,0.6869999766349792,-2.1057966550639584
573.517241,,0.005122672396165778,573.351,0.6880000233650208,-2.103230485580816
573.982759,,0.006366664803740215,573.814,0.6579999923706055,-2.1681379070378823
574.4482760000001,,0.006559749087701275,574.277,0.722000002861023,-2.028201982476302
574.913793,,0.006650552987876547,574.742,0.652999997138977,-2.1779917347676427
575.37931,,0.007409040370768283,575.206,0.7170000076293945,-2.0380036546503355
575.844828,,0.008897787035662876,575.672,0.6869999766349792,-2.1028082345640047
576.310345,,0.010422386034201361,576.139,0.6499999761581421,-2.1828809179221658
576.775862,,0.010834415449778671,576.605,0.6830000281333923,-2.110483809560573
577.241379,,0.009341818295892982,577.07,0.6700000166893005,-2.1383557400749673
577.706897,,0.006351195330195552,577.529,0.6539999842643738,-2.1728287128481507
578.172414,,0.003302835519555561,577.996,0.6240000128746033,-2.2378807793055815
578.6379310000001,,0.001400857440130681,578.461,0.6539999842643738,-2.1723021065606436
579.1034480000001,,0.0005580032600483393,578.929,0.6869999766349792,-2.1002805359134515
579.5689659999999,,0.00026166068220600055,579.392,0.6660000085830688,-2.1460007984372638
580.034483,,0.001770495708356136,579.854,0.640999972820282,-2.200531457306431
580.5,,0.0037098007339291346,580.324,0.6629999876022339,-2.152759189963699
580.965517,,0.005529058302560401,580.788,0.6830000281333923,-2.109431303298198
581.431034,,0.007426166427314395,581.251,0.6570000052452087,-2.1663993423613515
581.896552,,0.01042719723844489,581.716,0.6830000281333923,-2.110144633972047
582.362069,,0.01547963436751701,582.18,0.6060000061988831,-2.2783460177748336
582.827586,,0.02273688634382205,582.645,0.6909999847412109,-2.0936475580261855
583.2931030000001,,0.03185025823784393,583.11,0.652999997138977,-2.1769473746957093
583.758621,,0.04265651620969537,583.575,0.6579999923706055,-2.166573080658242
584.2241379999999,,0.05501474531097354,584.04,0.640999972820282,-2.2041211415837236
584.689655,,0.06776637073024448,584.506,0.6309999823570251,-2.2263951641758886
585.155172,,0.07834109986700864,584.973,0.6420000195503235,-2.2028791893530224
585.6206900000001,,0.08394506972208503,585.439,0.656000018119812,-2.1727744980263486
586.0862070000001,,0.08312459678849093,585.903,0.6330000162124634,-2.2232143752009046
586.551724,,0.07599880225619157,586.365,0.6179999709129333,-2.2561504334112077
587.017241,,0.06335108218498088,586.833,0.6370000243186951,-2.214930393587429
587.482759,,0.046158293510202106,587.295,0.6069999933242798,-2.280377560544477
587.948276,,0.026043243581781582,587.766,0.6370000243186951,-2.21501669529299
588.4137929999999,,0.00539782534887263,588.228,0.6179999709129333,-2.2563211229566775
588.87931,,0.013701898115060328,588.694,0.6230000257492065,-2.245252318941171
589.344828,,0.030668551906676507,589.155,0.5929999947547913,-2.310357643724139
589.810345,,0.045998137902683485,589.62,0.6650000214576721,-2.153169858171535
590.2758620000001,,0.0595709832324111,590.085,0.6370000243186951,-2.213785196588808
590.741379,,0.0697590255830523,590.551,0.6060000061988831,-2.2808874076063956
591.2068969999999,,0.07460628165774894,591.018,0.6309999823570251,-2.2259513366535204
591.672414,,0.0738978393116774,591.484,0.6119999885559082,-2.2668568012727848
592.137931,,0.06988087084171138,591.951,0.6460000276565552,-2.1922899232516864
592.603448,,0.0659507037630365,592.41,0.5929999947547913,-2.307277452167528
593.068966,,0.06481201942173029,592.88,0.6060000061988831,-2.2785020173079573
593.534483,,0.0677153268205488,593.343,0.6069999933242798,-2.2759130308534967
594.0,,0.07445932191766222,593.811,0.6399999856948853,-2.2036616552450643
594.4655170000001,,0.08305219772532946,594.273,0.593999981880188,-2.3035884693998865
594.9310340000001,,0.0895634761062643,594.738,0.5920000076293945,-2.3077295044161454
595.3965519999999,,0.08973985098259744,595.201,0.5950000286102295,-2.3010594062079157
595.862069,,0.08193842458450215,595.667,0.609000027179718,-2.270509684155443
596.327586,,0.06851972499787698,596.132,0.6079999804496765,-2.272725658036303
596.793103,,0.05388161085778953,596.598,0.6230000257492065,-2.240166617004712
597.2586210000001,,0.040875105421959095,597.063,0.6140000224113464,-2.259974056478239
597.724138,,0.02911911718338642,597.529,0.578000009059906,-2.3386777131573453
598.189655,,0.01666108668511402,597.996,0.5929999947547913,-2.306335044935943
598.655172,,0.002867293998050913,598.454,0.5989999771118164,-2.293653867812113
599.12069,,0.01064387780506097,598.925,0.6290000081062317,-2.2287247726543318
599.586207,,0.021680131900969953,599.387,0.5720000267028809,-2.3533637995873793
600.0517239999999,,0.029451200768775485,599.855,0.6069999933242798,-2.2775790255732895
600.517241,,0.03461843477253867,600.317,0.6200000047683716,-2.249720756899714
600.982759,,0.03783682272848988,600.781,0.5979999899864197,-2.298096058197771
601.448276,,0.03895756692733317,601.251,0.5699999928474426,-2.3595110262241
601.913793,,0.037897865268572854,601.709,0.5699999928474426,-2.3598801066574087
602.37931,,0.03575062029020466,602.18,0.5699999928474426,-2.3601944337108236
602.844828,,0.034289344063638684,602.646,0.5849999785423279,-2.327764208494399
603.310345,,0.03427460245074671,603.105,0.5950000286102295,-2.306153758156149
603.775862,,0.03472594686412765,603.57,0.5730000138282776,-2.3541812677895733
604.2413789999999,,0.034085859154388165,604.036,0.5709999799728394,-2.358554701150671
604.706897,,0.031810192345467975,604.501,0.5540000200271606,-2.3955271114411127
605.172414,,0.028624620366875585,604.966,0.5389999747276306,-2.4280650204819545
605.637931,,0.025535521782093132,605.432,0.578000009059906,-2.342883112712135
606.1034480000001,,0.023032072870886156,605.9,0.6039999723434448,-2.2859564441879696
606.5689659999999,,0.021255997265007126,606.362,0.5640000104904175,-2.3727611580935024
607.0344829999999,,0.020449607608390208,606.825,0.5669999718666077,-2.3658366566813425
607.5,,0.020749684339331772,607.295,0.550000011920929,-2.402450822850033
607.965517,,0.021617962118903277,607.758,0.5669999718666077,-2.3649706032574667
608.431034,,0.022003884328521517,608.221,0.5680000185966492,-2.3623417490640417
608.896552,,0.021359505591502258,608.686,0.5419999957084656,-2.4185440313901414
609.362069,,0.020245614048287546,609.152,0.5690000057220459,-2.3592996107363953
609.827586,,0.019630047300045902,609.617,0.5419999957084656,-2.417737183040463
610.293103,,0.019678817050270754,610.085,0.5540000200271606,-2.391254508681572
610.758621,,0.01953236684527184,610.55,0.5669999718666077,-2.3626507421987517
611.2241379999999,,0.0183056833185567,611.01,0.5789999961853027,-2.3362905206549334
611.689655,,0.0160240627035913,611.476,0.5740000009536743,-2.3470383671316277
612.155172,,0.013429843372409107,611.944,0.5680000185966492,-2.36004021367287
612.62069,,0.011155911477771839,612.406,0.5680000185966492,-2.360047867141593
613.0862070000001,,0.009373216968002727,612.869,0.5540000200271606,-2.390634189660379
613.551724,,0.008006906531584155,613.339,0.5839999914169312,-2.325434678550765
614.017241,,0.006860221197829807,613.803,0.5429999828338623,-2.4149885899568098
614.4827590000001,,0.005577241612423894,614.265,0.578000009059906,-2.339027415477594
614.948276,,0.003858688798828462,614.731,0.5669999718666077,-2.3633369498482892
615.4137929999999,,0.0017685667370280023,615.194,0.5529999732971191,-2.394224161917776
615.8793099999999,,0.0003176910873254288,615.659,0.5540000200271606,-2.3924618732908485
616.344828,,0.001959452594882892,616.128,0.5680000185966492,-2.362394427516065
616.810345,,0.0027458951268658593,616.593,0.6359999775886536,-2.214681737353368
617.275862,,0.002341308687975513,617.058,0.6039999723434448,-2.2848197991461285
617.741379,,0.0005756191912873224,617.524,0.550000011920929,-2.4028618422607377
618.206897,,0.0024675322320282613,617.988,0.5519999861717224,-2.3988639222392374
618.672414,,0.0062178200155850166,618.454,0.5460000038146973,-2.412249420083749
619.137931,,0.009484860395979886,618.917,0.527999997138977,-2.4517240350102196
619.603448,,0.011188353104548042,619.38,0.5540000200271606,-2.3952756928659737
620.068966,,0.011610493416289268,619.848,0.5540000200271606,-2.3954033148000526
620.534483,,0.012379971685879093,620.311,0.5540000200271606,-2.3954575941574023
621.0,,0.0145196361183794,620.781,0.5170000195503235,-2.476047613888198
621.465517,,0.016527814018582006,621.243,0.5519999861717224,-2.399702043957668
621.9310340000001,,0.014844083354469123,621.709,0.5630000233650208,-2.375573008455411
622.396552,,0.006578201925520045,622.173,0.550000011920929,-2.403664957085762
622.862069,,0.007925797104985536,622.638,0.5400000214576721,-2.4251617496021733
623.327586,,0.024916559868878356,623.103,0.5379999876022339,-2.429179826380511
623.793103,,0.03945542136546019,623.569,0.5339999794960022,-2.437516264799207
624.258621,,0.04803486552606879,624.036,0.5419999957084656,-2.419681583214342
624.724138,,0.049711007477073674,624.494,0.5419999957084656,-2.4192610097527467
625.189655,,0.045631738952762756,624.959,0.5529999732971191,-2.3948726947256693
625.655172,,0.03801581284361748,625.425,0.5540000200271606,-2.3922805491759447
626.1206900000001,,0.02929890541951684,625.895,0.5440000295639038,-2.4136760153955805
626.5862070000001,,0.021528862080228677,626.358,0.5180000066757202,-2.469965116196089
627.0517239999999,,0.015950263212045675,626.825,0.5419999957084656,-2.4173684764292878
627.5172409999999,,0.01272334656798453,627.287,0.5260000228881836,-2.451973761111418
627.982759,,0.010893599817160081,627.758,0.531000018119812,-2.440891239077933
628.448276,,0.009014674980844866,628.221,0.5419999957084656,-2.416806214027149
628.913793,,0.00636806351401007,628.679,0.5040000081062317,-2.49954803512849
629.37931,,0.0036170657390449034,629.144,0.5630000233650208,-2.3710353888807236
629.844828,,0.0018472366002884755,629.61,0.5400000214576721,-2.4212444648344404
630.3103450000001,,0.0009810541522983587,630.077,0.5630000233650208,-2.3713042408787355
630.7758620000001,,0.00018494971373536335,630.542,0.5360000133514404,-2.430359895255698
631.2413789999999,,0.0021310200698292387,631.006,0.5669999718666077,-2.363110200048258
631.706897,,0.003613995064809526,631.472,0.5299999713897705,-2.44405601042104
632.172414,,0.003213189780161035,631.94,0.5400000214576721,-2.4226430227545515
632.637931,,0.0013823304164414414,632.402,0.5260000228881836,-2.453544757465993
633.103448,,0.00013476268713059867,632.866,0.546999990940094,-2.4082086273238352
633.568966,,0.000794735679548754,633.336,0.5299999713897705,-2.4456630792501786
634.034483,,0.0026948022677819104,633.799,0.5379999876022339,-2.428640558262195
634.5,,0.004138974490556475,634.262,0.5329999923706055,-2.4399175820146564
634.9655170000001,,0.004162975465233032,634.727,0.49799999594688416,-2.516520182930812
635.431034,,0.0031832807568850253,635.19,0.5339999794960022,-2.4383948922970125
635.8965519999999,,0.002259852016813374,635.656,0.5540000200271606,-2.395073587840953
636.362069,,0.0020302195126014116,636.121,0.5249999761581421,-2.4584433910423553
636.827586,,0.002322578044756828,636.587,0.550000011920929,-2.404097511754857
637.293103,,0.00263134302354502,637.054,0.546999990940094,-2.410681440162355
637.7586210000001,,0.002842249190317507,637.52,0.5180000066757202,-2.4738363812460515
638.224138,,0.003286713717801206,637.984,0.5429999828338623,-2.419272017646786
638.689655,,0.00395307118113253,638.45,0.6190000176429749,-2.2535252578354936
639.155172,,0.004081252098258014,638.91,0.5419999957084656,-2.421044135720543
639.62069,,0.0031759551275147373,639.38,0.546999990940094,-2.4098546566114813
640.086207,,0.002158694403513852,639.841,0.5450000166893005,-2.4138670974865066
640.551724,,0.002574098644215083,640.31,0.531000018119812,-2.4439857986833693
641.017241,,0.004518407951330743,640.773,0.5210000276565552,-2.465364925931488
641.482759,,0.006175490321720272,641.235,0.527999997138977,-2.4496952577205446
641.9482760000001,,0.005777639404457444,641.701,0.5170000195503235,-2.47324236658019
642.413793,,0.0035048189759866624,642.165,0.5410000085830688,-2.4205506896008067
642.87931,,0.0011109097063625748,642.631,0.5109999775886536,-2.485532198013393
643.344828,,0.00011096381603020255,643.096,0.5149999856948853,-2.476477728674726
643.810345,,0.0007376285501612605,643.561,0.515999972820282,-2.474008094975716
644.275862,,0.002302829768991473,644.028,0.5149999856948853,-2.475953155182063
644.7413789999999,,0.003949884697709194,644.494,0.5400000214576721,-2.421317171256856
645.206897,,0.0050542420316882245,644.959,0.5170000195503235,-2.4713247203761433
645.672414,,0.005400565744265504,645.424,0.550000011920929,-2.3993987693070378
646.1379310000001,,0.005208524206515349,645.884,0.5239999890327454,-2.456084298079324
646.6034480000001,,0.004839918013628933,646.354,0.5260000228881836,-2.451837440601768
647.0689659999999,,0.004439819693186487,646.814,0.5149999856948853,-2.4759800473490015
647.534483,,0.003965828268783032,647.284,0.527999997138977,-2.447896267828472
648.0,,0.0034610711450386855,647.751,0.5419999957084656,-2.417687067376277
648.465517,,0.0030475107317142315,648.213,0.5289999842643738,-2.446344946037759
648.931034,,0.002618046781410969,648.679,0.5419999957084656,-2.4183909821164526
649.396552,,0.001775175931927156,649.143,0.46399998664855957,-2.5887170740406544
649.862069,,0.00029744133638349226,649.609,0.5299999713897705,-2.445330015757057
650.327586,,0.0014283302293151172,650.073,0.5210000276565552,-2.465340553424665
650.7931030000001,,0.002773473207115815,650.538,0.515999972820282,-2.4766226094671344
651.258621,,0.0037230151050052012,651.003,0.5249999761581421,-2.4573775990974007
651.7241379999999,,0.004942589297975576,651.468,0.5709999799728394,-2.357484532821885
652.189655,,0.006725835646983405,651.93,0.5170000195503235,-2.475407553104048
652.655172,,0.008288182264476232,652.4,0.5239999890327454,-2.4603771235671807
653.12069,,0.008555830871698363,652.862,0.515999972820282,-2.4779648011382216
653.5862070000001,,0.007347325073595316,653.324,0.5120000243186951,-2.4867717855459244
654.051724,,0.005307220502464379,653.795,0.49799999594688416,-2.51729747892049
654.517241,,0.003015561532478898,654.258,0.5389999747276306,-2.4279288143138777
654.982759,,0.000754235928613938,654.724,0.5379999876022339,-2.4299950281595417
655.448276,,0.0011111335077521375,655.187,0.5329999923706055,-2.44071057489591
655.9137929999999,,0.0022096616577590707,655.652,0.5540000200271606,-2.3947214098582794
656.37931,,0.0026077653457398735,656.117,0.5370000004768372,-2.4314683995452615
656.844828,,0.002623213556801605,656.583,0.5460000038146973,-2.411527083334083
657.310345,,0.0021376966960897736,657.048,0.5440000295639038,-2.4155180108788796
657.7758620000001,,0.0006454362231354367,657.513,0.4189999997615814,-2.687463819567755
658.241379,,0.0017425840270416599,657.978,0.5389999747276306,-2.425635944148225
658.7068969999999,,0.0038342618411103245,658.444,0.5630000233650208,-2.3729630412561273
659.172414,,0.004458003792661028,658.906,0.5379999876022339,-2.4270580562742143
659.637931,,0.0038305102824008523,659.369,0.5419999957084656,-2.4179978370512485
660.103448,,0.0032247761126365593,659.84,0.5410000085830688,-2.4198674406726233
660.568966,,0.0033076508171084006,660.302,0.5210000276565552,-2.4631777126951597
661.034483,,0.0035138092323037805,660.77,0.5090000033378601,-2.489114197421738
661.5,,0.003335727252024824,661.233,0.5440000295639038,-2.41271576657498
661.965517,,0.003481584201133264,661.699,0.5419999957084656,-2.416992436145161
662.4310340000001,,0.004932260479420623,662.159,0.5630000233650208,-2.3712262932308636
662.8965519999999,,0.007133091886624399,662.625,0.5720000267028809,-2.3516695989405876
663.362069,,0.008133733729187742,663.092,0.5669999718666077,-2.3626773980667526
663.827586,,0.006822790010653833,663.557,0.550000011920929,-2.3998888373647076
664.293103,,0.004271395174379229,664.022,0.578000009059906,-2.3391160853310713
664.7586210000001,,0.0023413456649589996,664.488,0.5460000038146973,-2.40911013948657
665.224138,,0.0015322585646096306,664.955,0.5210000276565552,-2.4638942110153264
665.689655,,0.0009078048135216851,665.42,0.5540000200271606,-2.3923486525985016
666.155172,,0.00020577083862062106,665.884,0.5339999794960022,-2.436292568817632
666.62069,,0.0013329351709257464,666.346,0.5339999794960022,-2.4366733156810154
667.086207,,0.001698061442220414,666.814,0.5410000085830688,-2.421802063639364
667.5517239999999,,0.0011972145445831859,667.276,0.515999972820282,-2.4766350232441545
668.017241,,0.00024708350161905363,667.742,0.5460000038146973,-2.411618501277806
668.482759,,0.0007466912388485385,668.206,0.5329999923706055,-2.440249464580862
668.948276,,0.0014094535675018575,668.672,0.5659999847412109,-2.36861787863943
669.413793,,0.001389236614731912,669.137,0.5690000057220459,-2.3622918822664234
669.87931,,0.0008129935673314561,669.602,0.5299999713897705,-2.447409013308271
670.3448279999999,,0.00040499210777522913,670.069,0.5659999847412109,-2.3690632442292587
670.810345,,0.000625115913071187,670.535,0.550000011920929,-2.403940176744631
671.275862,,0.0009056539689232214,670.999,0.5540000200271606,-2.3951764399120816
671.7413789999999,,0.0002745274836728009,671.465,0.5669999718666077,-2.3667386999555693
672.206897,,0.0013714787851972512,671.929,0.5720000267028809,-2.355666574157105
672.672414,,0.00311443862567002,672.391,0.5709999799728394,-2.3576083513372033
673.137931,,0.0041073444858667155,672.859,0.5419999957084656,-2.4205018188111236
673.6034480000001,,0.004354482978051187,673.321,0.5540000200271606,-2.3940301154428654
674.068966,,0.0043521929859019915,673.784,0.5669999718666077,-2.3653494150387786
674.5344829999999,,0.004436020981986616,674.254,0.546999990940094,-2.4085442563529202
675.0,,0.004733293032494616,674.72,0.5649999976158142,-2.3689425940974616
675.465517,,0.005362086305614864,675.183,0.5720000267028809,-2.3533096778078493
675.931034,,0.006234815217508893,675.649,0.546999990940094,-2.4074090320638644
676.396552,,0.006865887748280614,676.114,0.4860000014305115,-2.539968313257487
676.862069,,0.006849998497923367,676.58,0.5540000200271606,-2.3915223770510607
677.327586,,0.006493197102278575,677.044,0.5669999718666077,-2.3629502798167428
677.793103,,0.0065564384967672805,677.509,0.550000011920929,-2.3997915661581257
678.2586210000001,,0.0072767532504763865,677.969,0.5360000133514404,-2.4301576234787152
678.7241379999999,,0.00790224843827141,678.435,0.5669999718666077,-2.3625494557538076
679.1896549999999,,0.007443127143776203,678.903,0.5669999718666077,-2.3625453118203077
679.655172,,0.006028004044003148,679.365,0.5529999732971191,-2.393107893533266
