Trial: ,2
Threshold: ,0.0
Maximum EMG: ,0.42153638437260743
Success: ,True

EMG Time,Raw EMG,Filtered EMG,Force Time,Raw Force (V),Filtered Force (N)
0.0,samples,9.450810364809376e-06,0.468,0.5170000195503235,-2.4732323139285866
0.46551699999999996,time,1.0192342364420022e-05,0.934,0.48899999260902405,-2.5339218475570435
0.9310339999999999,value,1.0929580480772651e-05,1.4,0.5049999952316284,-2.4987730592622968
1.396552,,1.1659712053776142e-05,1.866,0.49900001287460327,-2.5115858372300623
1.862069,,1.2379828295861627e-05,2.33,0.5080000162124634,-2.4917579800789684
2.327586,,1.3086930507923976e-05,2.796,0.503000020980835,-2.5024769472949187
2.793103,,1.3777936884111272e-05,3.256,0.5109999775886536,-2.484924579206433
3.258621,,1.4449689906632076e-05,3.726,0.5180000066757202,-2.4696051961243852
3.724138,,1.5098964329697289e-05,4.186,0.503000020980835,-2.502272659991208
4.189654999999999,,1.572247574957481e-05,4.656,0.503000020980835,-2.5023178238130095
4.655172,,1.6316889755514998e-05,5.119,0.5009999871253967,-2.506776767710054
5.12069,,1.6878831654007488e-05,5.582,0.5299999713897705,-2.443750426408889
5.586207,,1.7404896756460025e-05,6.048,0.5130000114440918,-2.4809892969370897
6.051723999999999,,1.7891661217953097e-05,6.514,0.492000013589859,-2.526984677560338
6.517241,,1.8335693412225862e-05,6.979,0.49900001287460327,-2.5120132813348177
6.982759,,1.8733565825495617e-05,7.445,0.4909999966621399,-2.5297488116029903
7.448276,,1.9081867449111516e-05,7.91,0.5,-2.5104650213490665
7.913793000000001,,1.9377216648400447e-05,8.375,0.5170000195503235,-2.473759276410619
8.379309999999998,,1.961627448238682e-05,8.84,0.492000013589859,-2.5285535645776562
8.844828000000001,,1.9795758446366427e-05,9.305,0.503000020980835,-2.5049034292268026
9.310345,,1.991245660659592e-05,9.771,0.5080000162124634,-2.4943023909459896
9.775862,,1.9963242093633167e-05,10.234,0.49900001287460327,-2.5141703051839834
10.241379,,1.9945087918138755e-05,10.697,0.5189999938011169,-2.470817052901523
10.706897,,1.9855082070235135e-05,11.16,0.5379999876022339,-2.4295942449940604
11.172414,,1.969044286082757e-05,11.63,0.5170000195503235,-2.475463093917052
11.637931,,1.9448534460630555e-05,12.093,0.49399998784065247,-2.5256323635853755
12.103447999999998,,1.912688259002575e-05,12.556,0.5149999856948853,-2.479882978191308
12.568966000000001,,1.8723190310313563e-05,13.022,0.49900001287460327,-2.5146853893320404
13.034483,,1.8235353864422272e-05,13.489,0.49900001287460327,-2.514573224727572
13.5,,1.766147851271713e-05,13.955,0.5070000290870667,-2.4969791676191315
13.965517,,1.6999894307219775e-05,14.42,0.49799999594688416,-2.5163745074210535
14.431034,,1.6249171745317234e-05,14.886,0.492000013589859,-2.5291928506993457
14.896552,,1.5408137241922405e-05,15.345,0.492000013589859,-2.52890654905146
15.362069,,1.4475888357056427e-05,15.811,0.5099999904632568,-2.489380344951551
15.827586000000002,,1.3451808713970411e-05,16.279,0.5120000243186951,-2.484696907883673
16.293103,,1.233558254122219e-05,16.741,0.492000013589859,-2.5279382834007755
16.758621,,1.1127208770585677e-05,17.212,0.4959999918937683,-2.5188973191267032
17.224138,,9.827014621308502e-06,17.674,0.47999998927116394,-2.553445026486351
17.689655,,8.43566860006045e-06,18.135,0.5139999985694885,-2.479085350168604
18.155172,,6.954192844943152e-06,18.604,0.503000020980835,-2.5027979050033387
18.62069,,5.383974741172522e-06,19.069,0.4959999918937683,-2.5178366286448806
19.086207,,3.7267777355116052e-06,19.533,0.5,-2.508957647024634
19.551724,,1.984751276234406e-06,19.998,0.49799999594688416,-2.5132031437789677
20.017241000000002,,1.6043980535212934e-07,20.463,0.49900001287460327,-2.5109685991384354
20.482758999999998,,1.7432092699569706e-06,20.929,0.5080000162124634,-2.4913623794530793
20.948276,,3.722838699293842e-06,21.393,0.4959999918937683,-2.517565166866554
21.413793000000002,,5.774675676182406e-06,21.859,0.5109999775886536,-2.4849999284135387
21.87931,,7.894527361185343e-06,22.324,0.49900001287460327,-2.5113100498815535
22.344828,,1.0077777710422155e-05,22.79,0.5040000081062317,-2.5006301844952428
22.810344999999998,,1.2319385677270167e-05,23.252,0.49000000953674316,-2.531385425355842
23.275862,,1.461388485306683e-05,23.715,0.5070000290870667,-2.4946356708205477
23.741379,,1.6955384610350176e-05,24.183,0.5009999871253967,-2.5080191455502745
24.206897,,1.9337572809567944e-05,24.645,0.5009999871253967,-2.508345217299219
24.672414,,2.17537201272499e-05,25.112,0.49000000953674316,-2.532641352084313
25.137931,,2.41966860603686e-05,25.575,0.5230000019073486,-2.4610716583458774
25.603448,,2.665892665800824e-05,26.041,0.5289999842643738,-2.4483091162003814
26.068966,,2.913250402751806e-05,26.511,0.5019999742507935,-2.5074158423797237
26.534483,,3.160909765804515e-05,26.97,0.5120000243186951,-2.4858784161338554
27.0,,3.408001759972211e-05,27.442,0.515999972820282,-2.4773716464057003
27.465517,,3.653621953182977e-05,27.9,0.5370000004768372,-2.4317792384462074
27.931034,,3.896832174796739e-05,28.367,0.49900001287460327,-2.5146738560537996
28.396552,,4.136662408064638e-05,28.833,0.503000020980835,-2.506009774569607
28.862069,,4.37211287817854e-05,29.297,0.49000000953674316,-2.534326742281383
29.327586,,4.6021563369330474e-05,29.763,0.5120000243186951,-2.48633518302849
29.793103000000002,,4.825740544366381e-05,30.231,0.4950000047683716,-2.5232569584837368
30.258620999999998,,5.041790947060776e-05,30.693,0.49900001287460327,-2.5143766931152833
30.724138,,5.249213552068922e-05,31.156,0.4880000054836273,-2.5381312892098666
31.189655000000002,,5.446897994691634e-05,31.626,0.515999972820282,-2.4768799065031883
31.655172000000004,,5.63372079756488e-05,32.09,0.49900001287460327,-2.513635868124534
32.12069,,5.808548817723176e-05,32.552,0.5009999871253967,-2.508974466187365
32.586207,,5.970242877492937e-05,33.017,0.49000000953674316,-2.532621827355444
33.051724,,6.117661574235557e-05,33.483,0.49300000071525574,-2.525764446625026
33.517241000000006,,6.249665263107854e-05,33.949,0.49000000953674316,-2.5319849634125573
33.982759,,6.365120206139366e-05,34.416,0.492000013589859,-2.527327697046297
34.448276,,6.462902880044153e-05,34.881,0.5130000114440918,-2.481300045830828
34.913793,,6.541904434291829e-05,35.346,0.4959999918937683,-2.5180926952599294
35.37931,,6.601035290061194e-05,35.812,0.4959999918937683,-2.517887310670744
35.844828,,6.639229869792902e-05,36.274,0.503000020980835,-2.5024765883016666
36.310345,,6.655451446148032e-05,36.738,0.4749999940395355,-2.56336891902273
36.775862,,6.648697098270493e-05,37.201,0.5090000033378601,-2.4892385680467632
37.241378999999995,,6.618002762345899e-05,37.671,0.5,-2.5088447750518768
37.706897000000005,,6.562448362551531e-05,38.131,0.4959999918937683,-2.517612049406355
38.172414,,6.481163007604521e-05,38.6,0.5009999871253967,-2.506824306860048
38.637931,,6.373330237242297e-05,39.066,0.5109999775886536,-2.4851926040167216
39.103448,,6.238193302114076e-05,39.528,0.3610000014305115,-2.8121916049472073
39.568965999999996,,6.075060459728844e-05,39.994,0.5019999742507935,-2.5052473102396604
40.034483,,5.883310268297466e-05,40.46,0.515999972820282,-2.475024626873505
40.5,,5.662396859528553e-05,40.925,0.5,-2.510183106061631
40.965517,,5.41185517069328e-05,41.39,0.4860000014305115,-2.5409974852275834
41.431034,,5.1313061155677265e-05,41.856,0.49399998784065247,-2.5238858829733113
41.896552,,4.82046167319653e-05,42.316,0.503000020980835,-2.5045899560928198
42.362069000000005,,4.4791298728030124e-05,42.782,0.49000000953674316,-2.533209167527663
42.827586000000004,,4.1072196526024196e-05,43.245,0.515999972820282,-2.476836788579481
43.293103,,3.704745569760858e-05,43.715,0.5130000114440918,-2.4836119502033593
43.758621,,3.271832338286921e-05,44.179,0.4909999966621399,-2.531741422539914
44.224138,,2.8087191712501123e-05,44.641,0.5009999871253967,-2.51010887792756
44.689655,,2.3157639033940024e-05,45.109,0.49000000953674316,-2.534178532878151
45.155172,,1.7934468699566112e-05,45.571,0.49000000953674316,-2.534231086593503
45.620689999999996,,1.2423745173297434e-05,46.036,0.503000020980835,-2.50590783579118
46.086206999999995,,6.632827210867055e-06,46.501,0.4959999918937683,-2.5211042762879394
46.551724,,5.703978688775339e-07,46.967,0.503000020980835,-2.5057479280887693
47.017241,,5.753508901616841e-06,47.434,0.503000020980835,-2.5055939548365758
47.482759,,1.2327485319700782e-05,47.899,0.4970000088214874,-2.5184685655926566
47.948276,,1.9138730737589025e-05,48.364,0.4959999918937683,-2.5204130473013833
48.413793,,2.617303673881667e-05,48.83,0.48899999260902405,-2.5354000536490107
48.879310000000004,,3.341477660401607e-05,49.297,0.5130000114440918,-2.482827511003048
49.344828,,4.084689937124622e-05,49.755,0.5059999823570251,-2.497779895390678
49.810345,,4.845092871138605e-05,50.223,0.492000013589859,-2.527978546131384
50.275862,,5.6206966831594416e-05,50.686,0.5040000081062317,-2.501537849016936
50.741379,,6.409370361125899e-05,51.156,0.49399998784065247,-2.523041874209771
51.206897,,7.208843116518865e-05,51.619,0.4909999966621399,-2.5293183722923356
51.672414,,8.01670640180374e-05,52.085,0.4779999852180481,-2.5574127458241764
52.137931,,8.830416506207469e-05,52.549,0.49000000953674316,-2.53107916986984
52.603448,,9.64729774574322e-05,53.014,0.5099999904632568,-2.4873597498582427
53.068966,,0.00010464546261986039,53.479,0.5130000114440918,-2.480723632186716
53.534483,,0.0001127923444258222,53.945,0.4959999918937683,-2.5177094916870293
54.0,,0.00012088315974844426,54.412,0.49799999594688416,-2.5133516628932346
54.465517,,0.0001288863154204483,54.87,0.5,-2.509044464440999
54.931034,,0.00013676915170171455,55.342,0.5090000033378601,-2.489535277657411
55.396552,,0.00014449801230960547,55.8,0.5049999952316284,-2.4983935740390337
55.862069,,0.00015203832104962567,56.271,0.503000020980835,-2.502934978259705
56.327586,,0.00015935466506244642,56.733,0.5,-2.5096900866613403
56.793102999999995,,0.00016641088468081133,57.201,0.5009999871253967,-2.5077589223910297
57.258621000000005,,0.00017317016986640702,57.663,0.5139999985694885,-2.4797044803303514
57.724138,,0.00017959516317247383,58.131,0.4909999966621399,-2.5300938126326824
58.189655,,0.0001856480691527959,58.593,0.49000000953674316,-2.532557400929523
58.655172,,0.000191290770111804,59.059,0.5139999985694885,-2.480550863234798
59.120689999999996,,0.0001964849480639086,59.522,0.48399999737739563,-2.546178714305739
59.586207,,0.0002011922127429223,59.987,0.4950000047683716,-2.5224617817110264
60.051724,,0.0002053742354745997,60.452,0.5120000243186951,-2.4856452781464764
60.517241,,0.00020899288869699639,60.918,0.5099999904632568,-2.4901882956764645
60.982758999999994,,0.00021201039088460786,61.386,0.515999972820282,-2.477261412809651
61.448276,,0.00021438945660318172,61.852,0.4959999918937683,-2.5209347303587126
61.913793,,0.00021609345139279502,62.316,0.49000000953674316,-2.534060368219072
62.379310000000004,,0.00021708655114734742,62.775,0.49399998784065247,-2.525352191835038
62.84482800000001,,0.0002173339056291422,63.245,0.5070000290870667,-2.4969884144708514
63.310345000000005,,0.00021680180572781826,63.707,0.4950000047683716,-2.5230445307328417
63.775862000000004,,0.00021545785404366728,64.175,0.4909999966621399,-2.5316280718668818
64.241379,,0.00021327113834643534,64.637,0.5289999842643738,-2.448668796379528
64.706897,,0.00021021240743218487,65.105,0.49000000953674316,-2.5334305403287387
65.172414,,0.00020625424887280705,65.568,0.4950000047683716,-2.5223038636601878
65.637931,,0.00020137126812544906,66.033,0.49300000071525574,-2.5264075063232627
66.103448,,0.00019554026844258477,66.5,0.4869999885559082,-2.539213298962828
66.56896599999999,,0.00018874043099784487,66.966,0.515999972820282,-2.475761608660177
67.03448300000001,,0.00018095349461816535,67.431,0.4909999966621399,-2.529959686451271
67.5,,0.00017216393448945107,67.896,0.5059999823570251,-2.497022732094112
67.965517,,0.00016235913918091806,68.356,0.49900001287460327,-2.5120344405414574
68.431034,,0.00015152958531271783,68.822,0.5260000228881836,-2.4529970740448106
68.896552,,0.00013966900917249605,69.287,0.5130000114440918,-2.4811362847143563
69.362069,,0.00012677457456933988,69.753,0.5059999823570251,-2.4962396500451485
69.827586,,0.00011284703619826216,70.215,0.4959999918937683,-2.5179198560468965
70.293103,,9.789089777509698e-05,70.686,0.5070000290870667,-2.4938926897747704
70.75862099999999,,8.191456419057778e-05,71.146,0.5170000195503235,-2.472089898760794
71.22413800000001,,6.493048692357419e-05,71.615,0.5080000162124634,-2.491727000477747
71.689655,,4.695530194711064e-05,72.081,0.5,-2.509230369582053
72.15517200000001,,2.8009959357011372e-05,72.546,0.49000000953674316,-2.5311342189180555
72.62069,,8.119843951940311e-06,73.012,0.4909999966621399,-2.5291131220980727
73.086207,,1.2685114004646275e-05,73.471,0.4779999852180481,-2.5576288427132625
73.551724,,3.4370338605421227e-05,73.937,0.49799999594688416,-2.514279017885361
74.017241,,5.6896519460015135e-05,74.404,0.49000000953674316,-2.531954126380916
74.482759,,8.02195349418641e-05,74.87,0.4959999918937683,-2.519143289085584
74.94827599999999,,0.00010429038825299961,75.335,0.4909999966621399,-2.5303046931335067
75.41379300000001,,0.00012905515702115532,75.801,0.5,-2.510963914610631
75.87931,,0.0001544549571225741,76.263,0.4830000102519989,-2.5482588747633903
76.344828,,0.00018042592139938372,76.726,0.5109999775886536,-2.4874977138548724
76.810345,,0.00020689919391230407,77.193,0.5379999876022339,-2.4288895915848356
77.275862,,0.0002338009403376966,77.656,0.5049999952316284,-2.5009675331348955
77.741379,,0.0002610523750825337,78.123,0.5120000243186951,-2.4858617683820277
78.206897,,0.00028856980565171816,78.585,0.49000000953674316,-2.533895806113573
78.67241399999999,,0.0003162646947592823,79.051,0.5070000290870667,-2.4969187751265647
79.137931,,0.0003440437406283247,79.515,0.4909999966621399,-2.5317920861801726
79.603448,,0.000371808975874118,79.98,0.515999972820282,-2.4772951457974406
80.068966,,0.00039945788531072,80.445,0.49000000953674316,-2.5338645669392514
80.53448300000001,,0.0004268835429636676,80.911,0.48399999737739563,-2.546819597702407
81.0,,0.00045397476850988203,81.379,0.5009999871253967,-2.509628286889232
81.465517,,0.00048061630330076006,81.844,0.5339999794960022,-2.437544839559414
81.931034,,0.0005066890060557965,82.309,0.49000000953674316,-2.533188634685981
82.396552,,0.0005320700682423512,82.774,0.5080000162124634,-2.4937349241669278
82.86206899999999,,0.0005566332490823624,83.235,0.492000013589859,-2.528341747042044
83.327586,,0.000580249130048448,83.704,0.5009999871253967,-2.5084765901320885
83.79310299999999,,0.0006027853886297545,84.167,0.49399998784065247,-2.5234718535020133
84.258621,,0.0006241070910633285,84.63,0.5099999904632568,-2.4883677567491427
84.72413800000001,,0.0006440770036413268,85.101,0.49799999594688416,-2.5142825283050523
85.189655,,0.0006625559221173367,85.563,0.5,-2.509719849722588
85.65517200000001,,0.0006794030186429464,86.028,0.49399998784065247,-2.5226163822791503
86.12069,,0.0006944762055676737,86.494,0.49399998784065247,-2.5224763067966465
86.586207,,0.0007076325153385615,86.959,0.5019999742507935,-2.50494638793837
87.051724,,0.0007187284956481055,87.424,0.4959999918937683,-2.5179594541006662
87.517241,,0.0007276206188930317,87.89,0.4970000088214874,-2.5157655437869693
87.98275899999999,,0.0007341657049000466,88.356,0.48100000619888306,-2.550652874304258
88.448276,,0.0007382213557472296,88.822,0.503000020980835,-2.5027946992283194
88.913793,,0.0007396464014060145,89.286,0.46799999475479126,-2.579160512389031
89.37931,,0.0007383013548870343,89.745,0.49000000953674316,-2.531380923205208
89.844828,,0.0007340488755327322,90.216,0.5049999952316284,-2.498884352406051
90.310345,,0.0007267542389343398,90.678,0.49000000953674316,-2.531773111136435
90.775862,,0.0007162858116857065,91.141,0.49000000953674316,-2.5320018069155537
91.241379,,0.0007025155291022072,91.612,0.515999972820282,-2.475598035686485
91.706897,,0.0006853193743028352,92.07,0.4880000054836273,-2.5368456285256036
92.17241399999999,,0.000664577857239807,92.54,0.5070000290870667,-2.495693892082033
92.63793100000001,,0.0006401764916581675,93.005,0.492000013589859,-2.5286062260461146
93.103448,,0.000612006266917542,93.471,0.5049999952316284,-2.5004992798172796
93.568966,,0.0005799641118297843,93.93,0.5049999952316284,-2.5006910162941542
94.03448300000001,,0.0005439533498353337,94.397,0.4779999852180481,-2.5596772226781863
94.5,,0.0005038841459600048,94.863,0.4560000002384186,-2.6077377669215833
94.965517,,0.0004596739422839194,95.331,0.5040000081062317,-2.503257226573156
95.431034,,0.00041124787326620203,95.796,0.49399998784065247,-2.5250988909295073
95.896552,,0.00035853915548788483,96.257,0.4950000047683716,-2.5229338167318076
96.36206899999999,,0.0003014894599278264,96.726,0.4909999966621399,-2.5316205619188064
96.827586,,0.00024004927900266366,97.189,0.49399998784065247,-2.525016426930657
97.293103,,0.00017417827596284533,97.652,0.5189999938011169,-2.470443420692874
97.758621,,0.00010384557608504611,98.116,0.503000020980835,-2.5051591958356854
98.224138,,2.9029987298642607e-05,98.585,0.5009999871253967,-2.5093429465623394
98.689655,,5.027978172154481e-05,99.051,0.5070000290870667,-2.496072031767142
99.155172,,0.00013408483177403257,99.515,0.492000013589859,-2.528533918946218
99.62069,,0.00022237579774346807,99.98,0.4959999918937683,-2.519589709045383
100.086207,,0.000315132814192993,100.445,0.5040000081062317,-2.5019261530211394
100.551724,,0.00041232573084300087,100.911,0.503000020980835,-2.503872651831075
101.017241,,0.0005139141241310002,101.375,0.48899999260902405,-2.5341511566395902
101.482759,,0.0006198467293525659,101.841,0.5120000243186951,-2.4838358889835863
101.948276,,0.0007300609315672774,102.301,0.515999972820282,-2.474937095541437
102.413793,,0.0008444836007736362,102.767,0.503000020980835,-2.503102300360471
102.87931,,0.0009630329885189795,103.234,0.5080000162124634,-2.4920841474631636
103.344828,,0.001085618820661076,103.697,0.5540000200271606,-2.3917764874011
103.810345,,0.001212138885513077,104.16,0.5170000195503235,-2.472333393188262
104.275862,,0.0013424766552584172,104.63,0.49900001287460327,-2.5115350918996926
104.741379,,0.0014765070600165527,105.093,0.5049999952316284,-2.4984900139353154
105.206897,,0.0016141067643968506,105.556,0.45399999618530273,-2.609668903373667
105.672414,,0.0017551513968479464,106.021,0.503000020980835,-2.503022554004067
106.13793100000001,,0.001899493238876994,106.486,0.4950000047683716,-2.5205948850516444
106.603448,,0.002046950281350737,106.952,0.49399998784065247,-2.5229471045444125
107.068966,,0.0021973446525623023,107.416,0.4950000047683716,-2.5209670449144044
107.534483,,0.0023505571794262556,107.882,0.5139999985694885,-2.4797897777483158
108.0,,0.0025064934180817657,108.349,0.5080000162124634,-2.4930896469331914
108.46551699999999,,0.0026649460085021426,108.815,0.4880000054836273,-2.536894701167613
108.931034,,0.002825556482595321,109.278,0.49300000071525574,-2.5262310439114324
109.396552,,0.002988069697625853,109.741,0.5090000033378601,-2.491592463969259
109.862069,,0.0031526172943478776,110.205,0.515999972820282,-2.476544340291823
110.32758600000001,,0.00331942269094093,110.674,0.5419999957084656,-2.420076964589482
110.793103,,0.0034879850459759035,111.135,0.4970000088214874,-2.5182631842908836
111.258621,,0.00365703714501127,111.605,0.5009999871253967,-2.5096618236564656
111.724138,,0.0038261920742954365,112.07,0.48899999260902405,-2.5358825067665753
112.189655,,0.003997345692630993,112.533,0.48100000619888306,-2.5533505862676575
112.655172,,0.004172411772054265,112.999,0.503000020980835,-2.5054202434575004
113.12069,,0.004348633910363932,113.464,0.4779999852180481,-2.5598474943527925
113.586207,,0.004519505424300366,113.93,0.5009999871253967,-2.5096618674302515
114.051724,,0.0046851454259769785,114.39,0.492000013589859,-2.5291575505148263
114.51724100000001,,0.004858686541332739,114.856,0.5070000290870667,-2.4963334098065895
114.982759,,0.005050036812698539,115.32,0.5099999904632568,-2.4896249709947225
115.448276,,0.00523979427017317,115.786,0.49000000953674316,-2.533002494538344
115.913793,,0.0053918307858562406,116.256,0.49000000953674316,-2.532791009476644
116.37931,,0.005516970242577186,116.718,0.5009999871253967,-2.5086050995413776
116.84482799999999,,0.005697907476500779,117.186,0.503000020980835,-2.5040239586264654
117.310345,,0.00597813726408226,117.649,0.4950000047683716,-2.521233244096167
117.77586199999999,,0.00622209841325204,118.112,0.4970000088214874,-2.516666822678489
118.241379,,0.0062320858940836795,118.582,0.49000000953674316,-2.5317257188650726
118.70689700000001,,0.006129717182781955,119.04,0.49300000071525574,-2.5250216521668234
119.172414,,0.006421600849071728,119.512,0.4909999966621399,-2.5292395107668804
119.63793100000001,,0.00726692632183382,119.97,0.5009999871253967,-2.5073463287129525
120.103448,,0.007731705525138425,120.441,0.492000013589859,-2.5268831653813497
120.568966,,0.0065820582544915225,120.9,0.49000000953674316,-2.531207552804282
121.034483,,0.0042683165092028555,121.365,0.49300000071525574,-2.52467781807301
121.5,,0.003050390607942953,121.831,0.4959999918937683,-2.5181867466808368
121.96551699999999,,0.0038361306003926923,122.297,0.49000000953674316,-2.53134055206482
122.431034,,0.0036234950125776213,122.763,0.5019999742507935,-2.5053131636380037
122.896552,,0.0019669866560804022,123.226,0.5009999871253967,-2.507638459623526
123.362069,,0.013469189773478807,123.696,0.4970000088214874,-2.5165252953008843
123.827586,,0.02661064417502329,124.157,0.5260000228881836,-2.453536572243663
124.293103,,0.03723618865127372,124.626,0.5099999904632568,-2.488600346911658
124.758621,,0.045803083959598256,125.085,0.49399998784065247,-2.5236712879685683
125.22413800000001,,0.055766001219169165,125.556,0.49000000953674316,-2.53260011054269
125.68965500000002,,0.06809345871437682,126.022,0.49799999594688416,-2.5153807332172087
126.15517200000001,,0.07860756738099298,126.486,0.5090000033378601,-2.49161408323351
126.62069000000001,,0.08091178330656444,126.945,0.5019999742507935,-2.5070454906134905
127.086207,,0.07128714970374589,127.412,0.4970000088214874,-2.5180964728083257
127.55172400000001,,0.0506798615802358,127.878,0.503000020980835,-2.505154875673815
128.017241,,0.023046918175018943,128.342,0.4429999887943268,-2.6359738752095145
128.48275900000002,,0.00711625917264823,128.808,0.5080000162124634,-2.4944292082553376
128.948276,,0.03610564594612533,129.271,0.5019999742507935,-2.507533203276836
129.413793,,0.06152897005064095,129.741,0.503000020980835,-2.5053489273521508
129.87931,,0.08209628482269063,130.204,0.4909999966621399,-2.531450228227676
130.344828,,0.09587741761150502,130.667,0.5059999823570251,-2.4986924573117033
130.81034499999998,,0.09843507125716813,131.13,0.49000000953674316,-2.5334395927680577
131.275862,,0.08459778970909256,131.6,0.4880000054836273,-2.5376563664748732
131.741379,,0.05393938314111116,132.066,0.503000020980835,-2.5048111272008993
132.206897,,0.013431134558191591,132.528,0.4959999918937683,-2.5198759983362615
132.67241399999997,,0.02762512043484782,132.994,0.49000000953674316,-2.532747607324159
133.13793099999998,,0.06492376221409314,133.459,0.4129999876022339,-2.7002967749509543
133.60344800000001,,0.09909537140474145,133.926,0.47600001096725464,-2.5628363705184016
134.06896600000002,,0.1283067968506673,134.39,0.5090000033378601,-2.4907414754173374
134.53448300000002,,0.14384370289931603,134.856,0.5059999823570251,-2.4970874243650063
135.0,,0.13527333749068893,135.315,0.5130000114440918,-2.481661134920967
135.465517,,0.09971791324240159,135.781,0.49399998784065247,-2.5228995121965454
135.931034,,0.04527370505359686,136.249,0.503000020980835,-2.5031602735164284
136.396552,,0.014300700376804672,136.712,0.5009999871253967,-2.507414953300141
136.862069,,0.06770102807855585,137.175,0.5090000033378601,-2.4899144747387187
137.327586,,0.10980411058071776,137.645,0.4909999966621399,-2.5290925885925404
137.793103,,0.13943984532160283,138.105,0.4959999918937683,-2.5181970227637884
138.258621,,0.1552726132456476,138.575,0.49900001287460327,-2.5116941739094965
138.724138,,0.15470472779125571,139.041,0.4909999966621399,-2.5291910383122618
139.189655,,0.13702273252644104,139.504,0.492000013589859,-2.5271127502608195
139.655172,,0.10703194603147413,139.97,0.5180000066757202,-2.470597740727044
140.12069,,0.07409496757135052,140.434,0.5059999823570251,-2.4968963279152208
140.586207,,0.04644756116494808,140.9,0.5070000290870667,-2.494892631838502
141.05172399999998,,0.02651278666282618,141.363,0.5410000085830688,-2.4210084215244825
141.51724099999998,,0.011692496819884336,141.829,0.4959999918937683,-2.5192463048871474
141.982759,,0.0013252090940813989,142.294,0.4650000035762787,-2.586987748619055
142.44827600000002,,0.01338284275344824,142.76,0.5049999952316284,-2.5000452243598756
142.913793,,0.02257165446105425,143.223,0.5120000243186951,-2.4849911459467626
143.37931,,0.02603586005212128,143.686,0.4880000054836273,-2.5374620791288764
143.844828,,0.02276250739341182,144.156,0.5049999952316284,-2.5005902186103794
144.310345,,0.015557492457742197,144.619,0.49799999594688416,-2.5159828273717673
144.77586200000002,,0.009806159176552863,145.09,0.5090000033378601,-2.4921321646358003
145.241379,,0.009242516421325108,145.545,0.5090000033378601,-2.4922153844695436
145.706897,,0.012945134781741465,146.011,0.4959999918937683,-2.5205873223770783
146.172414,,0.017167757141951855,146.475,0.5049999952316284,-2.500993994736497
146.637931,,0.019827597191997497,146.94,0.49399998784065247,-2.5249383330631225
147.103448,,0.021964202769896368,147.405,0.4950000047683716,-2.5227042317751045
147.568966,,0.02466513352433086,147.87,0.4959999918937683,-2.520437271815961
148.034483,,0.026484569907082464,148.335,0.5070000290870667,-2.496352998858817
148.5,,0.025667243006499793,148.801,0.49000000953674316,-2.533243575350892
148.965517,,0.023906707112629374,149.271,0.492000013589859,-2.528716883903627
149.43103399999998,,0.02520107122141572,149.734,0.5090000033378601,-2.4914923771322535
149.89655199999999,,0.030378224512538052,150.197,0.492000013589859,-2.5283288193419438
150.362069,,0.03503197434928031,150.667,0.5120000243186951,-2.4845478863581314
150.82758600000003,,0.03445494746472701,151.131,0.49000000953674316,-2.5322689297286956
151.293103,,0.029192943766139158,151.593,0.4790000021457672,-2.556030211760943
151.758621,,0.02390237423465309,152.058,0.4959999918937683,-2.518801162894529
152.224138,,0.021576257489288077,152.521,0.4950000047683716,-2.520804770463047
152.68965500000002,,0.0208996050688385,152.987,0.5149999856948853,-2.4770782814166687
153.155172,,0.018979740959700103,153.453,0.5040000081062317,-2.500915276456483
153.62069,,0.014628859179702402,153.918,0.5099999904632568,-2.4877445006816163
154.086207,,0.008778397443193007,154.383,0.5249999761581421,-2.4549977555176064
154.551724,,0.0034961812536232146,154.849,0.492000013589859,-2.526860008799609
155.017241,,0.0009637554964749316,155.315,0.5099999904632568,-2.4876470272065943
155.482759,,0.0017669265022797755,155.781,0.4909999966621399,-2.529080207037623
155.948276,,0.003613213795890766,156.243,0.48100000619888306,-2.550941409085416
156.413793,,0.0029653387655329596,156.705,0.5,-2.509656105366274
156.87931,,0.001366804314538014,157.175,0.5049999952316284,-2.498902562211058
157.34482799999998,,0.0067232942445902485,157.637,0.4880000054836273,-2.53610580022961
157.81034499999998,,0.008984711953956129,158.105,0.5009999871253967,-2.507971733352787
158.275862,,0.006496791276435106,158.567,0.48899999260902405,-2.5343206077773712
158.741379,,0.0017377108288427158,159.033,0.4950000047683716,-2.521464699549556
159.20689700000003,,0.0010627761390648515,159.497,0.48899999260902405,-2.5347573592939576
159.672414,,4.854544641051e-05,159.963,0.503000020980835,-2.5044750230828337
160.137931,,0.0029593023517223696,160.43,0.4880000054836273,-2.537365066847027
160.60344800000001,,0.005214451415297627,160.895,0.5139999985694885,-2.4809154610424473
161.06896600000002,,0.0059690464893345715,161.361,0.5009999871253967,-2.5094118502452294
161.534483,,0.00614028403596877,161.826,0.4699999988079071,-2.57709785315664
162.0,,0.006290380881856372,162.286,0.503000020980835,-2.5053205121472453
162.465517,,0.006307496773887831,162.751,0.5170000195503235,-2.4749031689876038
162.931034,,0.006733714560772662,163.219,0.503000020980835,-2.5054500242567412
163.396552,,0.008919765562351295,163.682,0.49000000953674316,-2.5337792170787097
163.862069,,0.013270353359212325,164.149,0.5070000290870667,-2.496709842640156
164.327586,,0.01811050829038283,164.612,0.5130000114440918,-2.4835669077905296
164.793103,,0.020954246195449507,165.077,0.49900001287460327,-2.5139597651020615
165.258621,,0.020620065684529162,165.541,0.515999972820282,-2.4767805758839603
165.72413799999998,,0.01774495884291599,166.007,0.49900001287460327,-2.513645311938574
166.189655,,0.01356992302009177,166.472,0.4959999918937683,-2.519984513713242
166.655172,,0.008912296207626616,166.937,0.5120000243186951,-2.484910602157495
167.12069,,0.0045154052643542174,167.404,0.5070000290870667,-2.495575646820737
167.58620699999997,,0.0016531264058270703,167.87,0.5009999871253967,-2.5084134998231855
168.051724,,0.0013728389079734758,168.334,0.4880000054836273,-2.5365034004785514
168.517241,,0.0030474312992257516,168.8,0.5070000290870667,-2.4948853869367538
168.98275900000002,,0.004404359002870784,169.26,0.49399998784065247,-2.5229996886396724
169.44827600000002,,0.003433428902488069,169.73,0.515999972820282,-2.4748826413484153
169.913793,,0.0002535783398487539,170.193,0.5040000081062317,-2.5008663380427585
170.37931,,0.002979274522429504,170.656,0.492000013589859,-2.526882079820681
170.844828,,0.004299284668484428,171.127,0.5,-2.5093613892572364
171.310345,,0.004270551126000342,171.589,0.49000000953674316,-2.5310958777056447
171.775862,,0.005532403306784745,172.054,0.49900001287460327,-2.511477375471364
172.241379,,0.009433146807972519,172.518,0.5270000100135803,-2.450505694839788
172.706897,,0.01379424295499535,172.983,0.5080000162124634,-2.491970050801342
173.172414,,0.01516188942094336,173.449,0.49799999594688416,-2.5138646346233924
173.637931,,0.01320864861653183,173.914,0.49300000071525574,-2.5249017196714494
174.103448,,0.0117341526418046,174.379,0.5080000162124634,-2.492397563994902
174.568966,,0.014632132071776303,174.844,0.47099998593330383,-2.573210147582306
175.034483,,0.021586875154163306,175.312,0.4880000054836273,-2.5363972642831185
175.5,,0.02878268372246614,175.77,0.5049999952316284,-2.4995992009621797
175.96551699999998,,0.033375429399104206,176.238,0.492000013589859,-2.5281674067212094
176.43103399999998,,0.035630322604744996,176.701,0.503000020980835,-2.504447431042881
176.896552,,0.03642337359873165,177.171,0.5180000066757202,-2.4720043729759817
177.36206900000002,,0.03462841855323759,177.634,0.4729999899864197,-2.570264587783403
177.827586,,0.028624836204327098,178.097,0.5830000042915344,-2.330810985006581
178.293103,,0.019445488987064673,178.56,0.4970000088214874,-2.518341794522325
178.758621,,0.010303003073342533,179.025,0.4860000014305115,-2.5424393420019724
179.224138,,0.0027788827267188855,179.497,0.5009999871253967,-2.50985512385282
179.68965500000002,,0.004597765910142576,179.955,0.503000020980835,-2.5055529839775823
180.155172,,0.013165037247593003,180.427,0.5299999713897705,-2.446741905756604
180.62069,,0.0214458473445307,180.885,0.5149999856948853,-2.4793898275957584
181.086207,,0.027165116899940032,181.356,0.5149999856948853,-2.4793148581547033
181.551724,,0.03028857319578096,181.815,0.5009999871253967,-2.509700556608348
182.01724099999998,,0.0320408455883158,182.287,0.5009999871253967,-2.5095487344588343
182.482759,,0.03226776396211032,182.745,0.5170000195503235,-2.4745065453820607
182.948276,,0.03041862752264723,183.216,0.48899999260902405,-2.535298598836273
183.413793,,0.028586592912666683,183.678,0.5090000033378601,-2.491495661205952
183.87931,,0.03048839649879088,184.142,0.492000013589859,-2.528290020272931
184.34482799999998,,0.03637268277619901,184.612,0.5130000114440918,-2.482290182408642
184.81034499999998,,0.04108448984811722,185.07,0.4620000123977661,-2.5931554843033684
185.27586200000002,,0.03904757026362573,185.54,0.49399998784065247,-2.5232036513084326
185.74137900000002,,0.030467443957028762,186.005,0.48100000619888306,-2.5513086524820756
186.206897,,0.021238477009397277,186.471,0.4970000088214874,-2.5162566030753415
186.672414,,0.016923262014202235,186.937,0.5370000004768372,-2.428945340439122
187.137931,,0.017726239778633846,187.397,0.5009999871253967,-2.5072435187006477
187.60344800000001,,0.019222592718926592,187.863,0.4950000047683716,-2.520218897110185
188.06896600000002,,0.01713919825750339,188.33,0.4970000088214874,-2.515805588383766
188.534483,,0.011224098335745575,188.797,0.5109999775886536,-2.4852904822039386
189.0,,0.004984535500296925,189.257,0.5080000162124634,-2.491854089816517
189.465517,,0.002064068741899931,189.726,0.4909999966621399,-2.5289600973325985
189.931034,,0.0029560686188999947,190.19,0.49000000953674316,-2.531247510534071
190.39655199999999,,0.005189124368128645,190.652,0.5120000243186951,-2.4834625680016797
190.862069,,0.00633774186262199,191.116,0.4970000088214874,-2.516319444537342
191.327586,,0.0062271139559203735,191.585,0.49000000953674316,-2.5317738355098496
191.793103,,0.006097716165373983,192.051,0.5120000243186951,-2.4840681742706123
192.25862099999998,,0.006368961513010952,192.515,0.49300000071525574,-2.5257009900028335
192.72413799999998,,0.005930263907380799,192.981,0.492000013589859,-2.5281250267828126
193.189655,,0.003414988172197816,193.445,0.4860000014305115,-2.541442532932964
193.655172,,0.0014376416181339567,193.911,0.48100000619888306,-2.5525745059902576
194.12069000000002,,0.007647561700824953,194.371,0.5009999871253967,-2.509226196686834
194.586207,,0.01366400000711354,194.836,0.4869999885559082,-2.539930629748769
195.051724,,0.01810854091189286,195.301,0.49000000953674316,-2.5335706159149756
195.517241,,0.020501618054625925,195.767,0.5040000081062317,-2.50321265696292
195.98275900000002,,0.021702783280254163,196.234,0.5070000290870667,-2.4967819023916875
196.448276,,0.023197915137239507,196.697,0.5090000033378601,-2.4924883432294886
196.913793,,0.0253041715122063,197.16,0.5009999871253967,-2.5099377325735737
197.37931,,0.02641407796836112,197.63,0.4909999966621399,-2.5317006342394874
197.844828,,0.025063288779378953,198.094,0.492000013589859,-2.5294558225091066
198.310345,,0.022735338094122617,198.556,0.503000020980835,-2.5053838741604055
198.775862,,0.02307177000257096,199.021,0.49900001287460327,-2.5139538473565013
199.241379,,0.027395379092335494,199.487,0.49000000953674316,-2.533383635672459
199.706897,,0.03224801467269095,199.952,0.49000000953674316,-2.5331778955527784
200.172414,,0.032786788163814064,200.419,0.49399998784065247,-2.5242361831585822
200.63793099999998,,0.028120360494273064,200.885,0.49000000953674316,-2.53270887492258
201.103448,,0.022181214817733663,201.349,0.4880000054836273,-2.5368169839149015
201.568966,,0.01957511580554687,201.814,0.4959999918937683,-2.5191387414980926
202.034483,,0.021334030803184648,202.279,0.492000013589859,-2.5276116020837867
202.5,,0.024444802406183422,202.741,0.503000020980835,-2.5034191778845636
202.965517,,0.024617119853522308,203.212,0.49900001287460327,-2.5119275058502097
203.431034,,0.01938957138981809,203.674,0.4749999940395355,-2.5640364228634196
203.896552,,0.009472976494219344,204.138,0.49399998784065247,-2.5224969815676666
204.36206900000002,,0.0020177988056488683,204.6,0.503000020980835,-2.5027814755401763
204.827586,,0.011752161837349883,205.066,0.49399998784065247,-2.5223220532233652
205.293103,,0.018465243576044406,205.536,0.492000013589859,-2.5266544721597133
205.758621,,0.023480071326173035,206.001,0.5170000195503235,-2.4722064858490636
206.224138,,0.028522267151715165,206.461,0.4959999918937683,-2.5180185290030233
206.689655,,0.032893633865247754,206.926,0.49000000953674316,-2.5311915351242247
207.155172,,0.03381711191513305,207.393,0.492000013589859,-2.5269738241365842
207.62069,,0.03016112452486749,207.859,0.49799999594688416,-2.514075843092641
208.086207,,0.02448297797871994,208.323,0.47200000286102295,-2.5709239565916677
208.551724,,0.020014210575134694,208.789,0.49000000953674316,-2.5319353670398246
209.01724099999998,,0.016649037979586594,209.252,0.47999998927116394,-2.553966092030811
209.482759,,0.011722409269561062,209.722,0.49399998784065247,-2.523718710309275
209.948276,,0.004299602288818475,210.182,0.527999997138977,-2.4498992117035945
210.413793,,0.0032521549243021523,210.645,0.49799999594688416,-2.515505525864099
210.87930999999998,,0.008349784844671266,211.115,0.4950000047683716,-2.522273648271574
211.344828,,0.011317883122094991,211.578,0.5049999952316284,-2.5006982476921866
211.810345,,0.0143081747017365,212.044,0.49399998784065247,-2.524846906343398
212.27586200000002,,0.01787038997214873,212.507,0.4970000088214874,-2.5184615046375156
212.741379,,0.020111047245384827,212.973,0.492000013589859,-2.5294680855362413
213.206897,,0.019275103392331624,213.437,0.527999997138977,-2.4511088902162532
213.672414,,0.015721640706030743,213.903,0.5009999871253967,-2.5099604603213606
214.137931,,0.01098455950629959,214.368,0.4950000047683716,-2.523015842451031
214.60344800000001,,0.006181048720500825,214.834,0.4909999966621399,-2.531670822296191
215.068966,,0.0018536574232653445,215.301,0.49000000953674316,-2.533748745165726
215.534483,,0.0015995781634783998,215.767,0.4909999966621399,-2.531431484085873
216.0,,0.00383391299116426,216.227,0.49000000953674316,-2.5334376679460187
216.465517,,0.004572431958219107,216.697,0.5189999938011169,-2.470055253474391
216.93103399999998,,0.0038417628820520858,217.16,0.5090000033378601,-2.491616051515199
217.39655199999999,,0.0023704550684110906,217.622,0.4959999918937683,-2.51969561822492
217.862069,,0.001178657203418264,218.09,0.492000013589859,-2.528158083936708
218.327586,,0.00029996790627106725,218.552,0.5099999904632568,-2.4886888034009367
218.793103,,0.0018875629177896908,219.018,0.5009999871253967,-2.508048634098356
219.25862099999998,,0.007816552799760285,219.482,0.5920000076293945,-2.3095548754597357
219.724138,,0.018988350562417596,219.948,0.5009999871253967,-2.5075924066658946
220.18965500000002,,0.03444436951221578,220.413,0.36000001430511475,-2.814590441492275
220.65517200000002,,0.050563066468387034,220.878,0.5059999823570251,-2.496354557897304
221.12069,,0.06292510764709319,221.345,0.48899999260902405,-2.5332787838534783
221.586207,,0.06901949936619788,221.811,0.4970000088214874,-2.51577819385874
222.051724,,0.06868268825858155,222.271,0.49399998784065247,-2.522286359423747
222.517241,,0.06143271567943575,222.741,0.5019999742507935,-2.504873423431293
222.98275900000002,,0.04463310938003678,223.204,0.4959999918937683,-2.518004817453101
223.448276,,0.01608056698077333,223.667,0.5009999871253967,-2.5072124958470594
223.913793,,0.021760812007580465,224.135,0.5120000243186951,-2.48338613841429
224.37931,,0.06162712302395178,224.597,0.4970000088214874,-2.5162382383274147
224.844828,,0.09595959405869894,225.063,0.49000000953674316,-2.5316898172973152
225.31034499999998,,0.12101648184477884,225.526,0.49399998784065247,-2.523199394472589
225.775862,,0.13686972283315302,225.991,0.3970000147819519,-2.7347705465941843
226.241379,,0.1443894377067427,226.457,0.5170000195503235,-2.4735869077915265
226.706897,,0.14278170261345677,226.922,0.5120000243186951,-2.4847360776755716
227.172414,,0.13014256996105505,227.389,0.4950000047683716,-2.5220211399068213
227.63793099999998,,0.1060460527031138,227.855,0.5130000114440918,-2.4830382851227295
228.103448,,0.07271944271549681,228.32,0.4950000047683716,-2.522464602643117
228.56896600000002,,0.03361254004705713,228.786,0.49000000953674316,-2.5335402986744278
229.03448300000002,,0.007902140710087933,229.249,0.49900001287460327,-2.5140816337493894
229.5,,0.04786110701129922,229.711,0.5009999871253967,-2.509835575536063
229.965517,,0.08096584856865269,230.175,0.5019999742507935,-2.507726604234261
230.431034,,0.10153020919755061,230.645,0.5059999823570251,-2.4990379711214428
230.896552,,0.10531194151905544,231.108,0.49799999594688416,-2.5164487972125458
231.362069,,0.09132331610398377,231.571,0.5189999938011169,-2.4706350773420196
231.827586,,0.06325532169966941,232.037,0.5149999856948853,-2.479245375157053
232.293103,,0.02887327768885111,232.501,0.49300000071525574,-2.5270326509094825
232.758621,,0.0037381918125516584,232.967,0.4950000047683716,-2.52249916339747
233.224138,,0.030417652976245557,233.434,0.5400000214576721,-2.4242556119078706
233.689655,,0.051379356215629696,233.899,0.4950000047683716,-2.522068007177392
234.155172,,0.06744385680401102,234.363,0.5120000243186951,-2.4847891732503777
234.62069,,0.0764003131780609,234.829,0.492000013589859,-2.528113688806736
235.086207,,0.07380404992232777,235.297,0.4970000088214874,-2.516973309702413
235.55172399999998,,0.057709203787985275,235.755,0.503000020980835,-2.503663328797219
236.01724099999998,,0.03232927980686177,236.223,0.4959999918937683,-2.518692102986113
236.482759,,0.006197225742305298,236.686,0.5019999742507935,-2.5054214547613562
236.94827600000002,,0.013836725497653003,237.156,0.5170000195503235,-2.472571519864904
237.413793,,0.026516927501148268,237.619,0.503000020980835,-2.5029358999772797
237.87931,,0.03435795923924798,238.085,0.4880000054836273,-2.535516944083177
238.344828,,0.03965118107227287,238.549,0.503000020980835,-2.5027798300618684
238.810345,,0.043333513851811764,239.015,0.5059999823570251,-2.4962292313436287
239.27586200000002,,0.046107916460737135,239.475,0.5019999742507935,-2.504971622739304
239.741379,,0.04838926696395777,239.94,0.49399998784065247,-2.522470226854246
240.206897,,0.049224500017791356,240.405,0.49000000953674316,-2.531293947919409
240.672414,,0.04682872551840558,240.871,0.49000000953674316,-2.5314395356917596
241.137931,,0.04091319381852943,241.338,0.515999972820282,-2.474971582100035
241.603448,,0.03407785292851527,241.803,0.49000000953674316,-2.531818300853654
242.068966,,0.030051181308588255,242.271,0.4880000054836273,-2.5363966768465827
242.534483,,0.029896866280366707,242.734,0.5040000081062317,-2.5017717506927757
243.0,,0.03037851088167999,243.197,0.515999972820282,-2.4758657447307586
243.465517,,0.02724846516818443,243.667,0.5080000162124634,-2.4935287391450074
243.93103399999998,,0.02023186638393856,244.13,0.5019999742507935,-2.506823725621628
244.39655199999999,,0.013448137404062636,244.593,0.503000020980835,-2.5048505664868137
244.862069,,0.010480821746603837,245.059,0.4880000054836273,-2.53771260252252
245.327586,,0.010529311035045622,245.521,0.47600001096725464,-2.564010567925394
245.793103,,0.010479839265464468,245.987,0.5040000081062317,-2.5031300774968446
246.258621,,0.009380546081594103,246.456,0.4909999966621399,-2.53153751704906
246.724138,,0.009053231518248134,246.922,0.49000000953674316,-2.533761912187757
247.18965500000002,,0.010901432128317604,247.386,0.49000000953674316,-2.5337675141613616
247.655172,,0.013932137006099016,247.845,0.4779999852180481,-2.5598770192258313
248.12069,,0.015974805298191258,248.312,0.4819999933242798,-2.551089707260383
248.586207,,0.015806516888179432,248.777,0.5009999871253967,-2.5095864146775386
249.051724,,0.014330408738052924,249.245,0.503000020980835,-2.5050864396293684
249.517241,,0.014338421148137664,249.708,0.5009999871253967,-2.5092716834493545
249.982759,,0.018393864633997264,250.171,0.503000020980835,-2.5047180746182374
250.44827600000002,,0.026078756010994898,250.641,0.49900001287460327,-2.5132185482296725
250.913793,,0.03358023091046245,251.104,0.492000013589859,-2.5282440080939854
251.37931000000003,,0.03611545433963211,251.567,0.49000000953674316,-2.5323727104614724
251.844828,,0.030636554593506844,252.033,0.4959999918937683,-2.519075952390242
252.31034499999998,,0.017327520748235452,252.501,0.5180000066757202,-2.470930832218705
252.77586200000002,,0.00022411495839137082,252.967,0.46799999475479126,-2.579665277072817
253.241379,,0.017425154138492948,253.427,0.49300000071525574,-2.5250248751352347
253.706897,,0.03311340760670989,253.893,0.5009999871253967,-2.507450643173216
254.172414,,0.050384254912548325,254.36,0.43700000643730164,-2.6467730222357573
254.63793099999998,,0.07002013414618692,254.826,0.5109999775886536,-2.485480028331639
255.10344800000001,,0.08387761528987199,255.29,0.5170000195503235,-2.4723735406768848
255.56896600000002,,0.07986613664070957,255.755,0.492000013589859,-2.5268435283822233
256.03448299999997,,0.05613560512081041,256.216,0.5090000033378601,-2.489848719878689
256.5,,0.026631457490867875,256.686,0.5009999871253967,-2.507357141792805
256.965517,,0.008533774050663145,257.149,0.49399998784065247,-2.522721397680534
257.431034,,0.006188714347923798,257.611,0.49000000953674316,-2.531581042405478
257.896552,,0.010761319895025032,258.077,0.5019999742507935,-2.505609280251642
258.362069,,0.013001841886645217,258.541,0.48500001430511475,-2.5428395833596444
258.827586,,0.011551948146880063,259.006,0.503000020980835,-2.5038326674041484
259.29310300000003,,0.009816107706321072,259.471,0.503000020980835,-2.5040500239555907
259.758621,,0.009733271121907815,259.937,0.49000000953674316,-2.5325915814716398
260.224138,,0.01042655212011263,260.401,0.4180000126361847,-2.6896702103515957
260.689655,,0.010627141030633225,260.867,0.492000013589859,-2.5286577099278267
261.155172,,0.010274759321910904,261.334,0.5009999871253967,-2.509241035487595
261.62068999999997,,0.00996165605806043,261.799,0.5040000081062317,-2.5028719307454366
262.086207,,0.009939290153360236,262.26,0.503000020980835,-2.505187725078131
262.551724,,0.010014210033579723,262.73,0.5040000081062317,-2.5031122568683943
263.017241,,0.010002238458568517,263.19,0.492000013589859,-2.5293222060194096
263.482759,,0.009942651161377231,263.659,0.5130000114440918,-2.48359781817989
263.94827599999996,,0.009926468487957928,264.123,0.5019999742507935,-2.5075502573462356
264.413793,,0.009924557769474821,264.585,0.4909999966621399,-2.5314633063751035
264.87931,,0.009873279228215043,265.051,0.503000020980835,-2.505230339006971
265.34482799999995,,0.009848524271414012,265.515,0.4749999940395355,-2.566109604956603
265.810345,,0.009995678052245232,265.981,0.46299999952316284,-2.5921016097508907
266.27586199999996,,0.010223622518909818,266.447,0.4970000088214874,-2.517852130511487
266.741379,,0.010162529660764797,266.913,0.5040000081062317,-2.5024069532046758
267.206897,,0.00973071194074593,267.379,0.49300000071525574,-2.526163650873612
267.672414,,0.009638222900136769,267.845,0.4959999918937683,-2.5194122013029037
268.137931,,0.010624102039260319,268.312,0.5149999856948853,-2.4778017865564013
268.603448,,0.011779972357654236,268.77,0.49399998784065247,-2.523343143132078
269.06896600000005,,0.010522730488294618,269.238,0.49300000071525574,-2.5253243490786055
269.53448299999997,,0.0054856577926116114,269.701,0.49900001287460327,-2.512074368296725
270.0,,0.0010927141461882005,270.171,0.49399998784065247,-2.522814415768998
270.465517,,0.005588179062278674,270.634,0.49799999594688416,-2.51397612713364
270.931034,,0.007401724960032297,271.097,0.49000000953674316,-2.531315127490842
271.396552,,0.009093886769172475,271.56,0.5040000081062317,-2.500760127170542
271.86206899999996,,0.01194953246157268,272.026,0.49399998784065247,-2.5225304462271927
272.327586,,0.013845573142282396,272.493,0.5049999952316284,-2.4985871259715418
272.793103,,0.012703938379098145,272.959,0.48899999260902405,-2.5335047494950755
273.258621,,0.010175358435326045,273.423,0.5070000290870667,-2.494383756917336
273.724138,,0.010053379592334676,273.888,0.5009999871253967,-2.507582783086344
274.18965499999996,,0.013755493665885892,274.353,0.5019999742507935,-2.5055593219531804
274.655172,,0.018798139147416005,274.819,0.5120000243186951,-2.4839510102544504
275.12069,,0.021551325063351022,275.286,0.48899999260902405,-2.5342558851686685
275.586207,,0.020683252923141365,275.752,0.4909999966621399,-2.5301065534044263
276.051724,,0.01804314493497638,276.212,0.4959999918937683,-2.5194271609039265
276.517241,,0.016623403085942384,276.682,0.4519999921321869,-2.6155013454377523
276.98275900000004,,0.01758526347778559,277.145,0.5120000243186951,-2.4849894334668416
277.448276,,0.01922167366636269,277.608,0.5019999742507935,-2.5069688633416756
277.913793,,0.0189546327270202,278.073,0.4909999966621399,-2.531105857531565
278.37931,,0.016139337223798216,278.536,0.515999972820282,-2.47678535194359
278.844828,,0.012753941278573615,279.002,0.4950000047683716,-2.5226514289474817
279.31034500000004,,0.011697944624292127,279.467,0.503000020980835,-2.50530212176947
279.77586199999996,,0.014497238244774852,279.933,0.5130000114440918,-2.4835583930735496
280.241379,,0.01998294562056357,280.397,0.49000000953674316,-2.533671490630811
280.706897,,0.02475715922388635,280.863,0.5009999871253967,-2.5096723648013546
281.172414,,0.025639125618011196,281.327,0.5040000081062317,-2.5030652327969163
281.637931,,0.02268656476002254,281.793,0.4970000088214874,-2.5182096401639718
282.10344799999996,,0.01956885994366222,282.256,0.492000013589859,-2.528965442878179
282.568966,,0.01966153114630637,282.726,0.4950000047683716,-2.522265426185499
283.034483,,0.021813139433152228,283.19,0.503000020980835,-2.504650491467273
283.5,,0.021817247437683172,283.652,0.4950000047683716,-2.5218780682691873
283.965517,,0.018455949241121313,284.116,0.5,-2.5107736613906106
284.431034,,0.015548326272294508,284.585,0.4950000047683716,-2.521452928178673
284.89655200000004,,0.016302919350324525,285.051,0.49799999594688416,-2.5147070138906757
285.362069,,0.017703724025225902,285.515,0.4950000047683716,-2.521043585533518
285.827586,,0.01336616058490636,285.981,0.492000013589859,-2.527397161072783
286.293103,,0.0015992200870535394,286.442,0.5080000162124634,-2.492379002445094
286.758621,,0.011860822457888817,286.907,0.49399998784065247,-2.5227476916531466
287.22413800000004,,0.01990382086453494,287.372,0.49000000953674316,-2.5313615175884374
287.689655,,0.021393554261781907,287.837,0.4659999907016754,-2.583584143432069
288.155172,,0.021625853537456045,288.304,0.4950000047683716,-2.5203764193248896
288.62069,,0.026206028256982997,288.77,0.49000000953674316,-2.531281114193143
289.086207,,0.03518162432830478,289.23,0.49000000953674316,-2.531330049369842
289.55172400000004,,0.043153625556966814,289.7,0.4970000088214874,-2.516164198937536
290.01724099999996,,0.044974583105400506,290.16,0.5149999856948853,-2.4770656077223707
290.482759,,0.04095581920303299,290.63,0.4959999918937683,-2.5186050716160557
290.948276,,0.03583211030210102,291.09,0.503000020980835,-2.503523290018414
291.413793,,0.03297135149957474,291.56,0.5230000019073486,-2.4601372095525686
291.87931,,0.031003298150589307,292.026,0.5070000290870667,-2.4951939645327896
292.344828,,0.026267722320735657,292.49,0.5210000276565552,-2.464896631379311
292.81034500000004,,0.017052089173827,292.956,0.5090000033378601,-2.4912432459447067
293.275862,,0.005019470654003492,293.415,0.5009999871253967,-2.5088683760189956
293.74137900000005,,0.006079524747029236,293.881,0.4880000054836273,-2.5373746043194894
294.206897,,0.012511452893951792,294.345,0.49000000953674316,-2.5331840726785595
294.672414,,0.01283286574045544,294.811,0.5080000162124634,-2.4941128737155913
295.13793100000004,,0.009381182009579242,295.279,0.49900001287460327,-2.51383804425012
295.603448,,0.006936156107603066,295.741,0.49000000953674316,-2.533532684702061
296.068966,,0.008558045795372152,296.212,0.5059999823570251,-2.498728251084884
296.534483,,0.01264395057223951,296.674,0.515999972820282,-2.476960603546377
297.0,,0.014973173229745014,297.135,0.503000020980835,-2.5052657945860806
297.46551700000003,,0.01347137166559767,297.604,0.49399998784065247,-2.524821724626434
297.931034,,0.009840258708041609,298.07,0.5,-2.5116651796947176
298.396552,,0.0068292923914879565,298.531,0.515999972820282,-2.476691963799002
298.862069,,0.005481520489996365,298.997,0.5009999871253967,-2.5092297427630603
299.327586,,0.005051459430378894,299.464,0.49399998784065247,-2.5243161945405936
299.79310300000003,,0.004104741808609193,299.929,0.5090000033378601,-2.4914555849325395
300.258621,,0.0015130687406499444,300.394,0.503000020980835,-2.5043351891493217
300.724138,,0.002515508951699014,300.86,0.48899999260902405,-2.534638859226951
301.189655,,0.006509119312483927,301.327,0.5090000033378601,-2.4908695211396554
301.65517200000005,,0.009798739876238404,301.785,0.515999972820282,-2.475429298215175
302.12069,,0.013840712130103157,302.253,0.5080000162124634,-2.4926805851423834
302.586207,,0.019846904550430255,302.715,0.5099999904632568,-2.488163058130614
303.05172400000004,,0.025452163421672346,303.182,0.49900001287460327,-2.511990596125276
303.517241,,0.02596728752318437,303.645,0.492000013589859,-2.5271310292718434
303.982759,,0.019844624872286724,304.116,0.5009999871253967,-2.507444218125307
304.448276,,0.011284693800081454,304.578,0.5109999775886536,-2.4856117648226315
304.913793,,0.00591262784341844,305.044,0.49300000071525574,-2.5248155732521327
305.37931000000003,,0.004707335157712765,305.507,0.41999998688697815,-2.6838814247823177
305.844828,,0.003754235221066652,305.973,0.4950000047683716,-2.5205441100707677
306.310345,,0.0004019482715174064,306.437,0.5009999871253967,-2.5075669425903406
306.775862,,0.006762903392354441,306.903,0.49399998784065247,-2.522940709740263
307.241379,,0.011371775302086853,307.368,0.4729999899864197,-2.5688405169611124
307.70689699999997,,0.011573325532702062,307.833,0.5070000290870667,-2.49493487668907
308.172414,,0.008343022820271283,308.298,0.4880000054836273,-2.536512081611058
308.637931,,0.005105858516153845,308.764,0.6169999837875366,-2.2556552281933744
309.103448,,0.004707312102943523,309.226,0.49000000953674316,-2.532530404833549
309.568966,,0.007151319895456055,309.697,0.5109999775886536,-2.4869597097459
310.034483,,0.009807155500590015,310.157,0.5120000243186951,-2.484952004227873
310.5,,0.009846530340776012,310.627,0.5080000162124634,-2.493822374895699
310.96551700000003,,0.00678969020319618,311.09,0.49000000953674316,-2.533174438915528
311.431034,,0.0027953533710013104,311.552,0.4350000023841858,-2.6531149814971466
311.896552,,0.0004262718298959442,312.018,0.492000013589859,-2.5290232768786303
312.362069,,0.0002699552099407284,312.482,0.6000000238418579,-2.2937912472937922
312.827586,,0.001024379616535402,312.948,0.4959999918937683,-2.5203988984700003
313.29310300000003,,0.001822906733973892,313.413,0.47200000286102295,-2.572682261288292
313.758621,,0.003685899595861173,313.878,0.503000020980835,-2.505110410929174
314.224138,,0.007943562837993641,314.346,0.503000020980835,-2.5050479018414293
314.689655,,0.013695186463152246,314.811,0.4970000088214874,-2.518030251033006
315.155172,,0.017914853880953586,315.275,0.4950000047683716,-2.5222742144158476
315.62068999999997,,0.018057903198987764,315.738,0.49000000953674316,-2.533034333007142
316.086207,,0.013898998538227085,316.201,0.5019999742507935,-2.506741995127046
316.551724,,0.007342576493217632,316.67,0.49000000953674316,-2.5327261265183614
317.017241,,0.0014712699690405226,317.134,0.47699999809265137,-2.5608834677440693
317.482759,,0.0009193610370906685,317.597,0.49799999594688416,-2.514966532600789
317.94827599999996,,0.0003976181186342089,318.063,0.5080000162124634,-2.4930187410319515
318.413793,,0.002211514810083226,318.525,0.4970000088214874,-2.5168309087658063
318.87931000000003,,0.0008708253178298202,318.991,0.5009999871253967,-2.507976263899039
319.344828,,0.0034505810557432376,319.456,0.5640000104904175,-2.370597039908481
319.810345,,0.006802444832397786,319.922,0.49399998784065247,-2.522996537585039
320.275862,,0.0061980970697505825,320.386,0.5099999904632568,-2.4880546094573694
320.741379,,0.003027613196128876,320.851,0.4909999966621399,-2.529391305916842
321.20689699999997,,0.0011889567402774,321.316,0.48899999260902405,-2.5337189233244946
321.672414,,0.0028424674712273054,321.782,0.4779999852180481,-2.5576836660955515
322.137931,,0.006458253572189476,322.245,0.5130000114440918,-2.4814593181651743
322.603448,,0.008345877375551303,322.715,0.5109999775886536,-2.4858717840955733
323.068966,,0.006092618424065152,323.175,0.4909999966621399,-2.5295243595520516
323.53448299999997,,0.001218031203541203,323.646,0.5049999952316284,-2.499125333088603
324.0,,0.0017874632153583102,324.108,0.49000000953674316,-2.5319263641412646
324.465517,,0.00015968529407041408,324.57,0.503000020980835,-2.5037406854846544
324.931034,,0.005468603625990161,325.036,0.49000000953674316,-2.5322111355833283
325.396552,,0.009557294424087981,325.501,0.49799999594688416,-2.51493663562323
325.86206899999996,,0.009580421951135589,325.966,0.492000013589859,-2.5281651059184647
326.327586,,0.006754218934038568,326.431,0.4959999918937683,-2.51960430329497
326.793103,,0.0038367127907426293,326.897,0.503000020980835,-2.504499711930724
327.258621,,0.0013054559991584785,327.363,0.5130000114440918,-2.482846580736805
327.724138,,0.0025713864379231046,327.829,0.492000013589859,-2.528714776797201
328.189655,,0.007894039822888091,328.294,0.49900001287460327,-2.5135610714248564
328.655172,,0.011189719989715713,328.76,0.5049999952316284,-2.5005635559942094
329.12068999999997,,0.008797776018160572,329.223,0.5070000290870667,-2.496255565999025
329.586207,,0.0016127467912539308,329.685,0.4880000054836273,-2.537673267192611
330.051724,,0.005130498982026655,330.156,0.49900001287460327,-2.513705362060483
330.517241,,0.007090512892059857,330.619,0.49900001287460327,-2.513676831612292
330.982759,,0.004576443204101903,331.09,0.492000013589859,-2.5288741010273745
331.44827599999996,,0.0006569306698760008,331.545,0.503000020980835,-2.5048328395254913
331.913793,,0.002706378402910054,332.011,0.5170000195503235,-2.4742348116960873
332.37931,,0.005182447012064997,332.475,0.5040000081062317,-2.502442170592036
332.844828,,0.006183012474256371,332.94,0.5260000228881836,-2.4543821086060493
333.310345,,0.004705894896317075,333.405,0.5120000243186951,-2.484742646101372
333.77586199999996,,0.000852801224925135,333.871,0.49399998784065247,-2.523811995018421
334.241379,,0.0039986480980806855,334.338,0.5090000033378601,-2.4909852379481707
334.706897,,0.008561212811718738,334.804,0.49399998784065247,-2.5235221350926538
335.17241399999995,,0.012388235626768771,335.272,0.5419999957084656,-2.4188120206120343
335.637931,,0.015457626140646484,335.734,0.49399998784065247,-2.52326376497297
336.103448,,0.01759874823155133,336.197,0.492000013589859,-2.5275138065110916
336.56896600000005,,0.018326794914248417,336.667,0.5040000081062317,-2.501283072636865
337.034483,,0.017135737560368357,337.127,0.49000000953674316,-2.5317198797223703
337.5,,0.01407722387966383,337.59,0.5040000081062317,-2.5011790537425367
337.965517,,0.009919603863087262,338.055,0.4959999918937683,-2.518593990246083
338.431034,,0.005483648350452797,338.526,0.4959999918937683,-2.5186053765221508
338.89655200000004,,0.0011506680540478477,338.992,0.5170000195503235,-2.4728898742140752
339.36206899999996,,0.002612907756559543,339.456,0.4909999966621399,-2.5295940898177323
339.827586,,0.005176184474313091,339.915,0.5040000081062317,-2.5013522140006
340.293103,,0.0073727871481314355,340.387,0.4909999966621399,-2.5297740308435888
340.758621,,0.012094262751438658,340.845,0.5090000033378601,-2.4906729900641085
341.224138,,0.020959746047184147,341.312,0.5090000033378601,-2.490798708892535
341.68965499999996,,0.030816757571590067,341.777,0.503000020980835,-2.5040029923965057
342.155172,,0.036303598644252956,342.245,0.4959999918937683,-2.5193888032387015
342.62069,,0.036548781862571975,342.708,0.5049999952316284,-2.499914809652119
343.086207,,0.03720296109275516,343.171,0.492000013589859,-2.528365514313299
343.551724,,0.04465115815556685,343.641,0.4880000054836273,-2.5371992449231597
344.01724099999996,,0.05937446922205673,344.101,0.492000013589859,-2.528591164819061
344.48275900000004,,0.07591110801635745,344.571,0.48899999260902405,-2.5352177966775047
344.948276,,0.08822157228778037,345.036,0.515999972820282,-2.4764658076588173
345.413793,,0.09370153017417618,345.5,0.49900001287460327,-2.5135523313205748
345.87931,,0.09274794376053866,345.966,0.515999972820282,-2.4765414312125134
346.344828,,0.08680268945609694,346.43,0.49900001287460327,-2.5135802775304112
346.81034500000004,,0.07762424079466033,346.896,0.5130000114440918,-2.483057161331147
347.275862,,0.06651802454298864,347.36,0.5049999952316284,-2.500441332606133
347.741379,,0.05244361208440989,347.826,0.492000013589859,-2.5286976303864996
348.206897,,0.031664738011126604,348.286,0.49000000953674316,-2.532970836251831
348.672414,,0.0010616819359827027,348.752,0.49399998784065247,-2.5241573480266535
349.13793100000004,,0.03798093178354252,349.215,0.5049999952316284,-2.5000814481855227
349.60344799999996,,0.07980383777087438,349.686,0.5080000162124634,-2.49342605671066
350.068966,,0.11855138324024728,350.149,0.4909999966621399,-2.5303390196916875
350.534483,,0.1512221096760704,350.612,0.5180000066757202,-2.4713907650786
351.0,,0.1766330252576344,351.077,0.49799999594688416,-2.5148422068386322
351.465517,,0.1926278800355022,351.541,0.4860000014305115,-2.5408719355023814
351.93103399999995,,0.1958181160271159,352.007,0.4950000047683716,-2.521161834710364
352.396552,,0.1844564909977635,352.475,0.4950000047683716,-2.521074466396554
352.862069,,0.16055899617380937,352.94,0.5180000066757202,-2.4708951110829656
353.32758600000005,,0.12824987341019414,353.405,0.515999972820282,-2.4752002836030167
353.793103,,0.09077178778911986,353.871,0.49799999594688416,-2.5143834237492046
354.258621,,0.050664791099930766,354.33,0.503000020980835,-2.5034788221590887
354.72413800000004,,0.012469934973551847,354.796,0.49399998784065247,-2.5230971353785674
355.189655,,0.01725190780655183,355.264,0.515999972820282,-2.475198291627412
355.655172,,0.03411736979381645,355.726,0.5090000033378601,-2.4904994648465495
356.12069,,0.039433729305600296,356.197,0.5329999923706055,-2.4382794947549877
356.586207,,0.038729580846419955,356.659,0.4909999966621399,-2.529864952100856
357.05172400000004,,0.03717101481263341,357.12,0.527999997138977,-2.4493494425725593
357.517241,,0.03659857790047257,357.589,0.48100000619888306,-2.551849957855031
357.982759,,0.03607907376879329,358.055,0.503000020980835,-2.5040304583944315
358.448276,,0.03420982801150416,358.518,0.5080000162124634,-2.493251221594494
358.913793,,0.030685196617201444,358.984,0.49399998784065247,-2.5238655517591724
359.37931000000003,,0.02640408410166637,359.449,0.5049999952316284,-2.5000093549231965
359.844828,,0.02303328165767842,359.914,0.47999998927116394,-2.5545771840358453
360.310345,,0.02245275672847651,360.379,0.492000013589859,-2.5285248170758794
360.775862,,0.025494289217846296,360.844,0.5090000033378601,-2.4915659471280183
361.241379,,0.0305850936133101,361.309,0.5040000081062317,-2.50252072777991
361.706897,,0.03437052520355991,361.775,0.4830000102519989,-2.548315608533965
362.172414,,0.034485046484619766,362.238,0.49799999594688416,-2.515660096097443
362.63793100000004,,0.03158211777141262,362.701,0.503000020980835,-2.5047709141842445
363.103448,,0.028320636727844347,363.171,0.47999998927116394,-2.554863803143314
363.568966,,0.026595695111438434,363.633,0.49300000071525574,-2.5265060444836114
364.034483,,0.026199538768536517,364.102,0.49900001287460327,-2.5133806055389614
364.5,,0.02604920365031681,364.563,0.5149999856948853,-2.478451469226577
364.96551700000003,,0.025801502608748562,365.029,0.49000000953674316,-2.532831569248076
365.431034,,0.025638456564276227,365.496,0.49000000953674316,-2.5327336222583354
365.896552,,0.025160531498631192,365.955,0.5090000033378601,-2.491232746368733
366.362069,,0.023540311678432225,366.42,0.5049999952316284,-2.4998349877054666
366.827586,,0.020797360946082852,366.885,0.49000000953674316,-2.5324001997571193
367.29310300000003,,0.018380358852403914,367.353,0.49000000953674316,-2.532287919355203
367.758621,,0.018133910724100685,367.819,0.5019999742507935,-2.506037821214324
368.224138,,0.020328357105750615,368.286,0.49900001287460327,-2.5124762328148575
368.689655,,0.022624497578346395,368.752,0.5049999952316284,-2.499318775855264
369.155172,,0.02164983418826125,369.212,0.49000000953674316,-2.5319276193315923
369.62068999999997,,0.016232249507338113,369.681,0.492000013589859,-2.5275168988905232
370.086207,,0.008961446127435525,370.142,0.5920000076293945,-2.309616103857808
370.55172400000004,,0.004288578645512038,370.605,0.4950000047683716,-2.5209259887328503
371.017241,,0.004994093138470711,371.071,0.4959999918937683,-2.5187475637351406
371.482759,,0.010073466966675076,371.541,0.49799999594688416,-2.514411674630624
371.948276,,0.015457977873764048,372.006,0.4909999966621399,-2.5297043930835232
372.413793,,0.016948261237353265,372.471,0.5090000033378601,-2.4905503222002743
372.87931000000003,,0.013439976745447042,372.937,0.492000013589859,-2.5276663586291974
373.344828,,0.00804126294184407,373.402,0.4869999885559082,-2.5386540453829425
373.810345,,0.0057298409559889745,373.86,0.4909999966621399,-2.530046660936476
374.275862,,0.009057416536304718,374.326,0.492000013589859,-2.5279845613592857
374.741379,,0.01577831328911567,374.792,0.5049999952316284,-2.4997839854972623
375.20689699999997,,0.020852623214604307,375.26,0.5080000162124634,-2.4933705218410847
375.672414,,0.020868351575134485,375.722,0.5230000019073486,-2.460809397962187
376.137931,,0.016654156407771514,376.186,0.5109999775886536,-2.4870635945733692
376.603448,,0.012173522117055564,376.656,0.49900001287460327,-2.513306205193896
377.068966,,0.011423340979805765,377.119,0.492000013589859,-2.528641743590695
377.53448299999997,,0.016103807074299183,377.582,0.49000000953674316,-2.5330678468645837
378.0,,0.025140965476481175,378.047,0.48100000619888306,-2.552726334585525
378.465517,,0.03534643950473852,378.514,0.49000000953674316,-2.533149378882706
378.931034,,0.042529156144578355,378.979,0.503000020980835,-2.5048364594770645
379.396552,,0.04311099282836894,379.441,0.5049999952316284,-2.5004661896447673
379.862069,,0.03577466112342788,379.906,0.5270000100135803,-2.4524997407224105
380.327586,,0.02185753985700437,380.371,0.4880000054836273,-2.537408668210354
380.79310300000003,,0.004019756841055968,380.837,0.49000000953674316,-2.5329734191771673
381.258621,,0.01571688276997017,381.305,0.4959999918937683,-2.519806988900164
381.724138,,0.03694976078994194,381.771,0.5099999904632568,-2.489197081300067
382.189655,,0.06000715218549605,382.234,0.5009999871253967,-2.508684783007665
382.655172,,0.08374791502767151,382.696,0.5019999742507935,-2.506378533320644
383.12068999999997,,0.10397164615725546,383.164,0.5009999871253967,-2.508426268811989
383.586207,,0.11440993218481078,383.626,0.5009999871253967,-2.5082963610518787
384.051724,,0.11051217057127095,384.094,0.5049999952316284,-2.499456983668703
384.517241,,0.09341377337964635,384.556,0.5130000114440918,-2.481911934566732
384.982759,,0.06996834546569475,385.022,0.4909999966621399,-2.529739264183401
385.44827599999996,,0.047740198912015995,385.486,0.5040000081062317,-2.5013305581511296
385.913793,,0.029793769682374113,385.952,0.49000000953674316,-2.531765301656316
386.37931,,0.015105752115812946,386.42,0.5149999856948853,-2.4772548318045517
386.84482799999995,,0.0034113759979295154,386.885,0.5049999952316284,-2.4990202228843748
387.310345,,0.002545707344277791,387.345,0.4909999966621399,-2.5295245237556108
387.775862,,0.0003095249541104836,387.811,0.5120000243186951,-2.4838008004940813
388.241379,,0.008572046620715135,388.278,0.49000000953674316,-2.5317830714027845
388.70689699999997,,0.019810089590690395,388.741,0.49900001287460327,-2.5122499787955244
389.172414,,0.030670139691857713,389.211,0.5109999775886536,-2.4862014730142934
389.637931,,0.04116936645457553,389.674,0.49000000953674316,-2.532065583717409
390.103448,,0.050601639090890424,390.135,0.5070000290870667,-2.495155157809096
390.56896600000005,,0.05476317608163288,390.604,0.5149999856948853,-2.477862462699259
391.03448299999997,,0.04884031326244951,391.07,0.5339999794960022,-2.4366090164045957
391.5,,0.03302126977414043,391.532,0.5009999871253967,-2.508645070877574
391.965517,,0.013457634759540257,391.998,0.48899999260902405,-2.5349259147273453
392.431034,,0.002986473717451681,392.463,0.5049999952316284,-2.5001973973849427
392.896552,,0.013874114269744598,392.929,0.5090000033378601,-2.49160082310278
393.36206899999996,,0.02085580693147101,393.394,0.503000020980835,-2.5047746842624026
393.827586,,0.02587548017224476,393.86,0.515999972820282,-2.476534840582488
394.293103,,0.029241403896165384,394.327,0.503000020980835,-2.5049172393751324
394.75862099999995,,0.031008455294151964,394.785,0.49000000953674316,-2.5332757400047687
395.224138,,0.032600621746875,395.253,0.5180000066757202,-2.4722844367782155
395.68965499999996,,0.035961539060116086,395.715,0.5080000162124634,-2.4940554298037814
396.155172,,0.041210576447292264,396.182,0.503000020980835,-2.5049070567597256
396.62069,,0.04598038626346353,396.652,0.5659999847412109,-2.367584807300102
397.086207,,0.04771224248267998,397.112,0.49900001287460327,-2.513461969372283
397.551724,,0.0462816833993749,397.582,0.5090000033378601,-2.491562350522776
398.017241,,0.043642815102955125,398.04,0.4950000047683716,-2.521934103077234
398.48275900000004,,0.04119407832054783,398.511,0.515999972820282,-2.476041037858522
398.94827599999996,,0.038543504123423174,398.977,0.492000013589859,-2.528179265526032
399.413793,,0.03490943953551789,399.435,0.5,-2.510598168624016
399.87931,,0.030793304316569837,399.9,0.49000000953674316,-2.5322352118260123
400.344828,,0.02798380295089094,400.371,0.49300000071525574,-2.525557282083584
400.810345,,0.028252788499632496,400.837,0.49900001287460327,-2.5123552617490934
401.27586199999996,,0.031687241130556196,401.302,0.48899999260902405,-2.5340276394298087
401.741379,,0.03572079737187512,401.76,0.49000000953674316,-2.5317545982128165
402.206897,,0.03642268089174654,402.23,0.4860000014305115,-2.540397869326476
402.672414,,0.03188085622221826,402.693,0.5049999952316284,-2.498957230270733
403.137931,,0.024369200956636097,403.156,0.492000013589859,-2.527259384823615
403.60344799999996,,0.018454030876048123,403.626,0.5040000081062317,-2.501121952755994
404.068966,,0.016658338986938283,404.09,0.492000013589859,-2.5272984682360637
404.534483,,0.01711776041027959,404.552,0.492000013589859,-2.5273567680922677
405.0,,0.015552953743856644,405.018,0.503000020980835,-2.5034736329548046
405.465517,,0.009457124705939342,405.483,0.4970000088214874,-2.5166483916692144
405.931034,,0.00022130546027139195,405.948,0.492000013589859,-2.5276621302689457
406.39655200000004,,0.008764185264846609,406.415,0.4909999966621399,-2.5299754884624277
406.862069,,0.015470660313117904,406.881,0.46799999475479126,-2.5802295594781874
407.327586,,0.02005008313802664,407.346,0.492000013589859,-2.5280933439833544
407.793103,,0.022875368060320922,407.811,0.49799999594688416,-2.515173739201702
408.258621,,0.02350067220493545,408.275,0.4959999918937683,-2.519678618559497
408.72413800000004,,0.02232095536240364,408.738,0.492000013589859,-2.528531360402421
409.18965499999996,,0.021780403592590668,409.201,0.49900001287460327,-2.513405252078335
409.655172,,0.02432102145598272,409.671,0.503000020980835,-2.5047970624670555
410.12069,,0.02952991462238354,410.134,0.503000020980835,-2.5048817923386237
410.586207,,0.03425186546235573,410.597,0.4909999966621399,-2.5310861258906283
411.05172400000004,,0.035166830223630666,411.063,0.5139999985694885,-2.481011551210877
411.51724099999996,,0.03103185446513363,411.525,0.5149999856948853,-2.4788394521552597
411.982759,,0.0234517583355652,411.991,0.503000020980835,-2.5049614659663706
412.448276,,0.0159873256470677,412.457,0.5049999952316284,-2.5005554892067896
412.913793,,0.011620347349245358,412.922,0.47600001096725464,-2.5636628848191063
413.37931,,0.010460035435692813,413.386,0.6060000061988831,-2.2803415188053666
413.844828,,0.010130470683369964,413.851,0.5139999985694885,-2.480657373835555
414.31034500000004,,0.008322254038246681,414.316,0.492000013589859,-2.52845032475506
414.775862,,0.004719138883547758,414.782,0.49900001287460327,-2.513052182798965
415.241379,,0.0009241089566855534,415.245,0.492000013589859,-2.5281501176168972
415.706897,,0.0008431643976710213,415.715,0.49900001287460327,-2.5127470875793776
416.172414,,0.0006623216185059719,416.175,0.4959999918937683,-2.519135721169371
416.63793100000004,,0.004426410494702835,416.644,0.5120000243186951,-2.4841395794500403
417.103448,,0.007415823601084541,417.105,0.492000013589859,-2.527588925187304
417.568966,,0.007157565689901538,417.575,0.503000020980835,-2.5035183893433826
418.034483,,0.00444738419770761,418.04,0.5090000033378601,-2.4903626741925495
418.5,,0.002393428612247987,418.504,0.5049999952316284,-2.499017245826649
418.96551700000003,,0.002313582651261652,418.97,0.49799999594688416,-2.5142335811019314
419.43103399999995,,0.0020064867859920163,419.435,0.5040000081062317,-2.501154497785896
419.896552,,0.0009661571701863076,419.9,0.48899999260902405,-2.533854422434119
420.362069,,0.0055524102950029785,420.36,0.4860000014305115,-2.540437484819672
420.827586,,0.00820023299501135,420.826,0.49900001287460327,-2.512187533931989
421.293103,,0.007163326870562377,421.291,0.5049999952316284,-2.499210419115879
421.758621,,0.004507099167001276,421.756,0.5040000081062317,-2.501502215529352
422.22413800000004,,0.0034036152062947604,422.226,0.5059999823570251,-2.4972725296388067
422.689655,,0.004329516066875918,422.689,0.5370000004768372,-2.4298712774311992
423.15517200000005,,0.005039287588221407,423.153,0.49300000071525574,-2.525873088790448
423.62069,,0.004071351335863056,423.615,0.47200000286102295,-2.5717670140415723
424.086207,,0.0028593202861185766,424.081,0.503000020980835,-2.5043684699623223
424.55172400000004,,0.003681565780880649,424.547,0.5130000114440918,-2.482713325023057
425.017241,,0.006483894253666591,425.012,0.5009999871253967,-2.5089750963828568
425.482759,,0.008857907994649685,425.479,0.5299999713897705,-2.445894657231038
425.948276,,0.008800828344945189,425.945,0.49900001287460327,-2.513511928343994
426.413793,,0.006404614424179824,426.405,0.5529999732971191,-2.3959201642231625
426.87931000000003,,0.0030672600739877396,426.871,0.49399998784065247,-2.524489622479205
427.344828,,0.00040265389672757625,427.338,0.49799999594688416,-2.5157785514491655
427.810345,,0.0001284566037920893,427.804,0.5049999952316284,-2.5005068685224523
428.275862,,0.001737739291223445,428.271,0.5040000081062317,-2.502640299130461
428.741379,,0.003842619023022684,428.734,0.4129999876022339,-2.700831528753339
429.20689699999997,,0.0029875060391122647,429.197,0.49000000953674316,-2.532993237585339
429.672414,,0.0014348020136758345,429.667,0.503000020980835,-2.5045735451537725
430.137931,,0.006161313798171267,430.131,0.49000000953674316,-2.5327853456678464
430.603448,,0.007513906133441395,430.593,0.44999998807907104,-2.6198118796951233
431.068966,,0.005640005623444231,431.058,0.49300000071525574,-2.526006434638873
431.534483,,0.004177381745753106,431.522,0.49000000953674316,-2.532417964854484
432.0,,0.00578013087449871,431.987,0.46399998664855957,-2.588941294466874
432.46551700000003,,0.009133730974153164,432.455,0.5049999952316284,-2.4995018859109863
432.931034,,0.010782143527414587,432.921,0.5070000290870667,-2.4950389979189413
433.396552,,0.008993282204969758,433.386,0.503000020980835,-2.5036597912414824
433.862069,,0.005264030177125068,433.851,0.49399998784065247,-2.523188708757836
434.327586,,0.002646348098484989,434.316,0.5090000033378601,-2.4904472842941083
434.79310300000003,,0.003079540611046685,434.782,0.5270000100135803,-2.4511884037436706
435.258621,,0.005873558990947269,435.245,0.5130000114440918,-2.4816653976588534
435.724138,,0.008326847402636619,435.708,0.5009999871253967,-2.507805405542362
436.189655,,0.008118274025728699,436.176,0.49900001287460327,-2.5121799777407183
436.655172,,0.005516540707550186,436.638,0.503000020980835,-2.503503598918149
437.12068999999997,,0.003068585151723278,437.101,0.5049999952316284,-2.499204217994195
437.586207,,0.002778907879286589,437.571,0.503000020980835,-2.503637099340791
438.051724,,0.003992265913750438,438.037,0.4959999918937683,-2.5189790090928907
438.517241,,0.004605790367114315,438.497,0.49799999594688416,-2.5147261569259323
438.982759,,0.003600075021502247,438.962,0.5040000081062317,-2.5017685974807473
439.448276,,0.001193875874009516,439.427,0.5,-2.510603786220688
439.913793,,0.0026320540097174235,439.892,0.48899999260902405,-2.534692262726494
440.37931000000003,,0.007789292183604973,440.36,0.49000000953674316,-2.5326362957876647
440.844828,,0.01263834807897555,440.826,0.48399999737739563,-2.545826794575593
441.310345,,0.015160213763691545,441.286,0.5120000243186951,-2.484934942297806
441.775862,,0.015867782660155535,441.752,0.5099999904632568,-2.48939010689487
442.241379,,0.017511145155865604,442.219,0.4959999918937683,-2.5199730928160156
442.70689699999997,,0.021107728002582014,442.682,0.4970000088214874,-2.51785834376061
443.172414,,0.023975028756044448,443.145,0.5009999871253967,-2.5091878597483066
443.637931,,0.023151867845313548,443.615,0.48399999737739563,-2.5462477695923464
444.103448,,0.019852688280499034,444.082,0.48399999737739563,-2.546249252983769
444.568966,,0.018496203206111134,444.547,0.5040000081062317,-2.5026561010970845
445.03448299999997,,0.020970815508085498,445.005,0.5149999856948853,-2.4786487800164387
445.5,,0.023907294299428884,445.472,0.503000020980835,-2.5047288151903317
445.965517,,0.023072935985933966,445.937,0.45899999141693115,-2.6005072734484878
446.431034,,0.01873520621631111,446.405,0.492000013589859,-2.5285148564078783
446.896552,,0.014330968615515811,446.87,0.5109999775886536,-2.487011021673898
447.36206899999996,,0.010778546113838711,447.335,0.49799999594688416,-2.515213419551113
447.827586,,0.005048807317298493,447.801,0.503000020980835,-2.5041933760852833
448.29310300000003,,0.004932741187030541,448.264,0.453000009059906,-2.612997258785024
448.758621,,0.016083427898766274,448.726,0.5090000033378601,-2.4908671269505205
449.224138,,0.022688620373402506,449.197,0.4880000054836273,-2.53649887398257
449.689655,,0.02272869789567162,449.659,0.49399998784065247,-2.523316344033515
450.155172,,0.02017150696094807,450.12,0.5,-2.510146428585019
450.62068999999997,,0.020557110211981987,450.589,0.4909999966621399,-2.529671839417232
451.086207,,0.02538494272288881,451.055,0.5049999952316284,-2.499106416687121
451.551724,,0.03148497670286411,451.518,0.5109999775886536,-2.4859899119256026
452.017241,,0.034929340114889296,451.983,0.5040000081062317,-2.50121655731473
452.482759,,0.03442725823715902,452.449,0.49900001287460327,-2.512107899766713
452.94827599999996,,0.031177568556732625,452.915,0.503000020980835,-2.503413810817361
453.413793,,0.026633280794313544,453.375,0.5109999775886536,-2.486027015745663
453.87931,,0.021142922787163308,453.84,0.5009999871253967,-2.5078762959359318
454.344828,,0.014301981472823539,454.305,0.5090000033378601,-2.4905287519945447
454.810345,,0.005662585433910426,454.77,0.4959999918937683,-2.518949633693535
455.27586199999996,,0.005016116572348426,455.241,0.5,-2.510347633411601
455.741379,,0.017481761969866554,455.703,0.49000000953674316,-2.5322579456293353
456.206897,,0.03073187778001649,456.171,0.492000013589859,-2.528032335166073
456.672414,,0.043538438692650325,456.634,0.49000000953674316,-2.5325254236138206
457.137931,,0.055239828562136974,457.097,0.49000000953674316,-2.5326612226157637
457.603448,,0.06540196499768346,457.56,0.515999972820282,-2.476147627065457
458.06896600000005,,0.07250488567304332,458.025,0.4970000088214874,-2.5176638083604685
458.53448299999997,,0.07340107022242286,458.497,0.49399998784065247,-2.524308912236661
459.0,,0.06460807453792336,458.955,0.5120000243186951,-2.485186120500001
459.465517,,0.04472393943457069,459.42,0.4880000054836273,-2.53754742072
459.931034,,0.01607902846942166,459.886,0.49900001287460327,-2.5136345730254988
460.39655200000004,,0.016104056093562552,460.352,0.49300000071525574,-2.5267357863073507
460.86206899999996,,0.04663214496175818,460.818,0.492000013589859,-2.528919594006506
461.327586,,0.07240413728350681,461.29,0.503000020980835,-2.504935054433316
461.793103,,0.09161883034166209,461.748,0.5009999871253967,-2.509248454124636
462.258621,,0.10215573256246907,462.216,0.48500001430511475,-2.5440394782673255
462.724138,,0.10216904071836806,462.678,0.5210000276565552,-2.4655192173487825
463.18965499999996,,0.09209277491148614,463.145,0.4959999918937683,-2.519877026261237
463.655172,,0.07496019408626592,463.607,0.515999972820282,-2.4761789667485443
464.12069,,0.054668115035721464,464.073,0.49799999594688416,-2.515256622735438
464.58620699999994,,0.03437274196207232,464.536,0.5059999823570251,-2.4976809093272614
465.051724,,0.01596336979787476,465.002,0.5260000228881836,-2.453956842518823
465.517241,,2.4221892182606057e-05,465.467,0.4950000047683716,-2.5213439130914805
465.98275900000004,,0.01405729522390477,465.933,0.4749999940395355,-2.564771615981218
466.448276,,0.026277494395724653,466.4,0.49300000071525574,-2.5254219802509423
466.913793,,0.03502985228460099,466.866,0.5019999742507935,-2.5056954073999083
467.37931,,0.0374412281411455,467.331,0.5040000081062317,-2.5012374756470277
467.844828,,0.032567487226308166,467.797,0.4779999852180481,-2.5578035734451037
468.31034500000004,,0.023839020334037272,468.26,0.4860000014305115,-2.540320627695021
468.77586199999996,,0.017157814436826346,468.723,0.49799999594688416,-2.514150030895869
469.241379,,0.01602499354067195,469.186,0.515999972820282,-2.474934519791272
469.706897,,0.018885738233515782,469.656,0.503000020980835,-2.5032834246322095
470.172414,,0.02110498544473002,470.119,0.503000020980835,-2.5033359519987513
470.63793100000004,,0.019085691796450744,470.582,0.5049999952316284,-2.4990559772291303
471.10344799999996,,0.013017458801249679,471.047,0.4909999966621399,-2.5296570742130813
471.568966,,0.006614349413259189,471.514,0.49799999594688416,-2.5145267444841473
472.034483,,0.004068687576854969,471.98,0.5130000114440918,-2.4819835640927623
472.5,,0.0063818025894832615,472.446,0.5130000114440918,-2.4821317721469613
472.965517,,0.010471709027187828,472.912,0.4880000054836273,-2.53675358922703
473.43103399999995,,0.01229837070668233,473.371,0.5109999775886536,-2.486803478122456
473.89655200000004,,0.01068302692864572,473.836,0.5040000081062317,-2.502210828466245
474.362069,,0.007427538612572418,474.301,0.5170000195503235,-2.4740381502302737
474.827586,,0.004253427213900833,474.767,0.49799999594688416,-2.515570650804935
475.293103,,0.0013470248914789632,475.23,0.503000020980835,-2.5047999150976397
475.758621,,0.000836791744166157,475.7,0.49000000953674316,-2.533226005413736
476.22413800000004,,0.0005527667038208714,476.161,0.49000000953674316,-2.533307820889762
476.689655,,0.002750409622213133,476.63,0.5180000066757202,-2.4723627310293814
477.155172,,0.006215944080196328,477.093,0.492000013589859,-2.5290374634347024
477.62069,,0.006202387749140196,477.556,0.4909999966621399,-2.5312181634873614
478.086207,,0.003136178368964329,478.022,0.503000020980835,-2.505048504305606
478.55172400000004,,0.001629053880034599,478.486,0.49900001287460327,-2.5137096724607955
479.01724099999996,,0.004917390987571583,478.952,0.47999998927116394,-2.555024652598079
479.482759,,0.010884993927341546,479.42,0.4909999966621399,-2.5309568833791634
479.948276,,0.014938494424310304,479.885,0.49300000071525574,-2.5264765367294273
480.413793,,0.015632317329990302,480.345,0.527999997138977,-2.4500829106684385
480.87931000000003,,0.015993987951271865,480.811,0.5,-2.510929547625413
481.344828,,0.020080359216293697,481.278,0.5019999742507935,-2.506407077007394
481.810345,,0.0296852211859141,481.741,0.4860000014305115,-2.5410961635281875
482.275862,,0.04405330186049898,482.211,0.4869999885559082,-2.5387499229065598
482.74137900000005,,0.061169305555383205,482.674,0.503000020980835,-2.5037305023739385
483.206897,,0.07828919596769034,483.142,0.492000013589859,-2.527545842396798
483.672414,,0.09143905720518307,483.604,0.48399999737739563,-2.544841258032927
484.13793100000004,,0.095725135168289,484.07,0.5080000162124634,-2.492440024989859
484.603448,,0.08775034514715141,484.532,0.492000013589859,-2.5272081202610694
485.068966,,0.06814124823359133,484.998,0.5009999871253967,-2.5075362154219287
485.534483,,0.040933381175626095,485.463,0.4880000054836273,-2.5358230039978835
486.0,,0.01044981896499515,485.929,0.4970000088214874,-2.5162094788898037
486.46551700000003,,0.020297402890361423,486.394,0.48399999737739563,-2.5445567367949433
486.931034,,0.04867109690872949,486.86,0.49000000953674316,-2.531539736597123
487.396552,,0.07222806062346437,487.327,0.5149999856948853,-2.4771566888998393
487.862069,,0.09036161428880195,487.785,0.4830000102519989,-2.5469819705992007
488.327586,,0.10420797837523683,488.256,0.492000013589859,-2.527505563789301
488.79310300000003,,0.11345810524725415,488.718,0.5049999952316284,-2.499333690476773
489.258621,,0.11488015080612217,489.186,0.5009999871253967,-2.508212911135892
489.724138,,0.1063135072324319,489.648,0.492000013589859,-2.527994589144265
490.189655,,0.0915371120029434,490.116,0.4959999918937683,-2.519458384284492
490.655172,,0.07847076923871149,490.579,0.49000000953674316,-2.532707829505468
491.12069,,0.0715031662381031,491.045,0.4880000054836273,-2.537236797407998
491.586207,,0.06718452152812708,491.508,0.503000020980835,-2.504717439215774
492.05172400000004,,0.05871534080251464,491.973,0.515999972820282,-2.4765385782508282
492.517241,,0.04363293224426196,492.437,0.5080000162124634,-2.4940891622280814
492.982759,,0.025962280420344635,492.903,0.515999972820282,-2.4767556995879167
493.448276,,0.011812789518812835,493.368,0.5059999823570251,-2.498609023855113
493.913793,,0.004220655446818879,493.834,0.4959999918937683,-2.520431882434462
494.37931000000003,,0.0015619778059431924,494.301,0.503000020980835,-2.5051864545668105
494.844828,,0.000628831512251926,494.766,0.47999998927116394,-2.5552695467990634
495.310345,,0.006280463985016334,495.227,0.4970000088214874,-2.518176562575891
495.775862,,0.01584648792499857,495.696,0.49000000953674316,-2.533342693519103
496.241379,,0.025916700604567897,496.16,0.492000013589859,-2.528874775154389
496.70689699999997,,0.03186961346038889,496.623,0.5210000276565552,-2.465559801355365
497.172414,,0.0314466813612984,497.093,0.49000000953674316,-2.5329437029076893
497.637931,,0.026549034048017943,497.556,0.49799999594688416,-2.5153451241101794
498.103448,,0.021966518558470604,498.022,0.492000013589859,-2.5282378161938515
498.568966,,0.02158572065199015,498.487,0.503000020980835,-2.5040889249148575
499.03448299999997,,0.02489538495612489,498.945,0.49900001287460327,-2.5126204806058654
499.5,,0.02750081633421251,499.412,0.4869999885559082,-2.5385875811478154
499.96551700000003,,0.025716262532564302,499.878,0.49799999594688416,-2.5144576184603675
500.431034,,0.020145147337247846,500.345,0.492000013589859,-2.5273814940976034
500.89655200000004,,0.014096948188597613,500.811,0.4909999966621399,-2.5294335292834296
501.362069,,0.00953954584372777,501.271,0.492000013589859,-2.527153495205799
501.827586,,0.0062588890048326466,501.741,0.5090000033378601,-2.4900431901559914
502.293103,,0.004520336219272087,502.204,0.49000000953674316,-2.531394245978594
502.758621,,0.006289990744771804,502.667,0.5149999856948853,-2.4769161382532863
503.224138,,0.01277961086879603,503.13,0.4860000014305115,-2.540116774374415
503.68965499999996,,0.021712663406456608,503.6,0.5130000114440918,-2.4813444876828403
504.15517200000005,,0.02801267961850112,504.066,0.4909999966621399,-2.5293560432233733
504.62068999999997,,0.027559675800324385,504.528,0.47200000286102295,-2.5708599724978174
505.08620699999994,,0.020681913589537883,504.994,0.5049999952316284,-2.499099895603998
505.55172400000004,,0.012047022502996116,505.46,0.503000020980835,-2.503613400000765
506.017241,,0.006618277805767193,505.925,0.5139999985694885,-2.479820158369529
506.48275899999993,,0.00564138097521248,506.39,0.40799999237060547,-2.7109409777432623
506.948276,,0.006831978563360746,506.856,0.4880000054836273,-2.5368419202802985
507.413793,,0.007610759417469065,507.315,0.5009999871253967,-2.5087142495233605
507.87931,,0.006974508188289274,507.781,0.48899999260902405,-2.53504683627759
508.344828,,0.005074625761323793,508.249,0.4729999899864197,-2.570082789447485
508.810345,,0.0030263912320231826,508.711,0.5090000033378601,-2.4918123256342573
509.27586199999996,,0.003087751632514647,509.175,0.48899999260902405,-2.535523925551498
509.74137900000005,,0.0068368228318769885,509.645,0.4909999966621399,-2.531278517495105
510.20689699999997,,0.01232203703607109,510.108,0.49900001287460327,-2.513931065725439
510.67241399999995,,0.014730100483971697,510.571,0.49799999594688416,-2.516158422588552
511.13793100000004,,0.01130919995321871,511.037,0.5,-2.5118148786991132
511.603448,,0.004749051652979491,511.5,0.49399998784065247,-2.524865142281576
512.0689659999999,,0.00042729006653411793,511.966,0.503000020980835,-2.505200694906157
512.534483,,0.0009087969055098516,512.43,0.5270000100135803,-2.4528226761973464
513.0,,0.004235379811867443,512.896,0.49799999594688416,-2.5158813208067725
513.465517,,0.0069200692937075505,513.363,0.492000013589859,-2.528803687966623
513.931034,,0.00712679245543294,513.829,0.49399998784065247,-2.5242750123799316
514.396552,,0.004970417758219781,514.294,0.5199999809265137,-2.467441616438464
514.862069,,0.001180003495037496,514.76,0.4860000014305115,-2.5413154896150134
515.327586,,0.0033776929494307643,515.223,0.48899999260902405,-2.534574745371854
515.793103,,0.006990438286223532,515.686,0.49399998784065247,-2.5234788568351765
516.258621,,0.007221031924920484,516.156,0.5260000228881836,-2.4535669993224314
516.724138,,0.003068337460818856,516.619,0.48899999260902405,-2.5339952389697005
517.189655,,0.00307931172401853,517.086,0.4909999966621399,-2.5294757229090266
517.655172,,0.006885350417028135,517.548,0.4970000088214874,-2.516266874156795
518.1206900000001,,0.006011189123754879,518.014,0.4880000054836273,-2.53576733527663
518.5862070000001,,0.0021286783092895095,518.479,0.5049999952316284,-2.4986558019544125
519.051724,,0.0010775301509408266,518.944,0.4880000054836273,-2.5356534200652794
519.517241,,0.001349178903066049,519.409,0.503000020980835,-2.5029707171988465
519.982759,,0.0005075857403484555,519.875,0.4959999918937683,-2.5182549165151658
520.448276,,0.0015454174520704547,520.342,0.5009999871253967,-2.507430709831721
520.9137929999999,,0.0007635909310772453,520.8,0.4950000047683716,-2.520605012641004
521.37931,,0.006128231022774011,521.267,0.5019999742507935,-2.5054872740029888
521.844828,,0.011530465206097512,521.737,0.4959999918937683,-2.518718053115588
522.310345,,0.014121927804580792,522.197,0.5040000081062317,-2.501468975167548
522.7758620000001,,0.01370681660659663,522.667,0.49300000071525574,-2.5256299649497636
523.241379,,0.012031802440344696,523.127,0.48100000619888306,-2.551979675616833
523.7068969999999,,0.01066255320535039,523.597,0.5,-2.5107952766680284
524.172414,,0.010516199885733999,524.055,0.4950000047683716,-2.5218954685348773
524.637931,,0.012178487254321768,524.525,0.5139999985694885,-2.4806981158686536
525.103448,,0.014845549108862455,524.991,0.4959999918937683,-2.5200943266936253
525.568966,,0.01576351410776821,525.457,0.5130000114440918,-2.483215621119823
526.034483,,0.012835236613888986,525.915,0.5090000033378601,-2.4920612681160264
526.5,,0.007587582967260516,526.383,0.492000013589859,-2.5291980054450907
526.9655170000001,,0.00378946470281258,526.849,0.5049999952316284,-2.500941351851426
527.4310340000001,,0.0032790401483644,527.316,0.5139999985694885,-2.4813628582704514
527.8965519999999,,0.004784679693261312,527.781,0.5080000162124634,-2.494426278973157
528.362069,,0.006629153357349229,528.242,0.5180000066757202,-2.472593709151762
528.827586,,0.008596471414641623,528.711,0.5210000276565552,-2.465975099297211
529.293103,,0.010661081559276158,529.175,0.5180000066757202,-2.4723943486256994
529.7586210000001,,0.011686803567097684,529.637,0.5070000290870667,-2.4962125669506503
530.224138,,0.010788785269102598,530.105,0.5389999747276306,-2.426323478908847
530.689655,,0.00924548031587002,530.568,0.492000013589859,-2.528527339588872
531.155172,,0.009539447967563404,531.034,0.515999972820282,-2.476034034532647
531.62069,,0.012243848339835599,531.5,0.5040000081062317,-2.5019654984385022
532.086207,,0.01481213637533138,531.966,0.5170000195503235,-2.47343089409148
532.5517239999999,,0.014081361373980876,532.43,0.5170000195503235,-2.4732253842249214
533.017241,,0.009655602127272934,532.895,0.5339999794960022,-2.4359955631442927
533.482759,,0.004212700845485792,533.36,0.5249999761581421,-2.45542889670601
533.9482760000001,,0.0003916544055770462,533.826,0.5170000195503235,-2.472707628020468
534.413793,,0.0019083486107983646,534.29,0.5249999761581421,-2.455157506382605
534.87931,,0.004481448672278628,534.756,0.5440000295639038,-2.413674831041409
535.344828,,0.007745879690339213,535.219,0.5440000295639038,-2.4136214836491936
535.810345,,0.010174348828906749,535.681,0.5370000004768372,-2.4288552656406064
536.275862,,0.010982711669554383,536.149,0.5419999957084656,-2.417982645371596
536.7413789999999,,0.011989428204375957,536.612,0.5379999876022339,-2.426754931015878
537.206897,,0.015854802817677968,537.078,0.5540000200271606,-2.3919893991556527
537.672414,,0.023243464846585876,537.541,0.5419999957084656,-2.4182584724347933
538.137931,,0.03280989803009433,538.006,0.5669999718666077,-2.3639458512471463
538.6034480000001,,0.04337772468164009,538.471,0.5540000200271606,-2.392445071627412
539.0689659999999,,0.05429166189911203,538.937,0.5519999861717224,-2.396997462379789
539.5344829999999,,0.06323965804643841,539.402,0.5830000042915344,-2.3296663742281365
540.0,,0.06581624559079256,539.867,0.5669999718666077,-2.364736961978067
540.465517,,0.059055133426592646,540.334,0.5419999957084656,-2.419414479991884
540.931034,,0.044529678378686405,540.8,0.5920000076293945,-2.3106865318070224
541.396552,,0.02633477186990257,541.263,0.5540000200271606,-2.393666107839585
541.862069,,0.00650864000259972,541.726,0.5889999866485596,-2.3175849091574223
542.327586,,0.015819202016349194,542.193,0.5709999799728394,-2.3569472103639635
542.7931030000001,,0.04045875388479096,542.656,0.5799999833106995,-2.337456611559908
543.258621,,0.06276001240803113,543.127,0.5960000157356262,-2.3026823096534206
543.7241379999999,,0.075671761431266,543.589,0.5699999928474426,-2.3593755930164413
544.189655,,0.07576158507200527,544.055,0.5809999704360962,-2.3354221942474713
544.655172,,0.06685072558798218,544.518,0.5699999928474426,-2.3593623925446994
545.12069,,0.057079692571731365,544.985,0.5419999957084656,-2.4203046980921434
545.5862070000001,,0.05216314448780907,545.45,0.5979999899864197,-2.2982076303414236
546.051724,,0.05140857048609204,545.915,0.6299999952316284,-2.2283659618968135
546.517241,,0.04974355131932092,546.375,0.597000002861023,-2.3001065617524894
546.982759,,0.0431171821245396,546.84,0.5910000205039978,-2.3129992567234092
547.448276,,0.032199447075825345,547.305,0.6200000047683716,-2.2496208514209672
547.9137929999999,,0.02120897605652712,547.77,0.6320000290870667,-2.22326594347694
548.3793099999999,,0.013212854794327572,548.238,0.6000000238418579,-2.2927644770979994
548.844828,,0.007139670407513248,548.7,0.6039999723434448,-2.28383237789942
549.310345,,2.9451867399526554e-05,549.168,0.5540000200271606,-2.3925560774518724
549.775862,,0.009209674742313958,549.63,0.6140000224113464,-2.261644723000113
550.241379,,0.018932728041594928,550.101,0.640999972820282,-2.2026494450595004
550.706897,,0.028329022115166802,550.563,0.6209999918937683,-2.2460747670687238
551.172414,,0.03823637924824953,551.029,0.628000020980835,-2.230705635534618
551.637931,,0.04950268743182251,551.496,0.6169999837875366,-2.254585641643911
552.103448,,0.06208107810594298,551.955,0.6100000143051147,-2.2697875080419
552.568966,,0.07525390661615948,552.42,0.6370000243186951,-2.2109536733905135
553.034483,,0.08619914408461524,552.886,0.6190000176429749,-2.250197452653661
553.5,,0.0887833573419217,553.353,0.6079999804496765,-2.2742288834590787
553.965517,,0.07725944619877453,553.819,0.6150000095367432,-2.2590814321408006
554.4310340000001,,0.05217040363488816,554.286,0.6060000061988831,-2.278826522011307
554.896552,,0.020396788915509955,554.752,0.6470000147819519,-2.1896685671871388
555.3620689999999,,0.010922903931715149,555.213,0.640999972820282,-2.2029304031543986
555.827586,,0.03825186458920411,555.676,0.6430000066757202,-2.1987797218435245
556.293103,,0.059808422206535115,556.145,0.6100000143051147,-2.2708930584644893
556.758621,,0.07356043021192239,556.607,0.6359999775886536,-2.2144715148983747
557.224138,,0.07858656988425122,557.073,0.5950000286102295,-2.3040181960773825
557.689655,,0.07595513690011634,557.536,0.5929999947547913,-2.308590898078425
558.155172,,0.06664591051025204,558.002,0.6420000195503235,-2.2020387241313113
558.6206900000001,,0.05051329500382516,558.467,0.593999981880188,-2.3067947491103746
559.0862070000001,,0.028868329525426357,558.933,0.6190000176429749,-2.252482929124719
559.5517239999999,,0.006386952675915824,559.4,0.6019999980926514,-2.2896434524207163
560.017241,,0.011613083343941535,559.866,0.593999981880188,-2.307161262382293
560.482759,,0.023307025107103446,560.331,0.5889999866485596,-2.318105807228762
560.948276,,0.030580992590055974,560.796,0.6039999723434448,-2.285438157757891
561.413793,,0.03568811980313349,561.256,0.6079999804496765,-2.2766949289154756
561.87931,,0.03884517644553319,561.726,0.6000000238418579,-2.2940548126545153
562.344828,,0.038875953662599924,562.189,0.6079999804496765,-2.2765175747131794
562.8103450000001,,0.035235161902314106,562.652,0.6240000128746033,-2.2415144269535046
563.275862,,0.02923726174177778,563.12,0.6010000109672546,-2.2914457983508254
563.7413789999999,,0.0235617044103281,563.582,0.6200000047683716,-2.2498463150529835
564.206897,,0.020259949766782352,564.048,0.574999988079071,-2.347659370148371
564.672414,,0.018971867589975187,564.514,0.5820000171661377,-2.3321694408824296
565.137931,,0.017644782320307452,564.979,0.6050000190734863,-2.2818153709959184
565.603448,,0.01546870107928892,565.445,0.5669999718666077,-2.364360304689164
566.068966,,0.014337911507959157,565.911,0.5720000267028809,-2.3532326881798626
566.534483,,0.01645523786806949,566.371,0.5740000009536743,-2.348658407743283
567.0,,0.02103628138254964,566.837,0.5699999928474426,-2.3571797329518054
567.465517,,0.02458880972213017,567.302,0.5419999957084656,-2.418018921285537
567.931034,,0.024229111363618726,567.767,0.5410000085830688,-2.4200709972543155
568.396552,,0.01965216872893443,568.23,0.5419999957084656,-2.4178066574421035
568.862069,,0.012268517633209604,568.7,0.527999997138977,-2.448265641796376
569.327586,,0.004053311832833563,569.16,0.5230000019073486,-2.459162147145519
569.793103,,0.002616028358282692,569.63,0.5379999876022339,-2.426530948830378
570.2586210000001,,0.005864500027507645,570.093,0.5299999713897705,-2.4440518573708068
570.724138,,0.006361389524296421,570.556,0.5379999876022339,-2.426754223387888
571.189655,,0.007699358374120808,571.022,0.5210000276565552,-2.463958470138612
571.655172,,0.0134188291459981,571.487,0.5049999952316284,-2.4990152047586958
572.12069,,0.02330021052245634,571.952,0.5289999842643738,-2.446950871456692
572.586207,,0.032847011988698833,572.419,0.5130000114440918,-2.482049769474111
573.051724,,0.03671627234137021,572.885,0.5080000162124634,-2.4931933048721118
573.517241,,0.03318811563911141,573.35,0.5130000114440918,-2.4825523218002106
573.982759,,0.02572213107697658,573.815,0.5090000033378601,-2.491512885046962
574.4482760000001,,0.019934099151555192,574.278,0.5239999890327454,-2.4590645588481843
574.913793,,0.018731899583817355,574.741,0.5049999952316284,-2.5006679987210005
575.37931,,0.020570970740195708,575.208,0.503000020980835,-2.505205724739207
575.844828,,0.02233288402511725,575.671,0.5210000276565552,-2.4661360519413655
576.310345,,0.022867636164856247,576.138,0.5099999904632568,-2.4902076130977995
576.775862,,0.022985250009889494,576.6,0.5149999856948853,-2.4793774956006533
577.241379,,0.022963565324797448,577.066,0.5049999952316284,-2.5011819678036726
577.706897,,0.021920120432547787,577.536,0.492000013589859,-2.529477136697104
578.172414,,0.019988395351387658,577.995,0.5049999952316284,-2.5010835227765704
578.6379310000001,,0.019345596932177397,578.467,0.5109999775886536,-2.4878983410252853
579.1034480000001,,0.02157427567980705,578.925,0.5170000195503235,-2.4746739242281324
579.5689659999999,,0.02482371778945612,579.39,0.5019999742507935,-2.5071670341831354
580.034483,,0.025223715197245408,579.855,0.5019999742507935,-2.5069524494549262
580.5,,0.020977931078317042,580.327,0.5460000038146973,-2.41085573785847
580.965517,,0.013930217858010482,580.785,0.47999998927116394,-2.554396255769446
581.431034,,0.007455455875626859,581.256,0.4880000054836273,-2.5367119963877927
581.896552,,0.004062779535916181,581.718,0.503000020980835,-2.503781451331048
582.362069,,0.004424244941481513,582.186,0.5339999794960022,-2.436003725149485
582.827586,,0.00643200165608217,582.648,0.49000000953674316,-2.5316427719390324
583.2931030000001,,0.004746409520227691,583.112,0.48500001430511475,-2.5423411581249935
583.758621,,0.006161152016004071,583.582,0.49300000071525574,-2.524750958446654
584.2241379999999,,0.026396122122874715,584.04,0.515999972820282,-2.4745194643404
584.689655,,0.0490288022620379,584.512,0.4959999918937683,-2.518011546857078
585.155172,,0.06578340754260738,584.97,0.4909999966621399,-2.5288687365391307
585.6206900000001,,0.07382806937938867,585.441,0.5049999952316284,-2.4983779087104683
586.0862070000001,,0.07589662887003511,585.907,0.4950000047683716,-2.520220383995499
586.551724,,0.07491964184137115,586.371,0.4880000054836273,-2.5355711177345728
587.017241,,0.07026220649309337,586.837,0.5009999871253967,-2.5073900585665387
587.482759,,0.058660703792960935,587.297,0.4959999918937683,-2.5184609337763533
587.948276,,0.037526522352927964,587.763,0.5040000081062317,-2.5012396620279267
588.4137929999999,,0.00769034590850607,588.226,0.47200000286102295,-2.5711883557411155
588.87931,,0.026123387598535962,588.696,0.515999972820282,-2.475576383897909
589.344828,,0.0573138246115268,589.157,0.49000000953674316,-2.5324776669466944
589.810345,,0.0800298655766759,589.627,0.5049999952316284,-2.5000538948356
590.2758620000001,,0.09068199359509774,590.09,0.49000000953674316,-2.53298084289576
590.741379,,0.08879686219690126,590.552,0.4869999885559082,-2.5397476432634654
591.2068969999999,,0.07731247011629888,591.018,0.5090000033378601,-2.4920241271257457
591.672414,,0.060758555292700044,591.482,0.47200000286102295,-2.5728100783533283
592.137931,,0.041970296229315314,591.948,0.4950000047683716,-2.5228409441026627
592.603448,,0.021296896790466723,592.415,0.503000020980835,-2.505510428133069
593.068966,,0.00031282626260184456,592.881,0.5189999938011169,-2.4707053746402545
593.534483,,0.0189729741835597,593.346,0.49000000953674316,-2.5338919726948186
594.0,,0.030553431164374815,593.811,0.4909999966621399,-2.531672193062547
594.4655170000001,,0.035152891709716076,594.271,0.4869999885559082,-2.5403005418655487
594.9310340000001,,0.0367045998305751,594.741,0.4880000054836273,-2.5379933311630185
595.3965519999999,,0.03783124296703346,595.204,0.47999998927116394,-2.555256065757412
595.862069,,0.03707358664270888,595.667,0.47600001096725464,-2.563771830802024
596.327586,,0.03216468079785974,596.135,0.4659999907016754,-2.5853341350531482
596.793103,,0.024443500890540388,596.598,0.48500001430511475,-2.543697318379309
597.2586210000001,,0.018375184440160394,597.063,0.47999998927116394,-2.5543372857962305
597.724138,,0.017260438426355048,597.526,0.4410000145435333,-2.6390489425938846
598.189655,,0.020801297023420248,597.991,0.48100000619888306,-2.5516540344050282
598.655172,,0.026511178212115568,598.456,0.4790000021457672,-2.555776183257822
599.12069,,0.031772236391535084,598.922,0.4950000047683716,-2.5207028792113015
599.586207,,0.03433059651266347,599.386,0.492000013589859,-2.5270504314848146
600.0517239999999,,0.032824467833383164,599.852,0.46799999475479126,-2.579182450661088
600.517241,,0.028204011318104683,600.319,0.5099999904632568,-2.4875614886260866
600.982759,,0.023599168352141976,600.785,0.47200000286102295,-2.5702736932980987
601.448276,,0.02132715339694311,601.245,0.4830000102519989,-2.5462762819522062
601.913793,,0.02021411542001782,601.715,0.47999998927116394,-2.5528256660986974
602.37931,,0.016893043615655683,602.178,0.49300000071525574,-2.5245615574983638
602.844828,,0.009811633334888182,602.641,0.47699999809265137,-2.559521380998526
603.310345,,0.0010917172985818772,603.105,0.4740000069141388,-2.566199104117714
603.775862,,0.005862064932859746,603.575,0.48100000619888306,-2.551126594069193
604.2413789999999,,0.009959264843452945,604.04,0.46000000834465027,-2.597087108218457
604.706897,,0.013438074756125962,604.504,0.4860000014305115,-2.5406755699651864
605.172414,,0.019822003490568892,604.97,0.49000000953674316,-2.532210686235543
605.637931,,0.03075554435303185,605.43,0.4830000102519989,-2.5477189407714924
606.1034480000001,,0.04405821016766348,605.896,0.5509999990463257,-2.3998272546302135
606.5689659999999,,0.054866153436948194,606.361,0.47999998927116394,-2.5547573532078833
607.0344829999999,,0.05949880880212218,606.826,0.4779999852180481,-2.5593438953193997
607.5,,0.058510831309728575,607.293,0.47699999809265137,-2.561729262292096
607.965517,,0.05540590388366851,607.759,0.47200000286102295,-2.5728004477623143
608.431034,,0.05208780231510396,608.221,0.4909999966621399,-2.531549531806435
608.896552,,0.04656862177019189,608.691,0.49000000953674316,-2.5338318820091428
609.362069,,0.03646807770711443,609.152,0.46399998664855957,-2.590537736304642
609.827586,,0.024011309665564064,609.615,0.4869999885559082,-2.540445518492778
610.293103,,0.014808002186544373,610.082,0.503000020980835,-2.505558306429669
610.758621,,0.010865033814672851,610.547,0.4880000054836273,-2.5381639372588354
611.2241379999999,,0.0076508257185949335,611.013,0.4699999988079071,-2.5772629835040424
611.689655,,0.0002103351690005467,611.478,0.47999998927116394,-2.555321728307535
612.155172,,0.009868595380304022,611.944,0.4790000021457672,-2.5573122203264145
612.62069,,0.01630791842805353,612.412,0.48100000619888306,-2.5527390886538823
613.0862070000001,,0.016043793357294868,612.87,0.48399999737739563,-2.54596623080224
613.551724,,0.012646749130578169,613.338,0.47600001096725464,-2.5631447270697785
614.017241,,0.01167311889920815,613.804,0.4830000102519989,-2.5476376909726293
614.4827590000001,,0.014786633833046067,614.267,0.4880000054836273,-2.5364899201359017
614.948276,,0.019412430326940858,614.73,0.47999998927116394,-2.553674342754721
615.4137929999999,,0.022364857112933113,615.197,0.47200000286102295,-2.570876434656036
615.8793099999999,,0.022158661388478253,615.666,0.47699999809265137,-2.559781319202579
616.344828,,0.01907298333400154,616.127,0.4909999966621399,-2.5291095611826058
616.810345,,0.015192355840952885,616.597,0.503000020980835,-2.502830758074923
617.275862,,0.01399057840661671,617.055,0.43799999356269836,-2.644348533049791
617.741379,,0.01751545185935255,617.526,0.47999998927116394,-2.552795687921379
618.206897,,0.02313793864520503,617.991,0.4830000102519989,-2.546256171492367
618.672414,,0.024859282485196213,618.457,0.48100000619888306,-2.5506552790464405
619.137931,,0.01975112717030934,618.915,0.4790000021457672,-2.5550984741954266
619.603448,,0.012255254722605103,619.387,0.47999998927116394,-2.553047257637567
620.068966,,0.009506980466579001,619.845,0.48899999260902405,-2.5336042012307725
620.534483,,0.012456052185196145,620.312,0.492000013589859,-2.5272648590190263
621.0,,0.014873059167665764,620.777,0.48100000619888306,-2.5514523503236197
621.465517,,0.012078177791783423,621.245,0.46700000762939453,-2.5821951827902416
621.9310340000001,,0.00701170349519376,621.708,0.4779999852180481,-2.5584842765615483
622.396552,,0.005301025929616699,622.171,0.4749999940395355,-2.565278834915637
622.862069,,0.007266901606303239,622.641,0.4690000116825104,-2.5786057216557428
623.327586,,0.008230954921183477,623.101,0.47600001096725464,-2.5635987868532584
623.793103,,0.005450000322666874,623.571,0.4729999899864197,-2.5703592346178326
624.258621,,0.0014409952673408275,624.036,0.5109999775886536,-2.4877681007682217
624.724138,,0.00013026851171192263,624.501,0.46299999952316284,-2.5925070957852205
625.189655,,0.0019491055772265426,624.966,0.4699999988079071,-2.5773825983789216
625.655172,,0.0037546611212714437,625.43,0.48399999737739563,-2.54696611360657
626.1206900000001,,0.002494784732969375,625.896,0.4959999918937683,-2.5208619053762247
626.5862070000001,,0.001985438802985775,626.356,0.46399998664855957,-2.590571823563978
627.0517239999999,,0.007311123149672687,626.821,0.5149999856948853,-2.4794075905325754
627.5172409999999,,0.010953140529061172,627.287,0.47200000286102295,-2.572991211343341
627.982759,,0.012028883707451251,627.752,0.492000013589859,-2.5292781514439646
628.448276,,0.01109144417164249,628.215,0.47999998927116394,-2.555244819573879
628.913793,,0.00896876638054233,628.686,0.4729999899864197,-2.5702868294209407
629.37931,,0.0063953779337608515,629.149,0.47200000286102295,-2.572232609633811
629.844828,,0.004212192105170068,629.612,0.46700000762939453,-2.58287625332196
630.3103450000001,,0.0029569719539083166,630.077,0.47600001096725464,-2.5630098973518916
630.7758620000001,,0.002265032447344943,630.541,0.46399998664855957,-2.5888943629971464
631.2413789999999,,0.0014001379448612653,631.007,0.45899999141693115,-2.599535789548458
631.706897,,0.0006183615339580387,631.471,0.46299999952316284,-2.590585074587119
632.172414,,0.0012936247712556574,631.937,0.49000000953674316,-2.5315478505306177
632.637931,,0.0038491656787907314,632.404,0.4580000042915344,-2.601079469163991
633.103448,,0.006126643698261744,632.87,0.46700000762939453,-2.581321150573306
633.568966,,0.005492061228875589,633.335,0.47200000286102295,-2.5703168948871924
634.034483,,0.0025792733009636715,633.801,0.47200000286102295,-2.5702483063445194
634.5,,0.0008144570184459013,634.264,0.49900001287460327,-2.5114000171602293
634.9655170000001,,0.0017210203277997704,634.726,0.4620000123977661,-2.5920295075983972
635.431034,,0.0031225011744972745,635.197,0.4860000014305115,-2.5398053812926946
635.8965519999999,,0.0030748105175475507,635.659,0.4560000002384186,-2.6052705942859804
636.362069,,0.00309891616636176,636.123,0.46000000834465027,-2.596701291279467
636.827586,,0.005600792930786463,636.585,0.4690000116825104,-2.5772740169565562
637.293103,,0.009783769782970336,637.051,0.4620000123977661,-2.592734456357361
637.7586210000001,,0.012271465089703056,637.515,0.47600001096725464,-2.562465840383654
638.224138,,0.01111523819225244,637.98,0.4569999873638153,-2.6041079580406796
638.689655,,0.007668806115405663,638.445,0.46299999952316284,-2.591291618751704
639.155172,,0.00490192578912805,638.91,0.47200000286102295,-2.571939174636008
639.62069,,0.004863452882839476,639.376,0.4690000116825104,-2.578721955622083
640.086207,,0.007263665868998823,639.841,0.47600001096725464,-2.563701817163161
640.551724,,0.009595588365087273,640.308,0.46299999952316284,-2.5922310987828245
641.017241,,0.008963384673173806,640.774,0.5009999871253967,-2.509618902814709
641.482759,,0.004496561988720359,641.242,0.46399998664855957,-2.590369066484456
641.9482760000001,,0.001877039799076326,641.704,0.46399998664855957,-2.590469287773803
642.413793,,0.0068110702159356615,642.167,0.46799999475479126,-2.581812566689191
642.87931,,0.0077824166310992565,642.63,0.48399999737739563,-2.546967581518103
643.344828,,0.005213277143295779,643.098,0.4869999885559082,-2.5403995303479743
643.810345,,0.0029924524951914925,643.56,0.45100000500679016,-2.618754598315977
644.275862,,0.005327712942873389,644.026,0.46299999952316284,-2.592493979204487
644.7413789999999,,0.011715232099816264,644.49,0.4880000054836273,-2.537873833796686
645.206897,,0.016142919912042326,644.956,0.4620000123977661,-2.5943319528103084
645.672414,,0.012910651072865487,645.422,0.45899999141693115,-2.600654824084376
646.1379310000001,,0.0030410909930375647,645.888,0.47600001096725464,-2.563385235758148
646.6034480000001,,0.0061458783594767925,646.353,0.46299999952316284,-2.5914627523554814
647.0689659999999,,0.008104654178591332,646.819,0.4860000014305115,-2.5411038143176747
647.534483,,0.0032977004073181187,647.286,0.3479999899864197,-2.8415121276045037
648.0,,0.0019367366723190246,647.745,0.4690000116825104,-2.5776649427563956
648.465517,,0.0023438524594402254,648.215,0.46399998664855957,-2.5883475112752086
648.931034,,0.001424164784988122,648.678,0.46700000762939453,-2.581624773598989
649.396552,,0.005107183560099946,649.146,0.4830000102519989,-2.5466088158732303
649.862069,,0.006319496197722586,649.608,0.4740000069141388,-2.5660924073640192
650.327586,,0.006080362529431376,650.074,0.46299999952316284,-2.5899704600598574
650.7931030000001,,0.005712643752471277,650.537,0.4699999988079071,-2.574672896766476
651.258621,,0.004788913524584023,651.003,0.4650000035762787,-2.585560497506861
651.7241379999999,,0.0030644134951090694,651.468,0.46000000834465027,-2.596489639547201
652.189655,,0.002473897303399026,651.934,0.46399998664855957,-2.58785148924735
652.655172,,0.0051044836316918125,652.4,0.49900001287460327,-2.5117124099429318
653.12069,,0.009655242475422769,652.866,0.46399998664855957,-2.588111877380165
653.5862070000001,,0.011848401769021384,653.331,0.46000000834465027,-2.5970022898547382
654.051724,,0.008814759795353443,653.797,0.4690000116825104,-2.577594722146467
654.517241,,0.0018570449115810589,654.26,0.46799999475479126,-2.5799917522403795
654.982759,,0.005422900596284937,654.722,0.45399999618530273,-2.610722732774718
655.448276,,0.010330779459833518,655.19,0.46000000834465027,-2.5978857114994507
655.9137929999999,,0.011818137550246688,655.652,0.4779999852180481,-2.55890256501275
656.37931,,0.009669211283333305,656.115,0.46700000762939453,-2.5830901261002848
656.844828,,0.0047120999991778975,656.586,0.47200000286102295,-2.5724026220912517
657.310345,,0.0005785372541553857,657.045,0.46299999952316284,-2.592193495047708
657.7758620000001,,0.003384863316218457,657.515,0.4620000123977661,-2.594527241604722
658.241379,,0.003144072539474809,657.981,0.45899999141693115,-2.601186131354578
658.7068969999999,,0.00224396167440599,658.445,0.4399999976158142,-2.6426679881625224
659.172414,,0.003506516190305743,658.911,0.4659999907016754,-2.5860730108286516
659.637931,,0.006943672865504349,659.376,0.4690000116825104,-2.5795471317134253
660.103448,,0.009377859313233735,659.842,0.49000000953674316,-2.5337645931634185
660.568966,,0.00771020766313019,660.301,0.45399999618530273,-2.6121248926803333
661.034483,,0.0025207987901176175,660.767,0.46000000834465027,-2.598944751742147
661.5,,0.0021531631281285204,661.23,0.47200000286102295,-2.572659214595713
661.965517,,0.0028628353680758777,661.701,0.49000000953674316,-2.5332716748043786
662.4310340000001,,7.405474224483959e-05,662.164,0.49000000953674316,-2.5330741343208865
662.8965519999999,,0.0028766134654361394,662.626,0.4620000123977661,-2.5938593391685894
663.362069,,0.0036052813256507634,663.094,0.4650000035762787,-2.587094707163685
663.827586,,0.0027783744745735937,663.556,0.4519999921321869,-2.6151844359106673
664.293103,,0.002576822189209598,664.021,0.4970000088214874,-2.5169151458300756
664.7586210000001,,0.0038647749817575325,664.486,0.4650000035762787,-2.5864107920127952
665.224138,,0.005276992709647655,664.952,0.47999998927116394,-2.553525686512496
665.689655,,0.004806331513325413,665.42,0.45500001311302185,-2.6078090059419616
666.155172,,0.001978466013205876,665.885,0.4950000047683716,-2.5205082308872893
666.62069,,0.0014580816462555746,666.349,0.4650000035762787,-2.585745180182109
667.086207,,0.003072444000233933,666.814,0.4729999899864197,-2.568229743699833
667.5517239999999,,0.0023001354807937746,667.275,0.47600001096725464,-2.5616465724754427
668.017241,,0.0011028787162962808,667.745,0.49000000953674316,-2.531138309103678
668.482759,,0.0014055513174369852,668.208,0.4869999885559082,-2.537706818253991
668.948276,,0.0023981211267460312,668.671,0.47999998927116394,-2.553028577234385
669.413793,,0.0014856983393448204,669.142,0.4620000123977661,-2.592352649456804
669.87931,,0.0023896686529789827,669.604,0.46399998664855957,-2.5881385616274826
670.3448279999999,,0.007450794386836714,670.07,0.4819999933242798,-2.5490963093676435
670.810345,,0.010948038560881366,670.532,0.47600001096725464,-2.5623660162433897
671.275862,,0.011428623286882622,670.998,0.4740000069141388,-2.566939455704704
671.7413789999999,,0.009196916699992147,671.463,0.49000000953674316,-2.5323087609550905
672.206897,,0.005397928736068542,671.929,0.4790000021457672,-2.55650587514074
672.672414,,0.0012005600260094295,672.393,0.4699999988079071,-2.576343147675547
673.137931,,0.002406795771074848,672.859,0.47200000286102295,-2.5722062409962145
673.6034480000001,,0.004822115685901205,673.324,0.42399999499320984,-2.6769870612265283
674.068966,,0.006313722846094292,673.789,0.4659999907016754,-2.585669330746161
674.5344829999999,,0.008041283131103685,674.253,0.4749999940395355,-2.566220280033206
675.0,,0.01114616335018233,674.715,0.4699999988079071,-2.577239556954068
675.465517,,0.015734931047597173,675.182,0.46799999475479126,-2.581686191521534
675.931034,,0.02090128974392782,675.652,0.46399998664855957,-2.5904507682220888
676.396552,,0.02566145350253192,676.112,0.4819999933242798,-2.5512438175966015
676.862069,,0.029420908431335224,676.582,0.4569999873638153,-2.6056770340468804
677.327586,,0.03142134268001336,677.04,0.46299999952316284,-2.592531645201074
677.793103,,0.03066023038171175,677.512,0.46399998664855957,-2.590241432642685
678.2586210000001,,0.027300911835452968,677.97,0.43799999356269836,-2.646740173779718
678.7241379999999,,0.023523748230484247,678.435,0.4819999933242798,-2.5507033877687912
679.1896549999999,,0.021520919319191645,678.9,0.4830000102519989,-2.5483224322317635
679.655172,,0.02069792959437032,679.368,0.4860000014305115,-2.541563325740441
680.12069,,0.01853267547855466,679.833,0.46399998664855957,-2.589256596650359
680.5862070000001,,0.014943598364728224,680.297,0.48100000619888306,-2.5519763022305195
681.051724,,0.014260155804101256,680.762,0.46299999952316284,-2.590950216212599
681.517241,,0.021126951235693237,681.23,0.46700000762939453,-2.5820030091884387
681.9827590000001,,0.0349273852417733,681.693,0.46000000834465027,-2.5970377097940514
