Trial: ,30
Threshold: ,0.0
Maximum EMG: ,0.0
Success: ,True

EMG Time,Raw EMG,Filtered EMG,Force Time,Raw Force (V),Filtered Force (N)
0.0,samples,0.0,0.465,0.5210000276565552,-2.463323401473193
0.46551699999999996,time,0.0,0.931,0.527999997138977,-2.448397930560593
0.9310339999999999,value,0.0,1.396,0.5099999904632568,-2.4879797494798717
1.396552,,0.0,1.861,0.5210000276565552,-2.464411032114415
1.862069,,0.0,2.326,0.5379999876022339,-2.4277885161247705
2.327586,,0.0,2.792,0.5299999713897705,-2.4456367335622278
2.793103,,0.0,3.258,0.5249999761581421,-2.4569407152577742
3.258621,,0.0,3.724,0.5070000290870667,-2.4965467929749643
3.724138,,0.0,4.184,0.515999972820282,-2.477297821095654
4.189654999999999,,0.0,4.655,0.5210000276565552,-2.466720128588589
4.655172,,0.0,5.118,0.5170000195503235,-2.4756970846171105
5.12069,,0.0,5.58,0.531000018119812,-2.445396405994031
5.586207,,0.0,6.046,0.5299999713897705,-2.4477066651806676
6.051723999999999,,0.0,6.51,0.5299999713897705,-2.447764612123023
6.517241,,0.0,6.976,0.5270000100135803,-2.454282758898615
6.982759,,0.0,7.443,0.5170000195503235,-2.4759763065223552
7.448276,,0.0,7.909,0.5289999842643738,-2.449667148796839
7.913793000000001,,0.0,8.373,0.5170000195503235,-2.4755775910473283
8.379309999999998,,0.0,8.839,0.5299999713897705,-2.446960981407105
8.844828000000001,,0.0,9.303,0.5379999876022339,-2.4291848245027032
9.310345,,0.0,9.769,0.5170000195503235,-2.4745470993402066
9.775862,,0.0,10.229,0.5410000085830688,-2.421839893284486
10.241379,,0.0,10.699,0.5379999876022339,-2.4279382556740776
10.706897,,0.0,11.162,0.5210000276565552,-2.4645330389686153
11.172414,,0.0,11.625,0.5299999713897705,-2.44449283434792
11.637931,,0.0,12.092,0.527999997138977,-2.4484407637179384
12.103447999999998,,0.0,12.554,0.5199999809265137,-2.465496730910982
12.568966000000001,,0.0,13.02,0.5210000276565552,-2.462992859062192
13.034483,,0.0,13.484,0.5299999713897705,-2.4431184355298585
13.5,,0.0,13.949,0.5339999794960022,-2.434203674484826
13.965517,,0.0,14.414,0.5180000066757202,-2.4689349489053103
14.431034,,0.0,14.88,0.5109999775886536,-2.484136576298407
14.896552,,0.0,15.344,0.531000018119812,-2.4405946997885786
15.362069,,0.0,15.81,0.527999997138977,-2.4472409304147185
15.827586000000002,,0.0,16.274,0.5419999957084656,-2.416925568671286
16.293103,,0.0,16.74,0.5260000228881836,-2.4520395697783877
16.758621,,0.0,17.21,0.515999972820282,-2.4741447672264774
17.224138,,0.0,17.672,0.5370000004768372,-2.4287653404563136
17.689655,,0.0,18.141,0.5379999876022339,-2.427000793817862
18.155172,,0.0,18.603,0.527999997138977,-2.449230315106708
18.62069,,0.0,19.066,0.5109999775886536,-2.4867265578922315
19.086207,,0.0,19.536,0.515999972820282,-2.4762952214422027
19.551724,,0.0,19.994,0.5210000276565552,-2.465852240915399
20.017241000000002,,0.0,20.466,0.5419999957084656,-2.420524844405005
20.482758999999998,,0.0,20.924,0.5379999876022339,-2.4296233096892244
20.948276,,0.0,21.392,0.5230000019073486,-2.462634488613383
21.413793000000002,,0.0,21.857,0.5400000214576721,-2.425866296594344
21.87931,,0.0,22.321,0.5170000195503235,-2.4761729811648725
22.344828,,0.0,22.787,0.5339999794960022,-2.439256396074162
22.810344999999998,,0.0,23.259,0.531000018119812,-2.445830984375802
23.275862,,0.0,23.718,0.5260000228881836,-2.456679593146334
23.741379,,0.0,24.18,0.5070000290870667,-2.4979475090698346
24.206897,,0.0,24.644,0.546999990940094,-2.410596991331654
24.672414,,0.0,25.114,0.5170000195503235,-2.4756788922424975
25.137931,,0.0,25.577,0.5210000276565552,-2.466622387908645
25.603448,,0.0,26.042,0.5350000262260437,-2.4357254210304395
26.068966,,0.0,26.506,0.5149999856948853,-2.4788603468189367
26.534483,,0.0,26.971,0.5289999842643738,-2.4478923844539318
27.0,,0.0,27.436,0.527999997138977,-2.4495895322386834
27.465517,,0.0,27.902,0.5299999713897705,-2.4447507413371943
27.931034,,0.0,28.366,0.5120000243186951,-2.483499834986735
28.396552,,0.0,28.832,0.5249999761581421,-2.4547409598806817
28.862069,,0.0,29.299,0.5139999985694885,-2.478313116011288
29.327586,,0.0,29.765,0.5299999713897705,-2.443117641679915
29.793103000000002,,0.0,30.225,0.5379999876022339,-2.425417165664842
30.258620999999998,,0.0,30.695,0.5130000114440918,-2.479686542997612
30.724138,,0.0,31.158,0.5239999890327454,-2.455606107458584
31.189655000000002,,0.0,31.621,0.5090000033378601,-2.4882562166838706
31.655172000000004,,0.0,32.085,0.5189999938011169,-2.466527369316462
32.12069,,0.0,32.554,0.46000000834465027,-2.595212103066499
32.586207,,0.0,33.02,0.5289999842643738,-2.445113255353147
33.051724,,0.0,33.484,0.527999997138977,-2.447594968881323
33.517241000000006,,0.0,33.949,0.5329999923706055,-2.4370695206022184
33.982759,,0.0,34.414,0.5299999713897705,-2.4440267157151574
34.448276,,0.0,34.879,0.5249999761581421,-2.455381844292907
34.913793,,0.0,35.344,0.5400000214576721,-2.4231904366911268
35.37931,,0.0,35.81,0.5149999856948853,-2.4781567463946756
35.844828,,0.0,36.274,0.5370000004768372,-2.430722888989386
36.310345,,0.0,36.739,0.5299999713897705,-2.44645089768021
36.775862,,0.0,37.203,0.531000018119812,-2.444715581017447
37.241378999999995,,0.0,37.665,0.5099999904632568,-2.4908635015862917
37.706897000000005,,0.0,38.133,0.5139999985694885,-2.4824862778436523
38.172414,,0.0,38.595,0.5210000276565552,-2.4675037693000506
38.637931,,0.0,39.059,0.5289999842643738,-2.4502644986289224
39.103448,,0.0,39.529,0.5189999938011169,-2.4721561624665265
39.568965999999996,,0.0,39.994,0.5149999856948853,-2.480888090986896
40.034483,,0.0,40.458,0.5120000243186951,-2.48735292442866
40.5,,0.0,40.924,0.5239999890327454,-2.4610516370635103
40.965517,,0.0,41.389,0.5410000085830688,-2.4237742221223235
41.431034,,0.0,41.855,0.5049999952316284,-2.5018893980433927
41.896552,,0.0,42.314,0.515999972820282,-2.4775424403611166
42.362069000000005,,0.0,42.78,0.5130000114440918,-2.4836425897448136
42.827586000000004,,0.0,43.253,0.5170000195503235,-2.474451395278162
43.293103,,0.0,43.711,0.5139999985694885,-2.480484349591669
43.758621,,0.0,44.174,0.5410000085830688,-2.4211461351064374
44.224138,,0.0,44.643,0.5249999761581421,-2.455493376036477
44.689655,,0.0,45.104,0.5230000019073486,-2.4593586810171986
45.155172,,0.0,45.574,0.5149999856948853,-2.4763309704498027
45.620689999999996,,0.0,46.039,0.5180000066757202,-2.4693875007375055
46.086206999999995,,0.0,46.502,0.515999972820282,-2.473399654681216
46.551724,,0.0,46.968,0.5049999952316284,-2.4970928633599097
47.017241,,0.0,47.432,0.5759999752044678,-2.3422180157221857
47.482759,,0.0,47.898,0.515999972820282,-2.472832134170225
47.948276,,0.0,48.364,0.5339999794960022,-2.433601753821804
48.413793,,0.0,48.83,0.5249999761581421,-2.4532866109761557
48.879310000000004,,0.0,49.296,0.5400000214576721,-2.420773297440838
49.344828,,0.0,49.754,0.5339999794960022,-2.4340964168989307
49.810345,,0.0,50.222,0.5289999842643738,-2.4453182084926346
50.275862,,0.0,50.684,0.5260000228881836,-2.4522507919263643
50.741379,,0.0,51.155,0.5130000114440918,-2.4810268431815983
51.206897,,0.0,51.617,0.5170000195503235,-2.472809589648369
51.672414,,0.0,52.085,0.5260000228881836,-2.4537278064003236
52.137931,,0.0,52.547,0.5239999890327454,-2.4586236041721996
52.603448,,0.0,53.013,0.5270000100135803,-2.4526217973642455
53.068966,,0.0,53.477,0.5170000195503235,-2.4749219180944806
53.534483,,0.0,53.942,0.5440000295639038,-2.416575416159234
54.0,,0.0,54.406,0.5180000066757202,-2.473645620215191
54.465517,,0.0,54.872,0.5249999761581421,-2.4587556541676605
54.931034,,0.0,55.337,0.5149999856948853,-2.480826877797858
55.396552,,0.0,55.803,0.515999972820282,-2.4788483128963636
55.862069,,0.0,56.27,0.5170000195503235,-2.4767784224826883
56.327586,,0.0,56.736,0.531000018119812,-2.446290793234277
56.793102999999995,,0.0,57.196,0.5130000114440918,-2.4854233461353705
57.258621000000005,,0.0,57.666,0.5249999761581421,-2.459102025669767
57.724138,,0.0,58.129,0.5339999794960022,-2.439226693163004
58.189655,,0.0,58.591,0.5289999842643738,-2.4497697567116665
58.655172,,0.0,59.059,0.5429999828338623,-2.418845817362189
59.120689999999996,,0.0,59.522,0.5270000100135803,-2.4532210489747297
59.586207,,0.0,59.988,0.5139999985694885,-2.4810152699341708
60.051724,,0.0,60.455,0.5410000085830688,-2.4216346062060135
60.517241,,0.0,60.92,0.5410000085830688,-2.4210648390595386
60.982758999999994,,0.0,61.385,0.515999972820282,-2.4749661761561295
61.448276,,0.0,61.85,0.5139999985694885,-2.4787816742385895
61.913793,,0.0,62.31,0.5210000276565552,-2.463029798896001
62.379310000000004,,0.0,62.776,0.5199999809265137,-2.464763222694998
62.84482800000001,,0.0,63.244,0.5249999761581421,-2.453494433692972
63.310345000000005,,0.0,63.707,0.503000020980835,-2.5011310258732484
63.775862000000004,,0.0,64.17,0.5230000019073486,-2.4573562758780727
64.241379,,0.0,64.639,0.515999972820282,-2.472503334033549
64.706897,,0.0,65.1,0.5249999761581421,-2.4528935823659808
65.172414,,0.0,65.569,0.515999972820282,-2.4726016995527544
65.637931,,0.0,66.035,0.527999997138977,-2.446657646583416
66.103448,,0.0,66.498,0.49000000953674316,-2.5297403692776332
66.56896599999999,,0.0,66.963,0.5170000195503235,-2.4712972652523186
67.03448300000001,,0.0,67.43,0.5099999904632568,-2.4870031769399072
67.5,,0.0,67.895,0.527999997138977,-2.448303326659345
67.965517,,0.0,68.355,0.5289999842643738,-2.4466848735994087
68.431034,,0.0,68.82,0.5370000004768372,-2.42984250948358
68.896552,,0.0,69.285,0.5260000228881836,-2.4544030786251527
69.362069,,0.0,69.751,0.6129999756813049,-2.2654451322104614
69.827586,,0.0,70.214,0.5120000243186951,-2.486042869906869
70.293103,,0.0,70.684,0.5210000276565552,-2.4669440855276483
70.75862099999999,,0.0,71.144,0.5289999842643738,-2.4499645782909303
71.22413800000001,,0.0,71.614,0.5130000114440918,-2.485198935290002
71.689655,,0.0,72.077,0.5360000133514404,-2.435380746242645
72.15517200000001,,0.0,72.54,0.5460000038146973,-2.413789810829667
72.62069,,0.0,73.005,0.5419999957084656,-2.422597724660795
73.086207,,0.0,73.469,0.5009999871253967,-2.5119109860349944
73.551724,,0.0,73.935,0.5699999928474426,-2.361468471289662
74.017241,,0.0,74.399,0.5170000195503235,-2.476719182630046
74.482759,,0.0,74.865,0.5120000243186951,-2.4872999865865553
74.94827599999999,,0.0,75.33,0.5429999828338623,-2.4193645972828914
75.41379300000001,,0.0,75.796,0.5120000243186951,-2.4864317495903
75.87931,,0.0,76.262,0.515999972820282,-2.477187507517931
76.344828,,0.0,76.728,0.5419999957084656,-2.419969865903931
76.810345,,0.0,77.196,0.5180000066757202,-2.4716584809964943
77.275862,,0.0,77.658,0.515999972820282,-2.4754093043481347
77.741379,,0.0,78.126,0.5239999890327454,-2.457384749944198
78.206897,,0.0,78.588,0.5239999890327454,-2.4568185401201474
78.67241399999999,,0.0,79.059,0.5090000033378601,-2.4889785949592365
79.137931,,0.0,79.514,0.45100000500679016,-2.6148847257674115
79.603448,,0.0,79.98,0.515999972820282,-2.4728964025218616
80.068966,,0.0,80.447,0.5299999713897705,-2.44210834541243
80.53448300000001,,0.0,80.913,0.5090000033378601,-2.487669593047411
81.0,,0.0,81.378,0.5299999713897705,-2.4418303628398728
81.465517,,0.0,81.843,0.5210000276565552,-2.4614556143951676
81.931034,,0.0,82.31,0.5180000066757202,-2.4681139349760937
82.396552,,0.0,82.776,0.5339999794960022,-2.4334791481740723
82.86206899999999,,0.0,83.236,0.5189999938011169,-2.4664767303705837
83.327586,,0.0,83.699,0.5210000276565552,-2.462522322907571
83.79310299999999,,0.0,84.166,0.5090000033378601,-2.4891426049597603
84.258621,,0.0,84.636,0.5299999713897705,-2.4439266801114248
84.72413800000001,,0.0,85.096,0.5130000114440918,-2.481542118884198
85.189655,,0.0,85.559,0.5139999985694885,-2.479967630229926
85.65517200000001,,0.0,86.025,0.5149999856948853,-2.4784008069527244
86.12069,,0.0,86.495,0.515999972820282,-2.4768230596687277
86.586207,,0.0,86.954,0.5360000133514404,-2.4338212813926927
87.051724,,0.0,87.419,0.5239999890327454,-2.460488940840195
87.517241,,0.0,87.884,0.5149999856948853,-2.4805574375928128
87.98275899999999,,0.0,88.352,0.5419999957084656,-2.422117383007303
88.448276,,0.0,88.817,0.5249999761581421,-2.4594485711194056
88.913793,,0.0,89.281,0.531000018119812,-2.4465723162115176
89.37931,,0.0,89.747,0.5130000114440918,-2.48587977800519
89.844828,,0.0,90.21,0.5419999957084656,-2.4226839125458577
90.310345,,0.0,90.68,0.5239999890327454,-2.4617776498571105
90.775862,,0.0,91.144,0.5180000066757202,-2.47462449496363
91.241379,,0.0,91.606,0.5230000019073486,-2.4634103946311745
91.706897,,0.0,92.074,0.546999990940094,-2.4107152265771963
92.17241399999999,,0.0,92.536,0.527999997138977,-2.4516268305270392
92.63793100000001,,0.0,93.001,0.5239999890327454,-2.459798539401004
93.103448,,0.0,93.467,0.5099999904632568,-2.48971373329964
93.568966,,0.0,93.932,0.5149999856948853,-2.4782098670556643
94.03448300000001,,0.0,94.399,0.5189999938011169,-2.4688783696405716
94.5,,0.0,94.864,0.5019999742507935,-2.505311056242085
94.965517,,0.0,95.33,0.5199999809265137,-2.465521956516136
95.431034,,0.0,95.795,0.5149999856948853,-2.4758898543667254
95.896552,,0.0,96.255,0.515999972820282,-2.473249656536215
96.36206899999999,,0.0,96.721,0.5389999747276306,-2.4227564718506063
96.827586,,0.0,97.188,0.5080000162124634,-2.4899989046415594
97.293103,,0.0,97.651,0.5180000066757202,-2.4680149721186853
97.758621,,0.0,98.114,0.5249999761581421,-2.4526712446016394
98.224138,,0.0,98.584,0.5019999742507935,-2.50279397120047
98.689655,,0.0,99.05,0.5149999856948853,-2.4745924325383477
99.155172,,0.0,99.515,0.5419999957084656,-2.4159927441740994
99.62069,,0.0,99.981,0.5170000195503235,-2.4707781897588403
100.086207,,0.0,100.44,0.515999972820282,-2.473362450787399
100.551724,,0.0,100.906,0.5249999761581421,-2.4542344848573476
101.017241,,0.0,101.37,0.5339999794960022,-2.435165953713365
101.482759,,0.0,101.836,0.515999972820282,-2.4749639997132324
101.948276,,0.0,102.3,0.5170000195503235,-2.4733935759219268
102.413793,,0.0,102.765,0.4399999976158142,-2.641767339058457
102.87931,,0.0,103.233,0.5289999842643738,-2.4484772349285024
103.344828,,0.0,103.695,0.5260000228881836,-2.455594324187487
103.810345,,0.0,104.166,0.5109999775886536,-2.4888079930865006
104.275862,,0.0,104.628,0.5249999761581421,-2.458777429893726
104.741379,,0.0,105.092,0.5320000052452087,-2.4439193025201043
105.206897,,0.0,105.555,0.5339999794960022,-2.4398639468839542
105.672414,,0.0,106.02,0.5189999938011169,-2.472745798291687
106.13793100000001,,0.0,106.484,0.5329999923706055,-2.442341196803415
106.603448,,0.0,106.95,0.5249999761581421,-2.4597581990719473
107.068966,,0.0,107.415,0.5350000262260437,-2.4378508654407773
107.534483,,0.0,107.88,0.5199999809265137,-2.4703051904194813
108.0,,0.0,108.347,0.6179999709129333,-2.2564727085498113
108.46551699999999,,0.0,108.813,0.5389999747276306,-2.428169791201305
108.931034,,0.0,109.278,0.5230000019073486,-2.4625348563163327
109.396552,,0.0,109.744,0.5210000276565552,-2.4663391251253426
109.862069,,0.0,110.207,0.5180000066757202,-2.4722799206341612
110.32758600000001,,0.0,110.669,0.5210000276565552,-2.4651249121995167
110.793103,,0.0,111.137,0.5419999957084656,-2.418749070770547
111.258621,,0.0,111.599,0.515999972820282,-2.474783243218902
111.724138,,0.0,112.07,0.515999972820282,-2.4742052877147307
112.189655,,0.0,112.532,0.5139999985694885,-2.4780355647503507
112.655172,,0.0,112.998,0.5199999809265137,-2.4645037513476526
113.12069,,0.0,113.462,0.5059999823570251,-2.4946259242733526
113.586207,,0.0,113.928,0.5370000004768372,-2.4268011560331666
114.051724,,0.0,114.395,0.5070000290870667,-2.4919745208389896
114.51724100000001,,0.0,114.854,0.5419999957084656,-2.4156417438714413
114.982759,,0.0,115.325,0.5120000243186951,-2.4810290042459555
115.448276,,0.0,115.791,0.5210000276565552,-2.461556205964775
115.913793,,0.0,116.255,0.5170000195503235,-2.4705090361166198
116.37931,,0.0,116.72,0.5360000133514404,-2.4294482219323457
116.84482799999999,,0.0,117.181,0.5180000066757202,-2.4690820279206194
117.310345,,0.0,117.65,0.5180000066757202,-2.4695720943093233
117.77586199999999,,0.0,118.111,0.5339999794960022,-2.4352607025698942
118.241379,,0.0,118.574,0.5120000243186951,-2.48377767014955
118.70689700000001,,0.0,119.04,0.5210000276565552,-2.464778780698298
119.172414,,0.0,119.51,0.5170000195503235,-2.4741060134707813
119.63793100000001,,0.0,119.975,0.5239999890327454,-2.4594529028335446
120.103448,,0.0,120.441,0.5170000195503235,-2.47526717840257
120.568966,,0.0,120.899,0.5339999794960022,-2.4387430621487503
121.034483,,0.0,121.37,0.5339999794960022,-2.439188813450753
121.5,,0.0,121.835,0.5210000276565552,-2.4678762262057172
121.96551699999999,,0.0,122.3,0.5149999856948853,-2.4812222085681284
122.431034,,0.0,122.766,0.5410000085830688,-2.424751975058798
122.896552,,0.0,123.229,0.5139999985694885,-2.4836454239853016
123.362069,,0.0,123.691,0.5180000066757202,-2.4748944354679523
123.827586,,0.0,124.159,0.5049999952316284,-2.5030761812820046
124.293103,,0.0,124.621,0.5040000081062317,-2.505014662476928
124.758621,,0.0,125.089,0.5239999890327454,-2.461109557425301
125.22413800000001,,0.0,125.551,0.531000018119812,-2.4454441689535553
125.68965500000002,,0.0,126.017,0.5509999990463257,-2.401385585605583
126.15517200000001,,0.0,126.483,0.5149999856948853,-2.4792752219359624
126.62069000000001,,0.0,126.948,0.5450000166893005,-2.4133348641780596
127.086207,,0.0,127.414,0.5299999713897705,-2.445412530219445
127.55172400000001,,0.0,127.879,0.5230000019073486,-2.4600581191475697
128.017241,,0.0,128.344,0.5299999713897705,-2.4442190291581816
128.48275900000002,,0.0,128.809,0.5299999713897705,-2.4436646298143825
128.948276,,0.0,129.274,0.515999972820282,-2.47366265951316
129.413793,,0.0,129.74,0.4950000047683716,-2.5189788291662603
129.87931,,0.0,130.203,0.5139999985694885,-2.477230747738994
130.344828,,0.0,130.665,0.5299999713897705,-2.4421103947712712
130.81034499999998,,0.0,131.129,0.5170000195503235,-2.4702695918905913
131.275862,,0.0,131.599,0.4339999854564667,-2.651039847472511
131.741379,,0.0,132.062,0.5389999747276306,-2.4223323251433984
132.206897,,0.0,132.525,0.5139999985694885,-2.4769536555270486
132.67241399999997,,0.0,132.99,0.5049999952316284,-2.496815193128226
133.13793099999998,,0.0,133.455,0.5339999794960022,-2.4339787383487455
133.60344800000001,,0.0,133.921,0.5249999761581421,-2.454009921811713
134.06896600000002,,0.0,134.385,0.5189999938011169,-2.4675707254341597
134.53448300000002,,0.0,134.851,0.5379999876022339,-2.4267157599363935
135.0,,0.0,135.318,0.5419999957084656,-2.418573518238055
135.465517,,0.0,135.784,0.5299999713897705,-2.4453048270812263
135.931034,,0.0,136.244,0.5260000228881836,-2.454604309861452
136.396552,,0.0,136.714,0.5170000195503235,-2.4747773874609242
136.862069,,0.0,137.177,0.5299999713897705,-2.4469835044728705
137.327586,,0.0,137.639,0.5139999985694885,-2.4823175028678235
137.793103,,0.0,138.107,0.5199999809265137,-2.469654454444635
138.258621,,0.0,138.569,0.5299999713897705,-2.4481975801978115
138.724138,,0.0,139.036,0.5299999713897705,-2.4484376992046366
139.189655,,0.0,139.506,0.5199999809265137,-2.47036780410349
139.655172,,0.0,139.964,0.5270000100135803,-2.4551605574186657
140.12069,,0.0,140.431,0.5299999713897705,-2.4485666998846947
140.586207,,0.0,140.897,0.5199999809265137,-2.47019591471856
141.05172399999998,,0.0,141.365,0.503000020980835,-2.506982154749477
141.51724099999998,,0.0,141.824,0.5130000114440918,-2.48486014943999
141.982759,,0.0,142.29,0.5289999842643738,-2.4495916300860556
142.44827600000002,,0.0,142.756,0.5180000066757202,-2.473084036510327
142.913793,,0.0,143.226,0.5210000276565552,-2.466027514988007
143.37931,,0.0,143.688,0.5429999828338623,-2.4175446454180527
143.844828,,0.0,144.151,0.5389999747276306,-2.425690554139062
144.310345,,0.0,144.614,0.5210000276565552,-2.464338871192328
144.77586200000002,,0.0,145.085,0.5210000276565552,-2.463791141642718
145.241379,,0.0,145.547,0.5299999713897705,-2.4436720633609865
145.706897,,0.0,146.013,0.515999972820282,-2.4737136041217482
146.172414,,0.0,146.477,0.515999972820282,-2.4733201099614206
146.637931,,0.0,146.942,0.5109999775886536,-2.4838980709932152
147.103448,,0.0,147.409,0.5180000066757202,-2.4684198306811775
147.568966,,0.0,147.875,0.5199999809265137,-2.4639290327774788
148.034483,,0.0,148.34,0.4970000088214874,-2.514002380589726
148.5,,0.0,148.806,0.5690000057220459,-2.3572023343123125
148.965517,,0.0,149.266,0.5199999809265137,-2.464113470318901
149.43103399999998,,0.0,149.731,0.4440000057220459,-2.629939371528039
149.89655199999999,,0.0,150.199,0.4909999966621399,-2.5278777817210996
150.362069,,0.0,150.662,0.5289999842643738,-2.44549865390029
150.82758600000003,,0.0,151.129,0.5379999876022339,-2.4263595230976636
151.293103,,0.0,151.591,0.5270000100135803,-2.450837000735054
151.758621,,0.0,152.062,0.5370000004768372,-2.429590695842533
152.224138,,0.0,152.525,0.5299999713897705,-2.445392527602936
152.68965500000002,,0.0,152.984,0.5440000295639038,-2.4154364873325305
153.155172,,0.0,153.451,0.5049999952316284,-2.500926726423769
153.62069,,0.0,153.917,0.5170000195503235,-2.4752685294343935
154.086207,,0.0,154.381,0.515999972820282,-2.4778813975945106
154.551724,,0.0,154.846,0.5270000100135803,-2.4542853658301014
155.017241,,0.0,155.31,0.5139999985694885,-2.4829009800419874
155.482759,,0.0,155.776,0.515999972820282,-2.478752494051519
155.948276,,0.0,156.244,0.5460000038146973,-2.41351093705602
156.413793,,0.0,156.707,0.531000018119812,-2.4462138062884433
156.87931,,0.0,157.17,0.5419999957084656,-2.4221766048424924
157.34482799999998,,0.0,157.639,0.5299999713897705,-2.4481558698624424
157.81034499999998,,0.0,158.1,0.5099999904632568,-2.491477929247706
158.275862,,0.0,158.57,0.5170000195503235,-2.4758991408293975
158.741379,,0.0,159.035,0.515999972820282,-2.4776830181055542
159.20689700000003,,0.0,159.498,0.5210000276565552,-2.466340333336957
159.672414,,0.0,159.963,0.5339999794960022,-2.437527840363872
160.137931,,0.0,160.429,0.515999972820282,-2.476227489897865
160.60344800000001,,0.0,160.895,0.5339999794960022,-2.4364858407459304
161.06896600000002,,0.0,161.359,0.5130000114440918,-2.4817177392654597
161.534483,,0.0,161.825,0.5170000195503235,-2.4725059608923674
162.0,,0.0,162.285,0.5049999952316284,-2.49819067354168
162.465517,,0.0,162.751,0.5180000066757202,-2.469461038003642
162.931034,,0.0,163.214,0.5170000195503235,-2.4712963157645502
163.396552,,0.0,163.683,0.5299999713897705,-2.4427040924015544
163.862069,,0.0,164.147,0.5669999718666077,-2.3619042559238177
164.327586,,0.0,164.61,0.5120000243186951,-2.4816248369907052
164.793103,,0.0,165.078,0.515999972820282,-2.4728941863688307
165.258621,,0.0,165.54,0.515999972820282,-2.47296779053065
165.72413799999998,,0.0,166.005,0.5440000295639038,-2.412125558878473
166.189655,,0.0,166.47,0.5379999876022339,-2.425437823029451
166.655172,,0.0,166.935,0.5180000066757202,-2.469323609777367
167.12069,,0.0,167.4,0.515999972820282,-2.4740574267084736
167.58620699999997,,0.0,167.866,0.5149999856948853,-2.4766648102491313
168.051724,,0.0,168.332,0.527999997138977,-2.4488099559172096
168.517241,,0.0,168.797,0.5419999957084656,-2.4188001706173177
168.98275900000002,,0.0,169.263,0.5320000052452087,-2.4410859843305124
169.44827600000002,,0.0,169.728,0.5370000004768372,-2.430684936643297
169.913793,,0.0,170.192,0.5339999794960022,-2.437691125351088
170.37931,,0.0,170.654,0.5230000019073486,-2.462090515359141
170.844828,,0.0,171.125,0.527999997138977,-2.4515830985536637
171.310345,,0.0,171.588,0.5099999904632568,-2.4911250799053986
171.775862,,0.0,172.059,0.515999972820282,-2.4783108702412306
172.241379,,0.0,172.514,0.515999972820282,-2.478492539589806
172.706897,,0.0,172.979,0.49399998784065247,-2.5265236351558724
173.172414,,0.0,173.444,0.5339999794960022,-2.4393950727921982
173.637931,,0.0,173.909,0.5329999923706055,-2.441506362473829
174.103448,,0.0,174.381,0.527999997138977,-2.4522492952054646
174.568966,,0.0,174.839,0.527999997138977,-2.45202111171653
175.034483,,0.0,175.311,0.5339999794960022,-2.438650409475556
175.5,,0.0,175.769,0.5249999761581421,-2.457898057527178
175.96551699999998,,0.0,176.237,0.5419999957084656,-2.420450519762772
176.43103399999998,,0.0,176.699,0.5210000276565552,-2.4657539823937236
176.896552,,0.0,177.166,0.5410000085830688,-2.421709178846259
177.36206900000002,,0.0,177.636,0.5360000133514404,-2.432121001861881
177.827586,,0.0,178.099,0.5379999876022339,-2.4272872860279824
178.293103,,0.0,178.562,0.531000018119812,-2.442080907402989
178.758621,,0.0,179.028,0.5170000195503235,-2.4721591274704924
179.224138,,0.0,179.491,0.515999972820282,-2.473962473068209
179.68965500000002,,0.0,179.956,0.5249999761581421,-2.454038088863014
180.155172,,0.0,180.422,0.5389999747276306,-2.4232881781971236
180.62069,,0.0,180.889,0.5210000276565552,-2.462329586571448
181.086207,,0.0,181.355,0.5109999775886536,-2.4840222896168496
181.551724,,0.0,181.821,0.5379999876022339,-2.425187834379178
182.01724099999998,,0.0,182.281,0.515999972820282,-2.4731897955998767
182.482759,,0.0,182.746,0.5149999856948853,-2.4755203913997943
182.948276,,0.0,183.214,0.5419999957084656,-2.4169240778664918
183.413793,,0.0,183.676,0.5389999747276306,-2.4237543445394194
183.87931,,0.0,184.144,0.5400000214576721,-2.4219272018904916
184.34482799999998,,0.0,184.606,0.5270000100135803,-2.450647904251327
184.81034499999998,,0.0,185.07,0.5,-2.5099049726601725
185.27586200000002,,0.0,185.539,0.5249999761581421,-2.455895024953952
185.74137900000002,,0.0,186.005,0.5249999761581421,-2.456359525179992
186.206897,,0.0,186.469,0.5379999876022339,-2.428494893274596
186.672414,,0.0,186.935,0.515999972820282,-2.4768623400281506
187.137931,,0.0,187.399,0.5270000100135803,-2.453300656944506
187.60344800000001,,0.0,187.865,0.5320000052452087,-2.442765089216232
188.06896600000002,,0.0,188.325,0.5210000276565552,-2.467031055163672
188.534483,,0.0,188.79,0.5210000276565552,-2.46726649606074
189.0,,0.0,189.256,0.5289999842643738,-2.4500005361714514
189.465517,,0.0,189.721,0.5130000114440918,-2.4849450065191854
189.931034,,0.0,190.184,0.5339999794960022,-2.4392003090391863
190.39655199999999,,0.0,190.654,0.5400000214576721,-2.426055406378675
190.862069,,0.0,191.114,0.5210000276565552,-2.4672993039965494
191.327586,,0.0,191.584,0.5210000276565552,-2.4670768783191965
191.793103,,0.0,192.05,0.5410000085830688,-2.423216579661357
192.25862099999998,,0.0,192.509,0.515999972820282,-2.4773393688495773
192.72413799999998,,0.0,192.974,0.515999972820282,-2.476950977434038
193.189655,,0.0,193.44,0.5379999876022339,-2.428599506701568
193.655172,,0.0,193.906,0.5410000085830688,-2.4216217116454852
194.12069000000002,,0.0,194.37,0.5329999923706055,-2.4386017089301113
194.586207,,0.0,194.835,0.5120000243186951,-2.483911034292935
195.051724,,0.0,195.3,0.5130000114440918,-2.481311608654801
195.517241,,0.0,195.765,0.5299999713897705,-2.4438881238485757
195.98275900000002,,0.0,196.233,0.49000000953674316,-2.5306935137257667
196.448276,,0.0,196.695,0.5339999794960022,-2.434549105239492
196.913793,,0.0,197.159,0.5289999842643738,-2.4452226111907196
197.37931,,0.0,197.629,0.5299999713897705,-2.4428941713768393
197.844828,,0.0,198.092,0.5389999747276306,-2.4232105388894594
198.310345,,0.0,198.555,0.515999972820282,-2.473319780923072
198.775862,,0.0,199.02,0.5379999876022339,-2.425465799192851
199.241379,,0.0,199.484,0.515999972820282,-2.47354584453988
199.706897,,0.0,199.95,0.531000018119812,-2.4410843909302478
200.172414,,0.0,200.414,0.5270000100135803,-2.4500790229966327
200.63793099999998,,0.0,200.88,0.5270000100135803,-2.450411751037293
201.103448,,0.0,201.345,0.5199999809265137,-2.466037646317182
201.568966,,0.0,201.811,0.5189999938011169,-2.4686227827982496
202.034483,,0.0,202.278,0.5170000195503235,-2.473405450070257
202.5,,0.0,202.743,0.5299999713897705,-2.4455142368466083
202.965517,,0.0,203.204,0.515999972820282,-2.4764387621204116
203.431034,,0.0,203.673,0.515999972820282,-2.476841889115505
203.896552,,0.0,204.136,0.5170000195503235,-2.4750339470863962
204.36206900000002,,0.0,204.599,0.5379999876022339,-2.429609214102606
204.827586,,0.0,205.07,0.5410000085830688,-2.4233453694704763
205.293103,,0.0,205.532,0.5370000004768372,-2.4322689063522014
205.758621,,0.0,205.998,0.5170000195503235,-2.4759818963306146
206.224138,,0.0,206.463,0.515999972820282,-2.478228692389158
206.689655,,0.0,206.928,0.5210000276565552,-2.4673299313753114
207.155172,,0.0,207.393,0.5400000214576721,-2.4258567299329
207.62069,,0.0,207.859,0.5210000276565552,-2.4671009608300154
208.086207,,0.0,208.325,0.5339999794960022,-2.438562330986959
208.551724,,0.0,208.79,0.5299999713897705,-2.447001298234188
209.01724099999998,,0.0,209.256,0.5170000195503235,-2.4749974832896204
209.482759,,0.0,209.714,0.531000018119812,-2.4441302539857728
209.948276,,0.0,210.182,0.5210000276565552,-2.4655218808899084
210.413793,,0.0,210.644,0.5339999794960022,-2.4367880788339797
210.87930999999998,,0.0,211.114,0.5199999809265137,-2.466873704716639
211.344828,,0.0,211.577,0.5170000195503235,-2.4730031851133667
211.810345,,0.0,212.042,0.5120000243186951,-2.4835119744310488
212.27586200000002,,0.0,212.505,0.5400000214576721,-2.422158658390199
212.741379,,0.0,212.97,0.5189999938011169,-2.4676025155757464
213.206897,,0.0,213.436,0.5180000066757202,-2.4695260831327603
213.672414,,0.0,213.902,0.49000000953674316,-2.5303344761369058
214.137931,,0.0,214.367,0.5249999761581421,-2.453955332688913
214.60344800000001,,0.0,214.832,0.49000000953674316,-2.5301521245343572
215.068966,,0.0,215.3,0.515999972820282,-2.473523535184895
215.534483,,0.0,215.765,0.5320000052452087,-2.438751763888017
216.0,,0.0,216.226,0.5120000243186951,-2.482478020829406
216.465517,,0.0,216.696,0.5299999713897705,-2.443477352098923
216.93103399999998,,0.0,217.158,0.5429999828338623,-2.4154238432693567
217.39655199999999,,0.0,217.621,0.5389999747276306,-2.424452144361732
217.862069,,0.0,218.089,0.5299999713897705,-2.444408642743637
218.327586,,0.0,218.551,0.515999972820282,-2.4752832046150006
218.793103,,0.0,219.017,0.5370000004768372,-2.4299186388076
219.25862099999998,,0.0,219.483,0.5080000162124634,-2.493488424531881
219.724138,,0.0,219.948,0.5370000004768372,-2.430686852185234
220.18965500000002,,0.0,220.415,0.49399998784065247,-2.5247270959966213
220.65517200000002,,0.0,220.88,0.5249999761581421,-2.457516142594089
221.12069,,0.0,221.34,0.5630000233650208,-2.3750125762858842
221.586207,,0.0,221.806,0.5299999713897705,-2.447141618684886
222.051724,,0.0,222.27,0.5260000228881836,-2.4560317896276245
222.517241,,0.0,222.736,0.5419999957084656,-2.4212869111992688
222.98275900000002,,0.0,223.203,0.5320000052452087,-2.443121310405604
223.448276,,0.0,223.665,0.492000013589859,-2.530249563775372
223.913793,,0.0,224.129,0.546999990940094,-2.410342299571174
224.37931,,0.0,224.599,0.527999997138977,-2.451593123383131
224.844828,,0.0,225.059,0.5379999876022339,-2.4296055764116953
225.31034499999998,,0.0,225.529,0.5170000195503235,-2.475105403641999
225.775862,,0.0,225.994,0.5210000276565552,-2.466096943453046
226.241379,,0.0,226.458,0.5249999761581421,-2.457055905014876
226.706897,,0.0,226.924,0.5239999890327454,-2.458885193121403
227.172414,,0.0,227.389,0.5329999923706055,-2.4389157586596495
227.63793099999998,,0.0,227.854,0.515999972820282,-2.4755900196315763
228.103448,,0.0,228.314,0.5360000133514404,-2.4316639505319295
228.56896600000002,,0.0,228.78,0.5299999713897705,-2.4444030221050954
229.03448300000002,,0.0,229.247,0.515999972820282,-2.474601275025243
229.5,,0.0,229.71,0.5210000276565552,-2.4634446023596492
229.965517,,0.0,230.181,0.5329999923706055,-2.4370845823889233
230.431034,,0.0,230.643,0.515999972820282,-2.4739582668846096
230.896552,,0.0,231.107,0.5450000166893005,-2.4106712131261374
231.362069,,0.0,231.569,0.5090000033378601,-2.489056378324781
231.827586,,0.0,232.035,0.5130000114440918,-2.4803570468746075
232.293103,,0.0,232.505,0.5199999809265137,-2.465182781939503
232.758621,,0.0,232.97,0.5109999775886536,-2.4849247689673306
233.224138,,0.0,233.429,0.5120000243186951,-2.48293368018609
233.689655,,0.0,233.894,0.5260000228881836,-2.4526674654875147
234.155172,,0.0,234.359,0.5329999923706055,-2.4376908200689766
234.62069,,0.0,234.825,0.5400000214576721,-2.422743670528276
235.086207,,0.0,235.292,0.5370000004768372,-2.4296029382607958
235.55172399999998,,0.0,235.758,0.5260000228881836,-2.4539013579237725
236.01724099999998,,0.0,236.225,0.5379999876022339,-2.4280911352093186
236.482759,,0.0,236.688,0.515999972820282,-2.47634525529527
236.94827600000002,,0.0,237.151,0.5270000100135803,-2.4526849253708494
237.413793,,0.0,237.614,0.515999972820282,-2.476927379897468
237.87931,,0.0,238.084,0.5070000290870667,-2.496777002726266
238.344828,,0.0,238.547,0.5170000195503235,-2.4751905380118218
238.810345,,0.0,239.012,0.5070000290870667,-2.497129478986668
239.27586200000002,,0.0,239.476,0.5239999890327454,-2.4601931613398795
239.741379,,0.0,239.942,0.5210000276565552,-2.466774833403633
240.206897,,0.0,240.406,0.5019999742507935,-2.508159487138469
240.672414,,0.0,240.872,0.515999972820282,-2.477594234974264
241.137931,,0.0,241.337,0.5400000214576721,-2.425189734609412
241.603448,,0.0,241.803,0.5419999957084656,-2.4206657316257663
242.068966,,0.0,242.27,0.5339999794960022,-2.437883271581746
242.534483,,0.0,242.735,0.5180000066757202,-2.4724922829108555
243.0,,0.0,243.196,0.5419999957084656,-2.4199259203426196
243.465517,,0.0,243.666,0.5339999794960022,-2.437055088317069
243.93103399999998,,0.0,244.129,0.5230000019073486,-2.4607081916085494
244.39655199999999,,0.0,244.592,0.5370000004768372,-2.4298930624857116
244.862069,,0.0,245.062,0.5339999794960022,-2.436122267454283
245.327586,,0.0,245.525,0.5210000276565552,-2.4641544478116724
245.793103,,0.0,245.99,0.5090000033378601,-2.490034251472542
246.258621,,0.0,246.456,0.5410000085830688,-2.4200874711236464
246.724138,,0.0,246.914,0.5419999957084656,-2.4177186388833323
247.18965500000002,,0.0,247.381,0.5120000243186951,-2.4829330230507014
247.655172,,0.0,247.847,0.5419999957084656,-2.4174783687154413
248.12069,,0.0,248.311,0.527999997138977,-2.447936229313248
248.586207,,0.0,248.777,0.5180000066757202,-2.4697325639403283
249.051724,,0.0,249.24,0.5139999985694885,-2.478510143435809
249.517241,,0.0,249.709,0.5540000200271606,-2.3914774577809492
249.982759,,0.0,250.173,0.5120000243186951,-2.4831399305960833
250.44827600000002,,0.0,250.636,0.5339999794960022,-2.4354100506616634
250.913793,,0.0,251.099,0.5149999856948853,-2.4770396744282692
251.37931000000003,,0.0,251.569,0.5170000195503235,-2.472945424120106
251.844828,,0.0,252.035,0.5210000276565552,-2.464513713599523
252.31034499999998,,0.0,252.497,0.5,-2.5105594952429975
252.77586200000002,,0.0,252.962,0.5419999957084656,-2.4193523290476033
253.241379,,0.0,253.429,0.5339999794960022,-2.437069512968122
253.706897,,0.0,253.894,0.5139999985694885,-2.4809133734823314
254.172414,,0.0,254.359,0.5149999856948853,-2.478981324997717
254.63793099999998,,0.0,254.825,0.5419999957084656,-2.4203724481276803
255.10344800000001,,0.0,255.284,0.515999972820282,-2.4771932562035706
255.56896600000002,,0.0,255.75,0.5210000276565552,-2.466432237302328
256.03448299999997,,0.0,256.218,0.5339999794960022,-2.4381950400911854
256.5,,0.0,256.68,0.5339999794960022,-2.4382301331662686
256.965517,,0.0,257.148,0.5099999904632568,-2.49050225512254
257.431034,,0.0,257.61,0.5230000019073486,-2.4621153543535494
257.896552,,0.0,258.081,0.5490000247955322,-2.405358829605108
258.362069,,0.0,258.543,0.5400000214576721,-2.4248106794262716
258.827586,,0.0,259.009,0.5419999957084656,-2.4202580115510446
259.29310300000003,,0.0,259.473,0.5260000228881836,-2.4548882603147244
259.758621,,0.0,259.939,0.5130000114440918,-2.482958152289312
260.224138,,0.0,260.399,0.5440000295639038,-2.4151511792316027
260.689655,,0.0,260.865,0.5139999985694885,-2.4802338079732915
261.155172,,0.0,261.329,0.5170000195503235,-2.473421934723368
261.62068999999997,,0.0,261.795,0.5389999747276306,-2.4252254829662316
262.086207,,0.0,262.259,0.47600001096725464,-2.56223210580322
262.551724,,0.0,262.726,0.5180000066757202,-2.470507368993091
263.017241,,0.0,263.196,0.5210000276565552,-2.4637827209284033
263.482759,,0.0,263.658,0.5170000195503235,-2.4723461162867344
263.94827599999996,,0.0,264.126,0.5249999761581421,-2.454807387189159
264.413793,,0.0,264.588,0.5170000195503235,-2.472171247418724
264.87931,,0.0,265.054,0.5339999794960022,-2.435114754042003
265.34482799999995,,0.0,265.517,0.5260000228881836,-2.452569720985317
265.810345,,0.0,265.983,0.5230000019073486,-2.4591756960693703
266.27586199999996,,0.0,266.448,0.5230000019073486,-2.4592873880649004
266.741379,,0.0,266.914,0.5249999761581421,-2.4550796531461536
267.206897,,0.0,267.381,0.5189999938011169,-2.468333841806825
267.672414,,0.0,267.839,0.5210000276565552,-2.464185796451788
268.137931,,0.0,268.311,0.5339999794960022,-2.4360928364274352
268.603448,,0.0,268.769,0.5299999713897705,-2.445049150447205
269.06896600000005,,0.0,269.237,0.5260000228881836,-2.4540100867889243
269.53448299999997,,0.0,269.699,0.5450000166893005,-2.412859244622336
270.0,,0.0,270.17,0.5090000033378601,-2.4915237999307953
270.465517,,0.0,270.633,0.5170000195503235,-2.474311268944406
270.931034,,0.0,271.1,0.5210000276565552,-2.4657908071490406
271.396552,,0.0,271.562,0.5080000162124634,-2.4942791847390637
271.86206899999996,,0.0,272.028,0.5400000214576721,-2.424695160538927
272.327586,,0.0,272.491,0.6299999952316284,-2.228710108544154
272.793103,,0.0,272.956,0.5379999876022339,-2.429195159038779
273.258621,,0.0,273.421,0.515999972820282,-2.477132096858253
273.724138,,0.0,273.887,0.5410000085830688,-2.4226323582821863
274.18965499999996,,0.0,274.351,0.5049999952316284,-2.500992205914522
274.655172,,0.0,274.816,0.5339999794960022,-2.4377049798451846
275.12069,,0.0,275.281,0.5249999761581421,-2.457175187030663
275.586207,,0.0,275.747,0.5400000214576721,-2.4243307961451084
276.051724,,0.0,276.215,0.5260000228881836,-2.4546458136756026
276.517241,,0.0,276.677,0.5329999923706055,-2.439193954284312
276.98275900000004,,0.0,277.14,0.5109999775886536,-2.486914436257783
277.448276,,0.0,277.61,0.5220000147819519,-2.4627379910850387
277.913793,,0.0,278.07,0.5170000195503235,-2.473425179568379
278.37931,,0.0,278.539,0.5210000276565552,-2.464515759573334
278.844828,,0.0,279.005,0.5529999732971191,-2.394620557184793
279.31034500000004,,0.0,279.469,0.5149999856948853,-2.4772514140523008
279.77586199999996,,0.0,279.935,0.5299999713897705,-2.4444395541204047
280.241379,,0.0,280.399,0.515999972820282,-2.474837996676654
280.706897,,0.0,280.865,0.5440000295639038,-2.413764759206915
281.172414,,0.0,281.329,0.5120000243186951,-2.483443589121112
281.637931,,0.0,281.795,0.5239999890327454,-2.4572957654013083
282.10344799999996,,0.0,282.26,0.5220000147819519,-2.461682301979891
282.568966,,0.0,282.725,0.531000018119812,-2.4421351823683106
283.034483,,0.0,283.188,0.5440000295639038,-2.413901766252191
283.5,,0.0,283.651,0.5299999713897705,-2.4445165867277097
283.965517,,0.0,284.114,0.5170000195503235,-2.4729735864210816
284.431034,,0.0,284.584,0.5199999809265137,-2.4665895810980607
284.89655200000004,,0.0,285.05,0.5260000228881836,-2.453681680228024
285.362069,,0.0,285.516,0.550000011920929,-2.401564457650881
285.827586,,0.0,285.974,0.515999972820282,-2.475809522544488
286.293103,,0.0,286.441,0.527999997138977,-2.4498325786764936
286.758621,,0.0,286.906,0.5009999871253967,-2.508814794445926
287.22413800000004,,0.0,287.373,0.531000018119812,-2.443601338452823
287.689655,,0.0,287.839,0.5329999923706055,-2.43937286435209
288.155172,,0.0,288.303,0.5199999809265137,-2.467802919354124
288.62069,,0.0,288.769,0.5130000114440918,-2.483137661649659
289.086207,,0.0,289.229,0.5400000214576721,-2.4243730945255733
289.55172400000004,,0.0,289.699,0.5419999957084656,-2.42004750041749
290.01724099999996,,0.0,290.159,0.515999972820282,-2.476696389660287
290.482759,,0.0,290.629,0.6000000238418579,-2.2936659930258605
290.948276,,0.0,291.092,0.5049999952316284,-2.5005868842902297
291.413793,,0.0,291.555,0.5339999794960022,-2.437331920782513
291.87931,,0.0,292.02,0.5170000195503235,-2.4742754010482195
292.344828,,0.0,292.484,0.5299999713897705,-2.445843658298624
292.81034500000004,,0.0,292.95,0.5339999794960022,-2.4370073437578403
293.275862,,0.0,293.414,0.5370000004768372,-2.4303410555396714
293.74137900000005,,0.0,293.88,0.5099999904632568,-2.4890303234926807
294.206897,,0.0,294.344,0.5419999957084656,-2.419179893081586
294.672414,,0.0,294.809,0.5239999890327454,-2.458266337602531
295.13793100000004,,0.0,295.274,0.5299999713897705,-2.4450733987445106
295.603448,,0.0,295.739,0.5249999761581421,-2.4558573694324286
296.068966,,0.0,296.207,0.5299999713897705,-2.444869607174859
296.534483,,0.0,296.669,0.5180000066757202,-2.47093603132234
297.0,,0.0,297.137,0.531000018119812,-2.4425553552208146
297.46551700000003,,0.0,297.6,0.5080000162124634,-2.492626380141145
297.931034,,0.0,298.07,0.527999997138977,-2.449036422428853
298.396552,,0.0,298.532,0.5289999842643738,-2.4468610054688216
298.862069,,0.0,298.998,0.5379999876022339,-2.427275016645645
299.327586,,0.0,299.463,0.5379999876022339,-2.427313650156951
299.79310300000003,,0.0,299.928,0.5329999923706055,-2.4382602329956846
300.258621,,0.0,300.393,0.5199999809265137,-2.4666488408703477
300.724138,,0.0,300.858,0.5339999794960022,-2.4362243685431446
301.189655,,0.0,301.325,0.5230000019073486,-2.460273615084177
301.65517200000005,,0.0,301.791,0.5419999957084656,-2.418967817869593
302.12069,,0.0,302.255,0.6079999804496765,-2.275265207795162
302.586207,,0.0,302.714,0.5400000214576721,-2.4234968638774874
303.05172400000004,,0.0,303.185,0.5249999761581421,-2.4562549231439004
303.517241,,0.0,303.647,0.515999972820282,-2.4759356250343587
303.982759,,0.0,304.11,0.5370000004768372,-2.4302499321856246
304.448276,,0.0,304.58,0.5170000195503235,-2.473880389847426
304.913793,,0.0,305.046,0.5239999890327454,-2.458678115406054
305.37931000000003,,0.0,305.509,0.5299999713897705,-2.445644447201971
305.844828,,0.0,305.975,0.5130000114440918,-2.4827091703384827
306.310345,,0.0,306.44,0.5170000195503235,-2.474012327464965
306.775862,,0.0,306.906,0.5210000276565552,-2.465305820514292
307.241379,,0.0,307.37,0.5379999876022339,-2.428267258501098
307.70689699999997,,0.0,307.836,0.5669999718666077,-2.3650746047681293
308.172414,,0.0,308.295,0.44600000977516174,-2.628670820580459
308.637931,,0.0,308.761,0.5210000276565552,-2.465247161817013
309.103448,,0.0,309.229,0.5450000166893005,-2.4129301381142545
309.568966,,0.0,309.691,0.531000018119812,-2.443396277754918
310.034483,,0.0,310.159,0.5270000100135803,-2.45207176348913
310.5,,0.0,310.621,0.5189999938011169,-2.469459402308514
310.96551700000003,,0.0,311.089,0.5139999985694885,-2.480310157316868
311.431034,,0.0,311.551,0.5239999890327454,-2.458481455099346
311.896552,,0.0,312.017,0.5109999775886536,-2.4867627501974114
312.362069,,0.0,312.483,0.5210000276565552,-2.464936845651024
312.827586,,0.0,312.949,0.5230000019073486,-2.4605425293472667
313.29310300000003,,0.0,313.41,0.5289999842643738,-2.447435835549414
313.758621,,0.0,313.876,0.550000011920929,-2.4016511551261392
314.224138,,0.0,314.341,0.5009999871253967,-2.50837411264551
314.689655,,0.0,314.807,0.5379999876022339,-2.427736170207637
315.155172,,0.0,315.273,0.5130000114440918,-2.4821775181034167
315.62068999999997,,0.0,315.739,0.515999972820282,-2.475620149813553
316.086207,,0.0,316.199,0.5130000114440918,-2.4821382578689537
316.551724,,0.0,316.669,0.5339999794960022,-2.436372319984066
317.017241,,0.0,317.129,0.5,-2.510435227955021
317.482759,,0.0,317.599,0.5249999761581421,-2.455961569462333
317.94827599999996,,0.0,318.062,0.5329999923706055,-2.438528038054281
318.413793,,0.0,318.525,0.5199999809265137,-2.4668488776375663
318.87931000000003,,0.0,318.99,0.5440000295639038,-2.414562224272197
319.344828,,0.0,319.456,0.5230000019073486,-2.460317522404282
319.810345,,0.0,319.922,0.5139999985694885,-2.479932301035361
320.275862,,0.0,320.388,0.5540000200271606,-2.3927968009254355
320.741379,,0.0,320.854,0.5149999856948853,-2.4777779938186812
321.20689699999997,,0.0,321.318,0.5120000243186951,-2.4843320085013145
321.672414,,0.0,321.785,0.546999990940094,-2.408102294138502
322.137931,,0.0,322.247,0.5239999890327454,-2.458238271747779
322.603448,,0.0,322.71,0.5130000114440918,-2.4822349748991064
323.068966,,0.0,323.177,0.5120000243186951,-2.4844505483831187
323.53448299999997,,0.0,323.64,0.5339999794960022,-2.436562187565858
324.0,,0.0,324.111,0.48399999737739563,-2.545540913703397
324.465517,,0.0,324.573,0.5320000052452087,-2.4410163115451105
324.931034,,0.0,325.039,0.5299999713897705,-2.445426685236007
325.396552,,0.0,325.502,0.5130000114440918,-2.4825173210687166
325.86206899999996,,0.0,325.967,0.5189999938011169,-2.469499012286463
326.327586,,0.0,326.433,0.5199999809265137,-2.467372347578791
326.793103,,0.0,326.899,0.515999972820282,-2.476135615956686
327.258621,,0.0,327.359,0.5419999957084656,-2.4195339944025553
327.724138,,0.0,327.824,0.574999988079071,-2.3476733786000743
328.189655,,0.0,328.296,0.5419999957084656,-2.4195924838912024
328.655172,,0.0,328.754,0.5379999876022339,-2.428319217551367
329.12068999999997,,0.0,329.225,0.5270000100135803,-2.4522849625410443
329.586207,,0.0,329.688,0.5130000114440918,-2.4827754175665353
330.051724,,0.0,330.155,0.5370000004768372,-2.430465946705974
330.517241,,0.0,330.618,0.5370000004768372,-2.4304321338901533
330.982759,,0.0,331.081,0.6489999890327454,-2.1863755649823675
331.44827599999996,,0.0,331.551,0.5400000214576721,-2.423785058014957
331.913793,,0.0,332.009,0.5289999842643738,-2.4476754608929716
332.37931,,0.0,332.48,0.5199999809265137,-2.4672014832063756
332.844828,,0.0,332.939,0.5370000004768372,-2.4300780489141283
333.310345,,0.0,333.404,0.5299999713897705,-2.4452398827331914
333.77586199999996,,0.0,333.869,0.5090000033378601,-2.490903168081055
334.241379,,0.0,334.336,0.5389999747276306,-2.4254589442132977
334.706897,,0.0,334.802,0.5299999713897705,-2.4449874588972755
335.17241399999995,,0.0,335.266,0.5260000228881836,-2.4536303938499873
335.637931,,0.0,335.732,0.5199999809265137,-2.4666413392206623
336.103448,,0.0,336.195,0.5220000147819519,-2.462235720747966
336.56896600000005,,0.0,336.665,0.527999997138977,-2.4491300135708527
337.034483,,0.0,337.126,0.515999972820282,-2.475255638042496
337.5,,0.0,337.595,0.5059999823570251,-2.4970408679473826
337.965517,,0.0,338.059,0.5149999856948853,-2.477449494428893
338.431034,,0.0,338.521,0.5249999761581421,-2.4556966378707985
338.89655200000004,,0.0,338.987,0.5139999985694885,-2.4797113664605797
339.36206899999996,,0.0,339.451,0.5210000276565552,-2.4645252263121415
339.827586,,0.0,339.917,0.5260000228881836,-2.453709385541827
340.293103,,0.0,340.384,0.49399998784065247,-2.5235146657176997
340.758621,,0.0,340.85,0.5299999713897705,-2.4451806710857737
341.224138,,0.0,341.314,0.5440000295639038,-2.414781828371524
341.68965499999996,,0.0,341.78,0.515999972820282,-2.475887806962431
342.155172,,0.0,342.24,0.5400000214576721,-2.4237023279806613
342.62069,,0.0,342.71,0.492000013589859,-2.5283756887240445
343.086207,,0.0,343.173,0.5419999957084656,-2.4195348289752947
343.551724,,0.0,343.636,0.515999972820282,-2.476261372219067
344.01724099999996,,0.0,344.099,0.5419999957084656,-2.419685078460623
344.48275900000004,,0.0,344.569,0.5270000100135803,-2.452418038138962
344.948276,,0.0,345.035,0.5540000200271606,-2.393630184998979
345.413793,,0.0,345.498,0.5299999713897705,-2.445934539089223
345.87931,,0.0,345.963,0.5109999775886536,-2.4873266443219983
346.344828,,0.0,346.43,0.5299999713897705,-2.44591200250721
346.81034500000004,,0.0,346.895,0.5199999809265137,-2.467660392024685
347.275862,,0.0,347.355,0.5410000085830688,-2.4218535173506455
347.741379,,0.0,347.821,0.5210000276565552,-2.46535551820107
348.206897,,0.0,348.285,0.5090000033378601,-2.491415289213269
348.672414,,0.0,348.751,0.5429999828338623,-2.417246695241675
349.13793100000004,,0.0,349.218,0.5440000295639038,-2.414964593680808
349.60344799999996,,0.0,349.68,0.5299999713897705,-2.445356332120217
350.068966,,0.0,350.151,0.5379999876022339,-2.4278151561510297
350.534483,,0.0,350.614,0.5289999842643738,-2.447312138514662
351.0,,0.0,351.077,0.5299999713897705,-2.445027314413445
351.465517,,0.0,351.54,0.5419999957084656,-2.4187851439696226
351.93103399999995,,0.0,352.005,0.5519999861717224,-2.3969106627403387
352.396552,,0.0,352.473,0.5239999890327454,-2.457837892763956
352.862069,,0.0,352.939,0.5339999794960022,-2.4359926877997515
353.32758600000005,,0.0,353.404,0.5299999713897705,-2.4446669961094702
353.793103,,0.0,353.869,0.5149999856948853,-2.477326503829036
354.258621,,0.0,354.329,0.5090000033378601,-2.4903998284214306
354.72413800000004,,0.0,354.795,0.5130000114440918,-2.4817088934446203
355.189655,,0.0,355.26,0.5299999713897705,-2.4447168632875993
355.655172,,0.0,355.726,0.5239999890327454,-2.457852968986061
356.12069,,0.0,356.196,0.5070000290870667,-2.4949717843651986
356.586207,,0.0,356.658,0.5299999713897705,-2.44496026407262
357.05172400000004,,0.0,357.121,0.531000018119812,-2.4428906287108036
357.517241,,0.0,357.584,0.5630000233650208,-2.373290300905095
357.982759,,0.0,358.05,0.5389999747276306,-2.425697385686084
358.448276,,0.0,358.516,0.527999997138977,-2.449781617889303
358.913793,,0.0,358.981,0.5149999856948853,-2.478220391516944
359.37931000000003,,0.0,359.448,0.5170000195503235,-2.473973548087906
359.844828,,0.0,359.914,0.5329999923706055,-2.4392163793978403
360.310345,,0.0,360.381,0.5440000295639038,-2.415338909169101
360.775862,,0.0,360.839,0.5339999794960022,-2.437196545353977
361.241379,,0.0,361.31,0.515999972820282,-2.4764648102188374
361.706897,,0.0,361.769,0.515999972820282,-2.4764980772925647
362.172414,,0.0,362.236,0.5210000276565552,-2.465617813916066
362.63793100000004,,0.0,362.699,0.531000018119812,-2.443823392345645
363.103448,,0.0,363.166,0.515999972820282,-2.4764741640063956
363.568966,,0.0,363.635,0.5170000195503235,-2.4742463580579277
364.034483,,0.0,364.096,0.5130000114440918,-2.4828936248165356
364.5,,0.0,364.566,0.5270000100135803,-2.4523086962279788
364.96551700000003,,0.0,365.024,0.5080000162124634,-2.493605019616316
365.431034,,0.0,365.495,0.5199999809265137,-2.4673522441117415
365.896552,,0.0,365.96,0.5389999747276306,-2.4258405605488726
366.362069,,0.0,366.426,0.5329999923706055,-2.438789419937301
366.827586,,0.0,366.884,0.5249999761581421,-2.45609373948429
367.29310300000003,,0.0,367.352,0.5289999842643738,-2.44725645251119
367.758621,,0.0,367.817,0.5099999904632568,-2.488534479086227
368.224138,,0.0,368.285,0.5210000276565552,-2.4644633852853146
368.689655,,0.0,368.75,0.527999997138977,-2.4491205867685037
369.155172,,0.0,369.211,0.527999997138977,-2.4490442664593104
369.62068999999997,,0.0,369.68,0.527999997138977,-2.4489862699782954
370.086207,,0.0,370.144,0.5189999938011169,-2.4685565381558474
370.55172400000004,,0.0,370.607,0.5149999856948853,-2.4772557122713805
371.017241,,0.0,371.07,0.5289999842643738,-2.446762024709603
371.482759,,0.0,371.54,0.515999972820282,-2.475114459791493
371.948276,,0.0,372.005,0.550000011920929,-2.4010916745356945
372.413793,,0.0,372.47,0.5210000276565552,-2.4643433527667518
372.87931000000003,,0.0,372.936,0.5210000276565552,-2.464432203279382
373.344828,,0.0,373.395,0.5130000114440918,-2.4819663909630116
373.810345,,0.0,373.861,0.5419999957084656,-2.4189033484413955
374.275862,,0.0,374.325,0.503000020980835,-2.5039974585182327
374.741379,,0.0,374.791,0.5149999856948853,-2.4779865744097664
375.20689699999997,,0.0,375.255,0.5170000195503235,-2.4737642272431994
375.672414,,0.0,375.721,0.5460000038146973,-2.410715656675478
376.137931,,0.0,376.189,0.5210000276565552,-2.465306499072806
376.603448,,0.0,376.651,0.527999997138977,-2.450169501092417
377.068966,,0.0,377.114,0.5139999985694885,-2.4807697912147506
377.53448299999997,,0.0,377.584,0.5379999876022339,-2.4285639542861754
378.0,,0.0,378.05,0.5170000195503235,-2.4743768749112296
378.465517,,0.0,378.509,0.5389999747276306,-2.426485578529268
378.931034,,0.0,378.975,0.5260000228881836,-2.4548228041674682
379.396552,,0.0,379.44,0.5329999923706055,-2.439562556545826
379.862069,,0.0,379.906,0.5210000276565552,-2.4656722074379815
380.327586,,0.0,380.37,0.5230000019073486,-2.4612578024377294
380.79310300000003,,0.0,380.835,0.515999972820282,-2.4764300544589837
381.258621,,0.0,381.303,0.515999972820282,-2.4763330042440623
381.724138,,0.0,381.769,0.5270000100135803,-2.452254807533235
382.189655,,0.0,382.232,0.531000018119812,-2.443414146143764
382.655172,,0.0,382.695,0.5260000228881836,-2.4541717597455484
383.12068999999997,,0.0,383.166,0.5139999985694885,-2.4801748264428554
383.586207,,0.0,383.628,0.5230000019073486,-2.4604256849223196
384.051724,,0.0,384.092,0.5170000195503235,-2.4733600360113206
384.517241,,0.0,384.554,0.5410000085830688,-2.4209425656429637
384.982759,,0.0,385.02,0.5239999890327454,-2.457860855937634
385.44827599999996,,0.0,385.484,0.5249999761581421,-2.4555784345340355
385.913793,,0.0,385.95,0.5189999938011169,-2.468565146914942
386.37931,,0.0,386.414,0.5529999732971191,-2.3944269244764573
386.84482799999995,,0.0,386.88,0.5109999775886536,-2.48588868259799
387.310345,,0.0,387.344,0.5329999923706055,-2.4379415377128515
387.775862,,0.0,387.81,0.49399998784065247,-2.5229181161402807
388.241379,,0.0,388.274,0.5320000052452087,-2.440164975675117
388.70689699999997,,0.0,388.74,0.49000000953674316,-2.5317292893365666
389.172414,,0.0,389.21,0.5339999794960022,-2.4359536243034228
389.637931,,0.0,389.672,0.5210000276565552,-2.464381449305206
390.103448,,0.0,390.14,0.515999972820282,-2.4753975474420136
390.56896600000005,,0.0,390.603,0.5440000295639038,-2.4145314111044973
391.03448299999997,,0.0,391.066,0.5440000295639038,-2.4146759147884866
391.5,,0.0,391.529,0.48899999260902405,-2.53465065854321
391.965517,,0.0,391.995,0.5299999713897705,-2.4454762470897107
392.431034,,0.0,392.459,0.5540000200271606,-2.393334360113781
392.896552,,0.0,392.926,0.5370000004768372,-2.430507038838817
393.36206899999996,,0.0,393.392,0.5299999713897705,-2.445879199848702
393.827586,,0.0,393.857,0.5099999904632568,-2.4895568848938416
394.293103,,0.0,394.321,0.5419999957084656,-2.4199250932466874
394.75862099999995,,0.0,394.787,0.5210000276565552,-2.465738844976327
395.224138,,0.0,395.253,0.5180000066757202,-2.472312517205742
395.68965499999996,,0.0,395.719,0.5109999775886536,-2.487575722164991
396.155172,,0.0,396.181,0.5139999985694885,-2.4810270329458355
396.62069,,0.0,396.651,0.5239999890327454,-2.45920266961551
397.086207,,0.0,397.114,0.49000000953674316,-2.533214823399786
397.551724,,0.0,397.577,0.515999972820282,-2.4764864709997827
398.017241,,0.0,398.042,0.5429999828338623,-2.417559183303671
398.48275900000004,,0.0,398.506,0.5419999957084656,-2.419615349994227
398.94827599999996,,0.0,398.972,0.5400000214576721,-2.4238345455633192
399.413793,,0.0,399.436,0.515999972820282,-2.475973228393244
399.87931,,0.0,399.901,0.527999997138977,-2.4496746086602372
400.344828,,0.0,400.367,0.527999997138977,-2.4495187472648476
400.810345,,0.0,400.832,0.5419999957084656,-2.418864980401574
401.27586199999996,,0.0,401.299,0.5320000052452087,-2.4405063179164346
401.741379,,0.0,401.765,0.515999972820282,-2.4752321268144106
402.206897,,0.0,402.226,0.527999997138977,-2.4489728652840417
402.672414,,0.0,402.695,0.5210000276565552,-2.4641288208917365
403.137931,,0.0,403.158,0.5419999957084656,-2.4183063346532014
403.60344799999996,,0.0,403.621,0.5170000195503235,-2.472727366771481
404.068966,,0.0,404.089,0.515999972820282,-2.4748889001837777
404.534483,,0.0,404.551,0.503000020980835,-2.503223432275401
405.0,,0.0,405.017,0.531000018119812,-2.4422626620385497
405.465517,,0.0,405.483,0.515999972820282,-2.4750114651007835
405.931034,,0.0,405.949,0.5339999794960022,-2.4358900085536654
406.39655200000004,,0.0,406.414,0.531000018119812,-2.442542280394917
406.862069,,0.0,406.879,0.515999972820282,-2.4753572772483325
407.327586,,0.0,407.344,0.5170000195503235,-2.4733289750546747
407.793103,,0.0,407.81,0.5400000214576721,-2.4233810265572875
408.258621,,0.0,408.274,0.5249999761581421,-2.456226875831989
408.72413800000004,,0.0,408.739,0.531000018119812,-2.443320856206139
409.18965499999996,,0.0,409.2,0.5270000100135803,-2.4521964224469883
409.655172,,0.0,409.669,0.5139999985694885,-2.480670136532941
410.12069,,0.0,410.133,0.5260000228881836,-2.4546634787433637
410.586207,,0.0,410.595,0.5260000228881836,-2.454782096302211
411.05172400000004,,0.0,411.059,0.5049999952316284,-2.5006302498036703
411.51724099999996,,0.0,411.529,0.5389999747276306,-2.4266275642117163
411.982759,,0.0,411.994,0.5109999775886536,-2.4876732463736784
412.448276,,0.0,412.458,0.5149999856948853,-2.4789731200446377
412.913793,,0.0,412.924,0.5210000276565552,-2.46588621137732
413.37931,,0.0,413.389,0.5049999952316284,-2.5007005717882262
413.844828,,0.0,413.854,0.5419999957084656,-2.420018186802221
414.31034500000004,,0.0,414.319,0.5419999957084656,-2.4199184652858303
414.775862,,0.0,414.784,0.5540000200271606,-2.39364949472451
415.241379,,0.0,415.247,0.515999972820282,-2.4762917209372426
415.706897,,0.0,415.71,0.492000013589859,-2.5284173381362027
416.172414,,0.0,416.181,0.5120000243186951,-2.484673302392678
416.63793100000004,,0.0,416.643,0.5170000195503235,-2.4736047080771764
417.103448,,0.0,417.111,0.5339999794960022,-2.436392537410868
417.568966,,0.0,417.573,0.5419999957084656,-2.418792716699609
418.034483,,0.0,418.039,0.5270000100135803,-2.451311407199833
418.5,,0.0,418.501,0.5170000195503235,-2.4729520839005286
418.96551700000003,,0.0,418.967,0.5170000195503235,-2.4728267896292904
419.43103399999995,,0.0,419.433,0.5040000081062317,-2.5010489046694713
419.896552,,0.0,419.898,0.5199999809265137,-2.466118605830872
420.362069,,0.0,420.363,0.5379999876022339,-2.4268609916109605
420.827586,,0.0,420.829,0.492000013589859,-2.5270682811755023
421.293103,,0.0,421.295,0.5099999904632568,-2.487875054988975
421.758621,,0.0,421.761,0.5210000276565552,-2.463964597630612
422.22413800000004,,0.0,422.221,0.5339999794960022,-2.4357268110612558
422.689655,,0.0,422.691,0.5339999794960022,-2.435837945188569
423.15517200000005,,0.0,423.151,0.5270000100135803,-2.4512227159533264
423.62069,,0.0,423.614,0.5210000276565552,-2.4644483799753414
424.086207,,0.0,424.081,0.515999972820282,-2.475510893063615
424.55172400000004,,0.0,424.544,0.5540000200271606,-2.392901082013897
425.017241,,0.0,425.01,0.5419999957084656,-2.419227175507373
425.482759,,0.0,425.481,0.531000018119812,-2.4433722383906966
425.948276,,0.0,425.939,0.5389999747276306,-2.4261158917944354
426.413793,,0.0,426.404,0.5460000038146973,-2.4110253944413906
426.87931000000003,,0.0,426.869,0.5339999794960022,-2.4373117108671933
427.344828,,0.0,427.341,0.5090000033378601,-2.491899244899456
427.810345,,0.0,427.799,0.5260000228881836,-2.4549596055665908
428.275862,,0.0,428.266,0.5630000233650208,-2.374419298312436
428.741379,,0.0,428.732,0.5139999985694885,-2.4812122459955983
429.20689699999997,,0.0,429.199,0.5249999761581421,-2.457255343400455
429.672414,,0.0,429.662,0.5289999842643738,-2.448518185871124
430.137931,,0.0,430.125,0.5299999713897705,-2.4462865447125792
430.603448,,0.0,430.595,0.515999972820282,-2.476705817401583
431.068966,,0.0,431.055,0.5419999957084656,-2.419952685441394
431.534483,,0.0,431.525,0.5210000276565552,-2.4655725107543596
432.0,,0.0,431.99,0.5090000033378601,-2.4915654771808886
432.46551700000003,,0.0,432.451,0.515999972820282,-2.476150131395217
432.931034,,0.0,432.916,0.515999972820282,-2.4759760651938305
433.396552,,0.0,433.381,0.49799999594688416,-2.515013720753774
433.862069,,0.0,433.847,0.5339999794960022,-2.4364056592706524
434.327586,,0.0,434.31,0.5049999952316284,-2.4994156280934012
434.79310300000003,,0.0,434.776,0.550000011920929,-2.4012159553642216
435.258621,,0.0,435.244,0.5339999794960022,-2.435928198233411
435.724138,,0.0,435.707,0.515999972820282,-2.4750162467028183
436.189655,,0.0,436.17,0.44699999690055847,-2.625239918438162
436.655172,,0.0,436.64,0.5419999957084656,-2.4181938933121616
437.12068999999997,,0.0,437.103,0.5410000085830688,-2.4203267463160234
437.586207,,0.0,437.566,0.5130000114440918,-2.4813117848519073
438.051724,,0.0,438.031,0.5210000276565552,-2.463895441599614
438.517241,,0.0,438.494,0.5009999871253967,-2.5075116282585515
438.982759,,0.0,438.959,0.5249999761581421,-2.4552962863129384
439.448276,,0.0,439.426,0.5260000228881836,-2.453216180896741
439.913793,,0.0,439.891,0.5249999761581421,-2.455516648025451
440.37931000000003,,0.0,440.359,0.515999972820282,-2.4752659299072954
440.844828,,0.0,440.824,0.5339999794960022,-2.4362072960577446
441.310345,,0.0,441.288,0.5360000133514404,-2.4320175471459544
441.775862,,0.0,441.754,0.5419999957084656,-2.4191185329996503
442.241379,,0.0,442.215,0.5180000066757202,-2.4715794179066575
442.70689699999997,,0.0,442.684,0.5320000052452087,-2.4412477642000736
443.172414,,0.0,443.147,0.515999972820282,-2.4762672095720175
443.637931,,0.0,443.61,0.5460000038146973,-2.41105545361914
444.103448,,0.0,444.081,0.5270000100135803,-2.452579756711219
444.568966,,0.0,444.543,0.5199999809265137,-2.4679392037028407
445.03448299999997,,0.0,445.009,0.5109999775886536,-2.487632531042319
445.5,,0.0,445.473,0.5239999890327454,-2.45937004665029
445.965517,,0.0,445.939,0.5180000066757202,-2.47247452019521
446.431034,,0.0,446.404,0.5260000228881836,-2.4550494663310873
446.896552,,0.0,446.87,0.515999972820282,-2.4768116813026766
447.36206899999996,,0.0,447.33,0.4729999899864197,-2.570442309627471
447.827586,,0.0,447.795,0.5249999761581421,-2.4570766656849026
448.29310300000003,,0.0,448.262,0.531000018119812,-2.4439048605220703
448.758621,,0.0,448.728,0.5239999890327454,-2.4590333389143493
449.224138,,0.0,449.196,0.5009999871253967,-2.5090017139097855
449.689655,,0.0,449.658,0.5299999713897705,-2.4456661981905374
450.155172,,0.0,450.122,0.5260000228881836,-2.454215439525102
450.62068999999997,,0.0,450.584,0.5199999809265137,-2.467115914653171
451.086207,,0.0,451.051,0.5360000133514404,-2.432084419166779
451.551724,,0.0,451.516,0.5260000228881836,-2.453700854050976
452.017241,,0.0,451.982,0.5249999761581421,-2.4557174522063305
452.482759,,0.0,452.447,0.5419999957084656,-2.4185306275362226
452.94827599999996,,0.0,452.913,0.5170000195503235,-2.4728636396216017
453.413793,,0.0,453.378,0.5149999856948853,-2.4771089823702073
453.87931,,0.0,453.844,0.515999972820282,-2.474843331040755
454.344828,,0.0,454.31,0.5339999794960022,-2.435567905525094
454.810345,,0.0,454.776,0.5529999732971191,-2.3941420042028714
455.27586199999996,,0.0,455.236,0.5400000214576721,-2.422461234725773
455.741379,,0.0,455.699,0.5540000200271606,-2.3919857755509972
456.206897,,0.0,456.17,0.5239999890327454,-2.457399589771669
456.672414,,0.0,456.633,0.5370000004768372,-2.4291595083087563
457.137931,,0.0,457.096,0.5370000004768372,-2.429268142956688
457.603448,,0.0,457.566,0.5170000195503235,-2.4729734078248207
458.06896600000005,,0.0,458.024,0.5120000243186951,-2.48402009446637
458.53448299999997,,0.0,458.494,0.515999972820282,-2.475476607688095
459.0,,0.0,458.96,0.5410000085830688,-2.4211936603991355
459.465517,,0.0,459.425,0.5429999828338623,-2.417025999730489
459.931034,,0.0,459.884,0.5419999957084656,-2.419394567572417
460.39655200000004,,0.0,460.355,0.5339999794960022,-2.4370088712032114
460.86206899999996,,0.0,460.82,0.5170000195503235,-2.474221359877833
461.327586,,0.0,461.285,0.5360000133514404,-2.4329883738714466
461.793103,,0.0,461.744,0.5320000052452087,-2.4418450303913533
462.258621,,0.0,462.214,0.5249999761581421,-2.4572140196411216
462.724138,,0.0,462.677,0.5130000114440918,-2.483449337687692
463.18965499999996,,0.0,463.14,0.5249999761581421,-2.4573678251104494
463.655172,,0.0,463.61,0.5329999923706055,-2.439968812807062
464.12069,,0.0,464.07,0.5210000276565552,-2.466109122578299
464.58620699999994,,0.0,464.539,0.5419999957084656,-2.420320043873956
465.051724,,0.0,465.005,0.5170000195503235,-2.474715085261889
465.517241,,0.0,465.47,0.5130000114440918,-2.483327115542975
465.98275900000004,,0.0,465.935,0.5120000243186951,-2.485374815705176
466.448276,,0.0,466.399,0.5210000276565552,-2.465610948519772
466.913793,,0.0,466.865,0.515999972820282,-2.4763270200290117
467.37931,,0.0,467.329,0.5299999713897705,-2.4456318200206897
467.844828,,0.0,467.795,0.5419999957084656,-2.4192816419078382
468.31034500000004,,0.0,468.26,0.5379999876022339,-2.4277827719241833
468.77586199999996,,0.0,468.725,0.5210000276565552,-2.46460536886472
469.241379,,0.0,469.188,0.5139999985694885,-2.4796477858987243
469.706897,,0.0,469.65,0.515999972820282,-2.4750951682224205
470.172414,,0.0,470.118,0.5120000243186951,-2.483633047066429
470.63793100000004,,0.0,470.581,0.5220000147819519,-2.4616940163131154
471.10344799999996,,0.0,471.046,0.5099999904632568,-2.487713996441156
471.568966,,0.0,471.51,0.5249999761581421,-2.4549430552701885
472.034483,,0.0,471.976,0.531000018119812,-2.441815075438528
472.5,,0.0,472.441,0.5289999842643738,-2.446153318609221
472.965517,,0.0,472.907,0.4690000116825104,-2.5768921024700937
473.43103399999995,,0.0,473.373,0.5419999957084656,-2.4179105072381533
473.89655200000004,,0.0,473.839,0.5180000066757202,-2.4702952900731274
474.362069,,0.0,474.304,0.4909999966621399,-2.5292511962035378
474.827586,,0.0,474.769,0.5210000276565552,-2.464056604666351
475.293103,,0.0,475.232,0.5249999761581421,-2.4555345272494185
475.758621,,0.0,475.694,0.531000018119812,-2.4426762599050873
476.22413800000004,,0.0,476.162,0.527999997138977,-2.4494410488268143
476.689655,,0.0,476.625,0.5040000081062317,-2.5019664409546087
477.155172,,0.0,477.092,0.5199999809265137,-2.4673488174372666
477.62069,,0.0,477.555,0.515999972820282,-2.476299931095941
478.086207,,0.0,478.02,0.5669999718666077,-2.3654130387701295
478.55172400000004,,0.0,478.484,0.5189999938011169,-2.4701924786878093
479.01724099999996,,0.0,478.95,0.5189999938011169,-2.470371625690028
479.482759,,0.0,479.414,0.527999997138977,-2.4509130341170837
479.948276,,0.0,479.88,0.5379999876022339,-2.4292407794334054
480.413793,,0.0,480.348,0.5360000133514404,-2.4336730434000993
480.87931000000003,,0.0,480.813,0.5400000214576721,-2.4249915475374952
481.344828,,0.0,481.281,0.45100000500679016,-2.6188828320123547
481.810345,,0.0,481.739,0.5379999876022339,-2.429291703465855
482.275862,,0.0,482.207,0.5529999732971191,-2.3965222744515455
482.74137900000005,,0.0,482.67,0.5210000276565552,-2.466108755424043
483.206897,,0.0,483.14,0.5419999957084656,-2.4201904939429744
483.672414,,0.0,483.603,0.5540000200271606,-2.3938475579409073
484.13793100000004,,0.0,484.066,0.5540000200271606,-2.3936207959746816
484.603448,,0.0,484.529,0.5329999923706055,-2.4391247163254226
485.068966,,0.0,484.995,0.5540000200271606,-2.3931118489559826
485.534483,,0.0,485.463,0.5410000085830688,-2.421167311162186
486.0,,0.0,485.928,0.5249999761581421,-2.4557613264067
486.46551700000003,,0.0,486.389,0.5249999761581421,-2.4555082954857044
486.931034,,0.0,486.854,0.5460000038146973,-2.409522625082155
487.396552,,0.0,487.319,0.527999997138977,-2.4485301841876366
487.862069,,0.0,487.784,0.5249999761581421,-2.4548907288879853
488.327586,,0.0,488.258,0.5260000228881836,-2.4525752450277767
488.79310300000003,,0.0,488.717,0.5329999923706055,-2.4372310991452957
489.258621,,0.0,489.184,0.546999990940094,-2.406682059640463
489.724138,,0.0,489.647,0.5320000052452087,-2.43936099980453
490.189655,,0.0,490.111,0.5249999761581421,-2.454658909376826
490.655172,,0.0,490.581,0.4970000088214874,-2.5157564596740545
491.12069,,0.0,491.039,0.5149999856948853,-2.4766827635341517
491.586207,,0.0,491.51,0.5170000195503235,-2.4725096761284315
492.05172400000004,,0.0,491.975,0.5170000195503235,-2.4727305692307993
492.517241,,0.0,492.44,0.5419999957084656,-2.4185148787206745
492.982759,,0.0,492.906,0.5379999876022339,-2.4275012494073755
493.448276,,0.0,493.37,0.5339999794960022,-2.4365004893582314
493.913793,,0.0,493.829,0.5419999957084656,-2.419360246853703
494.37931000000003,,0.0,494.295,0.5149999856948853,-2.478468670704588
494.844828,,0.0,494.761,0.5360000133514404,-2.4329895210200116
495.310345,,0.0,495.229,0.5389999747276306,-2.426705169003753
495.775862,,0.0,495.692,0.5199999809265137,-2.4683220389844256
496.241379,,0.0,496.155,0.5109999775886536,-2.488117350179799
496.70689699999997,,0.0,496.625,0.515999972820282,-2.47737114425103
497.172414,,0.0,497.085,0.5260000228881836,-2.4556861512379577
497.637931,,0.0,497.555,0.5009999871253967,-2.5102051841551165
498.103448,,0.0,498.02,0.5130000114440918,-2.484063678296974
498.568966,,0.0,498.484,0.5199999809265137,-2.468764498191997
499.03448299999997,,0.0,498.95,0.5239999890327454,-2.4599505602057015
499.5,,0.0,499.414,0.5339999794960022,-2.438016195393821
499.96551700000003,,0.0,499.88,0.5389999747276306,-2.426929981285243
500.431034,,0.0,500.34,0.5429999828338623,-2.417982314517546
500.89655200000004,,0.0,500.805,0.5379999876022339,-2.428609041526718
501.362069,,0.0,501.27,0.5299999713897705,-2.445746453961524
501.827586,,0.0,501.736,0.5440000295639038,-2.414937003694587
502.293103,,0.0,502.199,0.5249999761581421,-2.4560161472868476
502.758621,,0.0,502.669,0.5419999957084656,-2.4186664968382146
503.224138,,0.0,503.13,0.5210000276565552,-2.4641180348592937
503.68965499999996,,0.0,503.599,0.5239999890327454,-2.457304501545079
504.15517200000005,,0.0,504.062,0.5139999985694885,-2.4788449155865635
504.62068999999997,,0.0,504.525,0.5170000195503235,-2.472102608508908
505.08620699999994,,0.0,504.99,0.5370000004768372,-2.4283694820694848
505.55172400000004,,0.0,505.455,0.5170000195503235,-2.4718332450351936
506.017241,,0.0,505.921,0.5239999890327454,-2.4565286018959975
506.48275899999993,,0.0,506.388,0.531000018119812,-2.4412809206308705
506.948276,,0.0,506.854,0.5339999794960022,-2.434804972078454
507.413793,,0.0,507.318,0.5139999985694885,-2.4784935453327934
507.87931,,0.0,507.783,0.527999997138977,-2.44816110333175
508.344828,,0.0,508.244,0.5270000100135803,-2.450556453478936
508.810345,,0.0,508.714,0.5540000200271606,-2.391990664327028
509.27586199999996,,0.0,509.177,0.5339999794960022,-2.4358542955675966
509.74137900000005,,0.0,509.64,0.5210000276565552,-2.4644918132121654
510.20689699999997,,0.0,510.107,0.5299999713897705,-2.445215125594057
510.67241399999995,,0.0,510.57,0.5019999742507935,-2.5065545808016796
511.13793100000004,,0.0,511.035,0.5460000038146973,-2.4110272205257646
511.603448,,0.0,511.506,0.5329999923706055,-2.439667772978735
512.0689659999999,,0.0,511.964,0.5270000100135803,-2.4530324104381216
512.534483,,0.0,512.429,0.5130000114440918,-2.483792513221559
513.0,,0.0,512.894,0.527999997138977,-2.4513301878851617
513.465517,,0.0,513.359,0.5339999794960022,-2.4384266415313847
513.931034,,0.0,513.825,0.531000018119812,-2.4450757196523742
514.396552,,0.0,514.292,0.5339999794960022,-2.438594002055274
514.862069,,0.0,514.757,0.5109999775886536,-2.4886962700608173
515.327586,,0.0,515.225,0.5139999985694885,-2.4820932741679456
515.793103,,0.0,515.687,0.527999997138977,-2.4514664732584768
516.258621,,0.0,516.155,0.5130000114440918,-2.483964815466356
516.724138,,0.0,516.618,0.5139999985694885,-2.4815545431825408
517.189655,,0.0,517.085,0.5299999713897705,-2.4464208733117547
517.655172,,0.0,517.547,0.515999972820282,-2.4766106057798463
518.1206900000001,,0.0,518.013,0.5400000214576721,-2.423984528828585
518.5862070000001,,0.0,518.477,0.5350000262260437,-2.4345219110642633
519.051724,,0.0,518.942,0.5339999794960022,-2.4363378567082097
519.517241,,0.0,519.406,0.515999972820282,-2.475195354304116
519.982759,,0.0,519.872,0.5249999761581421,-2.455245478886664
520.448276,,0.0,520.337,0.5329999923706055,-2.4375009010985345
520.9137929999999,,0.0,520.803,0.5130000114440918,-2.4807949977319903
521.37931,,0.0,521.27,0.5379999876022339,-2.426095489110673
521.844828,,0.0,521.729,0.5419999957084656,-2.417199987669328
522.310345,,0.0,522.196,0.5540000200271606,-2.390932890758574
522.7758620000001,,0.0,522.659,0.550000011920929,-2.3995857905753994
523.241379,,0.0,523.129,0.5659999847412109,-2.364729463242239
523.7068969999999,,0.0,523.591,0.5669999718666077,-2.362616692505251
524.172414,,0.0,524.063,0.5389999747276306,-2.4237475378542896
524.637931,,0.0,524.525,0.5690000057220459,-2.3585768555207953
525.103448,,0.0,524.99,0.5199999809265137,-2.4655751458889803
525.568966,,0.0,525.456,0.550000011920929,-2.400509610017458
526.034483,,0.0,525.914,0.5299999713897705,-2.4444181564697973
526.5,,0.0,526.381,0.5460000038146973,-2.4099268536417213
526.9655170000001,,0.0,526.846,0.574999988079071,-2.3471333647664965
527.4310340000001,,0.0,527.31,0.5630000233650208,-2.3736718714886025
527.8965519999999,,0.0,527.776,0.5709999799728394,-2.3566329806847026
528.362069,,0.0,528.244,0.5659999847412109,-2.367900073810177
528.827586,,0.0,528.707,0.5540000200271606,-2.394390167672327
529.293103,,0.0,529.17,0.550000011920929,-2.403413641612092
529.7586210000001,,0.0,529.64,0.5699999928474426,-2.3601023976063136
530.224138,,0.0,530.1,0.5820000171661377,-2.3341638776099685
530.689655,,0.0,530.57,0.5649999976158142,-2.371342720057705
531.155172,,0.0,531.036,0.4519999921321869,-2.617606017483437
531.62069,,0.0,531.499,0.5809999704360962,-2.3365696137316645
532.086207,,0.0,531.964,0.5830000042915344,-2.332151143747174
532.5517239999999,,0.0,532.431,0.5929999947547913,-2.3102315644680407
533.017241,,0.0,532.889,0.5789999961853027,-2.340530685971505
533.482759,,0.0,533.355,0.5669999718666077,-2.3664097492342715
533.9482760000001,,0.0,533.821,0.5759999752044678,-2.3464823244110957
534.413793,,0.0,534.288,0.6299999952316284,-2.2284689733872924
534.87931,,0.0,534.753,0.5889999866485596,-2.317390069309625
535.344828,,0.0,535.214,0.656000018119812,-2.170991067699049
535.810345,,0.0,535.684,0.6470000147819519,-2.190155162963103
536.275862,,0.0,536.147,0.6050000190734863,-2.2812140573262143
536.7413789999999,,0.0,536.61,0.5540000200271606,-2.391897001429545
537.206897,,0.0,537.078,0.5809999704360962,-2.3326775884316024
537.672414,,0.0,537.54,0.5960000157356262,-2.2996464821931477
538.137931,,0.0,538.006,0.5960000157356262,-2.299350453255849
538.6034480000001,,0.0,538.47,0.6399999856948853,-2.203258024245767
539.0689659999999,,0.0,538.936,0.6060000061988831,-2.2771712966745135
539.5344829999999,,0.0,539.4,0.6190000176429749,-2.2487654282755694
540.0,,0.0,539.866,0.6439999938011169,-2.194296532889117
540.465517,,0.0,540.332,0.6439999938011169,-2.194374526169019
540.931034,,0.0,540.798,0.6069999933242798,-2.2751422207389247
541.396552,,0.0,541.262,0.6449999809265137,-2.192587880814945
541.862069,,0.0,541.728,0.625,-2.2364652649592434
542.327586,,0.0,542.196,0.6669999957084656,-2.1453274508482103
542.7931030000001,,0.0,542.658,0.6290000081062317,-2.2285316978221514
543.258621,,0.0,543.122,0.6299999952316284,-2.226807441055361
543.7241379999999,,0.0,543.584,0.6579999923706055,-2.1662851873863325
544.189655,,0.0,544.05,0.609000027179718,-2.2735299299469736
544.655172,,0.0,544.515,0.671999990940094,-2.1367624855897613
545.12069,,0.0,544.981,0.6299999952316284,-2.228733912401666
545.5862070000001,,0.0,545.448,0.6660000085830688,-2.150736668663525
546.051724,,0.0,545.914,0.6600000262260437,-2.164194583333075
546.517241,,0.0,546.381,0.6700000166893005,-2.142733126022768
546.982759,,0.0,546.839,0.675000011920929,-2.1320929611965083
547.448276,,0.0,547.304,0.6779999732971191,-2.1257293770449084
547.9137929999999,,0.0,547.77,0.6389999985694885,-2.2107826633378127
548.3793099999999,,0.0,548.24,0.6759999990463257,-2.1301697268020163
548.844828,,0.0,548.702,0.6539999842643738,-2.1780072535549713
549.310345,,0.0,549.166,0.7129999995231628,-2.0492853320004807
549.775862,,0.0,549.629,0.6449999809265137,-2.1971674392538585
550.241379,,0.0,550.099,0.6600000262260437,-2.1641456730567477
550.706897,,0.0,550.562,0.6579999923706055,-2.1680959054939395
551.172414,,0.0,551.027,0.6949999928474426,-2.0870245939778718
551.637931,,0.0,551.49,0.7329999804496765,-2.003732189269047
552.103448,,0.0,551.956,0.6660000085830688,-2.1491697531703933
552.568966,,0.0,552.421,0.6660000085830688,-2.1486278552490936
553.034483,,0.0,552.887,0.6629999876022339,-2.1546300045587468
553.5,,0.0,553.352,0.6660000085830688,-2.147584925022251
553.965517,,0.0,553.818,0.6299999952316284,-2.2255486152080857
554.4310340000001,,0.0,554.285,0.6579999923706055,-2.1641356850892057
554.896552,,0.0,554.75,0.7170000076293945,-2.0352531829815255
555.3620689999999,,0.0,555.211,0.625,-2.2354254364800754
555.827586,,0.0,555.68,0.6470000147819519,-2.1873209777471834
556.293103,,0.0,556.14,0.6539999842643738,-2.171992496846396
556.758621,,0.0,556.61,0.5529999732971191,-2.3920584851266606
557.224138,,0.0,557.074,0.6759999990463257,-2.1242085700285234
557.689655,,0.0,557.536,0.6700000166893005,-2.137500040409228
558.155172,,0.0,558.002,0.6570000052452087,-2.1661294925794383
558.6206900000001,,0.0,558.469,0.6330000162124634,-2.218803321463464
559.0862070000001,,0.0,558.935,0.6340000033378601,-2.217079728845413
559.5517239999999,,0.0,559.399,0.656000018119812,-2.1696593252116827
560.017241,,0.0,559.865,0.6510000228881836,-2.1811009293112735
560.482759,,0.0,560.325,0.6449999809265137,-2.1947426687665925
560.948276,,0.0,560.791,0.6449999809265137,-2.1953164137903283
561.413793,,0.0,561.255,0.6579999923706055,-2.1675536287293253
561.87931,,0.0,561.721,0.6460000276565552,-2.1942251188337307
562.344828,,0.0,562.189,0.6159999966621399,-2.2600646387549075
562.8103450000001,,0.0,562.651,0.6460000276565552,-2.1951227846675594
563.275862,,0.0,563.114,0.6439999938011169,-2.1998216049626946
563.7413789999999,,0.0,563.584,0.6990000009536743,-2.08024843496858
564.206897,,0.0,564.05,0.6190000176429749,-2.2546950815256017
564.672414,,0.0,564.515,0.6190000176429749,-2.254748637443039
565.137931,,0.0,564.98,0.6100000143051147,-2.2743082983375436
565.603448,,0.0,565.44,0.6489999890327454,-2.189191592962158
566.068966,,0.0,565.906,0.6690000295639038,-2.14537017410654
566.534483,,0.0,566.37,0.6179999709129333,-2.2561407586747095
567.0,,0.0,566.836,0.6209999918937683,-2.249183338392022
567.465517,,0.0,567.303,0.6150000095367432,-2.261766567303144
567.931034,,0.0,567.769,0.6039999723434448,-2.285191075734712
568.396552,,0.0,568.229,0.6050000190734863,-2.2824364245316193
568.862069,,0.0,568.699,0.6000000238418579,-2.292736359199679
569.327586,,0.0,569.162,0.5960000157356262,-2.3008586165433504
569.793103,,0.0,569.625,0.5789999961853027,-2.3373229564488733
570.2586210000001,,0.0,570.096,0.6019999980926514,-2.286678715971331
570.724138,,0.0,570.558,0.5690000057220459,-2.3580927400736793
571.189655,,0.0,571.024,0.6079999804496765,-2.272712857975769
571.655172,,0.0,571.487,0.5730000138282776,-2.348634151524503
572.12069,,0.0,571.953,0.5799999833106995,-2.3331442310378616
572.586207,,0.0,572.418,0.574999988079071,-2.3438978182719667
573.051724,,0.0,572.883,0.5929999947547913,-2.3046463063395244
573.517241,,0.0,573.348,0.6079999804496765,-2.2720349035720937
573.982759,,0.0,573.813,0.5630000233650208,-2.370244355209215
574.4482760000001,,0.0,574.278,0.5839999914169312,-2.3247610098736042
574.913793,,0.0,574.743,0.5789999961853027,-2.3360123478873196
575.37931,,0.0,575.204,0.5799999833106995,-2.334270557638246
575.844828,,0.0,575.673,0.5820000171661377,-2.3304154047906973
576.310345,,0.0,576.136,0.6060000061988831,-2.2786795340447243
576.775862,,0.0,576.599,0.5669999718666077,-2.364230981048777
577.241379,,0.0,577.07,0.5669999718666077,-2.36483051881335
577.706897,,0.0,577.532,0.5720000267028809,-2.354534422141847
578.172414,,0.0,577.998,0.5730000138282776,-2.3529322294226236
578.6379310000001,,0.0,578.463,0.5540000200271606,-2.3948645949105147
579.1034480000001,,0.0,578.929,0.5440000295639038,-2.4171349648415683
579.5689659999999,,0.0,579.389,0.5400000214576721,-2.426265089766221
580.034483,,0.0,579.854,0.5299999713897705,-2.4483863008045215
580.5,,0.0,580.319,0.5659999847412109,-2.3701977356553274
580.965517,,0.0,580.784,0.5630000233650208,-2.376875651957757
581.431034,,0.0,581.259,0.574999988079071,-2.3507675752459574
581.896552,,0.0,581.717,0.5669999718666077,-2.368124208935176
582.362069,,0.0,582.185,0.5709999799728394,-2.359230542787857
582.827586,,0.0,582.647,0.5490000247955322,-2.406880718894874
583.2931030000001,,0.0,583.111,0.578000009059906,-2.3433273934494294
583.758621,,0.0,583.581,0.5509999990463257,-2.40169684196902
584.2241379999999,,0.0,584.039,0.550000011920929,-2.403353961421121
584.689655,,0.0,584.509,0.5730000138282776,-2.3526720492226505
585.155172,,0.0,584.974,0.5479999780654907,-2.4065309895749967
585.6206900000001,,0.0,585.441,0.5400000214576721,-2.4233375660271546
586.0862070000001,,0.0,585.899,0.5429999828338623,-2.4161838436752823
586.551724,,0.0,586.366,0.5699999928474426,-2.356765636505637
587.017241,,0.0,586.832,0.5339999794960022,-2.434643537642623
587.482759,,0.0,587.296,0.515999972820282,-2.473365209999449
587.948276,,0.0,587.761,0.5339999794960022,-2.433731297268035
588.4137929999999,,0.0,588.229,0.5400000214576721,-2.420329463769982
588.87931,,0.0,588.691,0.5270000100135803,-2.4484204089586785
589.344828,,0.0,589.159,0.5699999928474426,-2.354612167797029
589.810345,,0.0,589.622,0.5529999732971191,-2.3916310419774254
590.2758620000001,,0.0,590.085,0.5389999747276306,-2.422222929323034
590.741379,,0.0,590.554,0.5540000200271606,-2.389740897592638
591.2068969999999,,0.0,591.02,0.5170000195503235,-2.47065027866979
591.672414,,0.0,591.484,0.5400000214576721,-2.420933947407704
592.137931,,0.0,591.949,0.527999997138977,-2.4475518168044275
592.603448,,0.0,592.414,0.531000018119812,-2.4415567986922664
593.068966,,0.0,592.879,0.5230000019073486,-2.4595776716329714
593.534483,,0.0,593.344,0.5419999957084656,-2.418807387691337
594.0,,0.0,593.81,0.5299999713897705,-2.445588110068256
594.4655170000001,,0.0,594.27,0.5419999957084656,-2.420074192165151
594.9310340000001,,0.0,594.736,0.5299999713897705,-2.446821516796296
595.3965519999999,,0.0,595.199,0.5360000133514404,-2.4343079575402915
595.862069,,0.0,595.67,0.5220000147819519,-2.4653053048899123
596.327586,,0.0,596.133,0.5540000200271606,-2.3960069214928903
596.793103,,0.0,596.595,0.5180000066757202,-2.4747654683867317
597.2586210000001,,0.0,597.059,0.5370000004768372,-2.4335970776746807
597.724138,,0.0,597.529,0.5260000228881836,-2.4576798039160948
598.189655,,0.0,597.994,0.5299999713897705,-2.4489707016771938
598.655172,,0.0,598.459,0.5400000214576721,-2.427076615767461
599.12069,,0.0,598.926,0.5180000066757202,-2.474789538630764
599.586207,,0.0,599.385,0.5460000038146973,-2.4134665749522957
600.0517239999999,,0.0,599.851,0.5170000195503235,-2.4762326898191986
600.517241,,0.0,600.318,0.5339999794960022,-2.4386999461637933
600.982759,,0.0,600.783,0.5299999713897705,-2.44685269569344
601.448276,,0.0,601.244,0.546999990940094,-2.409204334390606
601.913793,,0.0,601.714,0.5370000004768372,-2.4303484584349997
602.37931,,0.0,602.177,0.5419999957084656,-2.4188015297564145
602.844828,,0.0,602.639,0.5189999938011169,-2.4682660442904334
603.310345,,0.0,603.111,0.5249999761581421,-2.4545796563105395
603.775862,,0.0,603.573,0.5070000290870667,-2.493230218217783
604.2413789999999,,0.0,604.039,0.5199999809265137,-2.4644102999805
604.706897,,0.0,604.501,0.5199999809265137,-2.4639955115631587
605.172414,,0.0,604.967,0.5389999747276306,-2.422281573603883
605.637931,,0.0,605.433,0.515999972820282,-2.472175849350404
606.1034480000001,,0.0,605.899,0.4830000102519989,-2.5439694564064173
606.5689659999999,,0.0,606.359,0.5170000195503235,-2.4699109288421495
607.0344829999999,,0.0,606.824,0.5210000276565552,-2.461328139186855
607.5,,0.0,607.296,0.5429999828338623,-2.413640904529336
607.965517,,0.0,607.754,0.5109999775886536,-2.483704100375244
608.431034,,0.0,608.221,0.503000020980835,-2.5015734397220557
608.896552,,0.0,608.684,0.5400000214576721,-2.4214842094589284
609.362069,,0.0,609.151,0.5230000019073486,-2.459105712249725
609.827586,,0.0,609.621,0.515999972820282,-2.474986462811959
610.293103,,0.0,610.081,0.531000018119812,-2.442963370994187
610.758621,,0.0,610.544,0.503000020980835,-2.5046287204854765
611.2241379999999,,0.0,611.009,0.5260000228881836,-2.4551692327663295
611.689655,,0.0,611.48,0.5109999775886536,-2.488464620641709
612.155172,,0.0,611.946,0.5090000033378601,-2.4933845758244186
612.62069,,0.0,612.411,0.49799999594688416,-2.5178426494216044
613.0862070000001,,0.0,612.869,0.4950000047683716,-2.524786781143232
613.551724,,0.0,613.336,0.5049999952316284,-2.5033110615986063
614.017241,,0.0,613.802,0.5429999828338623,-2.420724771197049
614.4827590000001,,0.0,614.266,0.5210000276565552,-2.468741122913902
614.948276,,0.0,614.732,0.4950000047683716,-2.5253536455624155
615.4137929999999,,0.0,615.195,0.5260000228881836,-2.4576659963429375
615.8793099999999,,0.0,615.665,0.5099999904632568,-2.4922618357143533
616.344828,,0.0,616.126,0.5049999952316284,-2.5027872580325656
616.810345,,0.0,616.595,0.503000020980835,-2.50668312040674
617.275862,,0.0,617.059,0.5210000276565552,-2.466926320789232
617.741379,,0.0,617.521,0.5149999856948853,-2.4793934782341864
618.206897,,0.0,617.987,0.5249999761581421,-2.4569566820736095
618.672414,,0.0,618.451,0.5009999871253967,-2.508568614837897
619.137931,,0.0,618.917,0.503000020980835,-2.5035318446623305
619.603448,,0.0,619.382,0.5199999809265137,-2.4658328003323473
620.068966,,0.0,619.847,0.5009999871253967,-2.5066025454475946
620.534483,,0.0,620.314,0.45899999141693115,-2.59753934484203
621.0,,0.0,620.78,0.5009999871253967,-2.505546526192868
621.465517,,0.0,621.24,0.5009999871253967,-2.505148326920893
621.9310340000001,,0.0,621.71,0.5009999871253967,-2.5048531240326275
622.396552,,0.0,622.17,0.48899999260902405,-2.5308141740883823
622.862069,,0.0,622.64,0.4959999918937683,-2.5154994790211496
623.327586,,0.0,623.103,0.5239999890327454,-2.454553287876043
623.793103,,0.0,623.566,0.4909999966621399,-2.526622661587833
624.258621,,0.0,624.031,0.503000020980835,-2.500766036180148
624.724138,,0.0,624.494,0.492000013589859,-2.525123322223539
625.189655,,0.0,624.959,0.5040000081062317,-2.4994645697986755
625.655172,,0.0,625.426,0.49399998784065247,-2.521814109472388
626.1206900000001,,0.0,625.891,0.49900001287460327,-2.5115445463896613
626.5862070000001,,0.0,626.359,0.5019999742507935,-2.5056738958594194
627.0517239999999,,0.0,626.825,0.49000000953674316,-2.53250380262445
627.5172409999999,,0.0,627.284,0.5070000290870667,-2.496152775522875
627.982759,,0.0,627.75,0.5019999742507935,-2.5077105109669717
628.448276,,0.0,628.218,0.5009999871253967,-2.5105111261995945
628.913793,,0.0,628.68,0.5040000081062317,-2.5045355326073557
629.37931,,0.0,629.144,0.492000013589859,-2.531160835838347
629.844828,,0.0,629.613,0.4880000054836273,-2.5402635671144447
630.3103450000001,,0.0,630.074,0.49799999594688416,-2.5187598442478145
630.7758620000001,,0.0,630.544,0.4950000047683716,-2.5254639841804005
631.2413789999999,,0.0,631.01,0.5139999985694885,-2.4841174964428268
631.706897,,0.0,631.473,0.49000000953674316,-2.536330610930683
632.172414,,0.0,631.939,0.492000013589859,-2.531779178006625
632.637931,,0.0,632.404,0.4950000047683716,-2.5249355486671012
633.103448,,0.0,632.87,0.5049999952316284,-2.502736762004596
633.568966,,0.0,633.33,0.4959999918937683,-2.5218399652241237
634.034483,,0.0,633.795,0.5009999871253967,-2.5103652305501045
634.5,,0.0,634.262,0.5049999952316284,-2.5010100037739766
634.9655170000001,,0.0,634.728,0.49000000953674316,-2.533009721217806
635.431034,,0.0,635.196,0.503000020980835,-2.5039890883153517
635.8965519999999,,0.0,635.658,0.503000020980835,-2.503294094171856
636.362069,,0.0,636.121,0.5299999713897705,-2.443799610425559
636.827586,,0.0,636.584,0.48899999260902405,-2.532497641859236
637.293103,,0.0,637.05,0.5109999775886536,-2.4840055157926573
637.7586210000001,,0.0,637.515,0.49000000953674316,-2.529277786144049
638.224138,,0.0,637.981,0.49000000953674316,-2.5288965085001505
638.689655,,0.0,638.448,0.49399998784065247,-2.5199110625545176
639.155172,,0.0,638.914,0.5239999890327454,-2.454398994241605
639.62069,,0.0,639.381,0.4950000047683716,-2.517549844665096
640.086207,,0.0,639.839,0.4860000014305115,-2.53725231040409
640.551724,,0.0,640.31,0.492000013589859,-2.5243976939309087
641.017241,,0.0,640.769,0.4909999966621399,-2.5269098749823384
641.482759,,0.0,641.236,0.503000020980835,-2.501205317441087
641.9482760000001,,0.0,641.699,0.47600001096725464,-2.5605606082651007
642.413793,,0.0,642.166,0.49000000953674316,-2.5306679160350267
642.87931,,0.0,642.636,0.49000000953674316,-2.531334184920856
643.344828,,0.0,643.099,0.531000018119812,-2.4427120442338106
643.810345,,0.0,643.562,0.5070000290870667,-2.4957154632591703
644.275862,,0.0,644.027,0.4819999933242798,-2.5508893927399092
644.7413789999999,,0.0,644.49,0.5120000243186951,-2.4862080784543337
645.206897,,0.0,644.956,0.4909999966621399,-2.532587244508395
645.672414,,0.0,645.422,0.5009999871253967,-2.511357950845968
646.1379310000001,,0.0,645.888,0.47699999809265137,-2.5641154282650978
646.6034480000001,,0.0,646.355,0.5090000033378601,-2.494766641918514
647.0689659999999,,0.0,646.82,0.5009999871253967,-2.51244969869502
647.534483,,0.0,647.285,0.5099999904632568,-2.492972899022176
648.0,,0.0,647.75,0.4860000014305115,-2.545264662863279
648.465517,,0.0,648.211,0.5120000243186951,-2.4884969425399444
648.931034,,0.0,648.681,0.4909999966621399,-2.5340022659736374
649.396552,,0.0,649.144,0.4959999918937683,-2.52274667657041
649.862069,,0.0,649.606,0.5,-2.5135648610547263
650.327586,,0.0,650.074,0.5080000162124634,-2.495577467667096
650.7931030000001,,0.0,650.536,0.4880000054836273,-2.538518482733615
651.258621,,0.0,651.002,0.503000020980835,-2.505152673192482
651.7241379999999,,0.0,651.467,0.503000020980835,-2.504433588195534
652.189655,,0.0,651.932,0.492000013589859,-2.527668794453622
652.655172,,0.0,652.399,0.515999972820282,-2.4746630919060553
653.12069,,0.0,652.864,0.5059999823570251,-2.4957649280459373
653.5862070000001,,0.0,653.329,0.5049999952316284,-2.4973137951863307
654.051724,,0.0,653.794,0.4790000021457672,-2.553404224243654
654.517241,,0.0,654.259,0.5,-2.507191506059724
654.982759,,0.0,654.724,0.45100000500679016,-2.6135927345014034
655.448276,,0.0,655.185,0.5130000114440918,-2.478283867178851
655.9137929999999,,0.0,655.655,0.49399998784065247,-2.5195720132808397
656.37931,,0.0,656.118,0.5049999952316284,-2.4956298337526004
656.844828,,0.0,656.581,0.5019999742507935,-2.502317541580304
657.310345,,0.0,657.046,0.49900001287460327,-2.5091293491068853
657.7758620000001,,0.0,657.51,0.503000020980835,-2.5008066788241496
658.241379,,0.0,657.976,0.5249999761581421,-2.4533720041114977
658.7068969999999,,0.0,658.44,0.5049999952316284,-2.497528357739923
659.172414,,0.0,658.905,0.5090000033378601,-2.4894674490750948
659.637931,,0.0,659.37,0.4959999918937683,-2.5184943269117874
660.103448,,0.0,659.835,0.4970000088214874,-2.5170494935810996
660.568966,,0.0,660.3,0.503000020980835,-2.5047183367034696
661.034483,,0.0,660.766,0.503000020980835,-2.5054428789643497
661.5,,0.0,661.229,0.49799999594688416,-2.5170220376460617
661.965517,,0.0,661.699,0.5049999952316284,-2.5023974265373705
662.4310340000001,,0.0,662.159,0.515999972820282,-2.4789784717980416
662.8965519999999,,0.0,662.628,0.5090000033378601,-2.4946778205333486
663.362069,,0.0,663.092,0.527999997138977,-2.45362072923469
663.827586,,0.0,663.555,0.515999972820282,-2.4799791839026417
664.293103,,0.0,664.02,0.5210000276565552,-2.469170987646599
664.7586210000001,,0.0,664.484,0.515999972820282,-2.4800174108129864
665.224138,,0.0,664.949,0.4429999887943268,-2.638882473297067
665.689655,,0.0,665.414,0.5170000195503235,-2.477363428994708
666.155172,,0.0,665.879,0.5270000100135803,-2.4551628179799434
666.62069,,0.0,666.344,0.5370000004768372,-2.432857636919473
667.086207,,0.0,666.81,0.5260000228881836,-2.4562149670026137
667.5517239999999,,0.0,667.277,0.5270000100135803,-2.4533584392369527
668.017241,,0.0,667.743,0.5299999713897705,-2.446095587092704
668.482759,,0.0,668.211,0.49399998784065247,-2.5237739359907496
668.948276,,0.0,668.673,0.5080000162124634,-2.4925182260503873
669.413793,,0.0,669.136,0.5090000033378601,-2.489607079843155
669.87931,,0.0,669.599,0.5360000133514404,-2.4300950440287745
670.3448279999999,,0.0,670.07,0.5019999742507935,-2.5035458498137926
670.810345,,0.0,670.532,0.5120000243186951,-2.4812211145927483
671.275862,,0.0,670.998,0.5130000114440918,-2.4786067156511353
671.7413789999999,,0.0,671.463,0.515999972820282,-2.4717508835073687
672.206897,,0.0,671.929,0.5080000162124634,-2.4889859988650214
672.672414,,0.0,672.396,0.49799999594688416,-2.5107112225694825
673.137931,,0.0,672.854,0.5329999923706055,-2.4345318663310285
673.6034480000001,,0.0,673.326,0.503000020980835,-2.5000966932207684
674.068966,,0.0,673.784,0.503000020980835,-2.500428464299716
674.5344829999999,,0.0,674.259,0.503000020980835,-2.5008770496782686
675.0,,0.0,674.717,0.515999972820282,-2.4731060968620753
675.465517,,0.0,675.185,0.47600001096725464,-2.5608894149111685
675.931034,,0.0,675.647,0.5090000033378601,-2.489698387254332
676.396552,,0.0,676.114,0.5040000081062317,-2.501340672533341
676.862069,,0.0,676.577,0.527999997138977,-2.4498226175937328
677.327586,,0.0,677.043,0.6430000066757202,-2.2000409352185013
677.793103,,0.0,677.506,0.5049999952316284,-2.501425139176533
678.2586210000001,,0.0,677.971,0.5210000276565552,-2.467244929248064
678.7241379999999,,0.0,678.436,0.5009999871253967,-2.51142530482166
679.1896549999999,,0.0,678.901,0.5170000195503235,-2.477084558849937
679.655172,,0.0,679.367,0.5080000162124634,-2.4971044202072976
680.12069,,0.0,679.832,0.5120000243186951,-2.488683260606003
680.5862070000001,,0.0,680.297,0.49900001287460327,-2.51717170747876
681.051724,,0.0,680.763,0.5,-2.5150267178250862
681.517241,,0.0,681.225,0.5230000019073486,-2.464817622495368
681.9827590000001,,0.0,681.695,0.515999972820282,-2.4798364287670758
682.448276,,0.0,682.159,0.5080000162124634,-2.496909029315203
682.9137929999999,,0.0,682.621,0.515999972820282,-2.479009842345807
683.3793099999999,,0.0,683.084,0.5239999890327454,-2.4610109854225115
683.844828,,0.0,683.554,0.492000013589859,-2.5300761350959493
684.310345,,0.0,684.02,0.5299999713897705,-2.446574377041123
684.775862,,0.0,684.484,0.503000020980835,-2.5046446210115385
685.241379,,0.0,684.949,0.503000020980835,-2.503874937042628
685.706897,,0.0,685.414,0.48399999737739563,-2.5445077213648064
686.172414,,0.0,685.879,0.5149999856948853,-2.4762397134219962
686.637931,,0.0,686.344,0.5299999713897705,-2.4428832190932566
687.103448,,0.0,686.809,0.5049999952316284,-2.496745961135959
687.5689659999999,,0.0,687.275,0.5130000114440918,-2.4788058409579588
688.034483,,0.0,687.734,0.5130000114440918,-2.4784035388842027
688.5,,0.0,688.203,0.5120000243186951,-2.4803008709352867
688.965517,,0.0,688.665,0.5239999890327454,-2.454005545067862
689.4310340000001,,0.0,689.129,0.5419999957084656,-2.414772025610485
689.896552,,0.0,689.599,0.5180000066757202,-2.4671759108806417
690.362069,,0.0,690.062,0.5180000066757202,-2.4674236590272454
690.827586,,0.0,690.525,0.5149999856948853,-2.474332012582914
691.293103,,0.0,690.99,0.5099999904632568,-2.485711270474711
691.758621,,0.0,691.455,0.5199999809265137,-2.4645098616940144
692.224138,,0.0,691.92,0.5210000276565552,-2.462997155846599
692.689655,,0.0,692.385,0.5080000162124634,-2.492046380855592
693.155172,,0.0,692.851,0.5070000290870667,-2.4949907651106304
693.6206900000001,,0.0,693.318,0.5239999890327454,-2.458735085007524
694.0862070000001,,0.0,693.783,0.5199999809265137,-2.4682219334558404
694.551724,,0.0,694.244,0.5109999775886536,-2.4885692071682595
695.0172409999999,,0.0,694.714,0.5180000066757202,-2.474002675087924
695.482759,,0.0,695.177,0.5049999952316284,-2.5029328457522846
695.948276,,0.0,695.64,0.5210000276565552,-2.468586896193658
696.4137929999999,,0.0,696.108,0.5260000228881836,-2.4580945150076166
696.87931,,0.0,696.57,0.503000020980835,-2.5084799851335853
697.344828,,0.0,697.036,0.503000020980835,-2.508624149668704
697.8103450000001,,0.0,697.499,0.527999997138977,-2.4541649487200727
698.2758620000001,,0.0,697.964,0.5120000243186951,-2.4888918465313323
698.741379,,0.0,698.429,0.527999997138977,-2.4537671822708944
699.206897,,0.0,698.894,0.6169999837875366,-2.259472072041374
699.672414,,0.0,699.359,0.5210000276565552,-2.4681079976301348
700.137931,,0.0,699.825,0.5260000228881836,-2.456599048312938
700.603448,,0.0,700.296,0.5249999761581421,-2.4580812354581942
701.068966,,0.0,700.754,0.5389999747276306,-2.4268238944242593
701.534483,,0.0,701.222,0.5339999794960022,-2.4369241494485334
702.0,,0.0,701.684,0.5149999856948853,-2.477513621684371
702.4655170000001,,0.0,702.152,0.515999972820282,-2.474544066220332
702.931034,,0.0,702.614,0.5199999809265137,-2.4650772771463716
703.3965519999999,,0.0,703.084,0.515999972820282,-2.4731018071301927
703.862069,,0.0,703.547,0.5049999952316284,-2.4964607064751374
704.327586,,0.0,704.013,0.5149999856948853,-2.474171163611324
704.793103,,0.0,704.476,0.4860000014305115,-2.5369681158491884
705.2586210000001,,0.0,704.942,0.527999997138977,-2.445212380311167
705.724138,,0.0,705.406,0.5139999985694885,-2.4755995173634626
706.189655,,0.0,705.872,0.5170000195503235,-2.469091416561924
706.6551720000001,,0.0,706.337,0.5170000195503235,-2.4692605383683675
707.12069,,0.0,706.802,0.5410000085830688,-2.417277685148121
707.586207,,0.0,707.267,0.5199999809265137,-2.46345982611293
708.051724,,0.0,707.732,0.5260000228881836,-2.450931037004094
708.517241,,0.0,708.195,0.5389999747276306,-2.4232478751954867
708.982759,,0.0,708.666,0.4860000014305115,-2.5394320977106184
709.4482760000001,,0.0,709.129,0.5180000066757202,-2.470486959401027
709.913793,,0.0,709.591,0.5170000195503235,-2.4734689843125093
710.37931,,0.0,710.059,0.5249999761581421,-2.4568494671176357
710.844828,,0.0,710.521,0.515999972820282,-2.4772478785001812
711.310345,,0.0,710.987,0.5139999985694885,-2.482352360344022
711.775862,,0.0,711.451,0.5419999957084656,-2.42203061215263
712.2413789999999,,0.0,711.916,0.5220000147819519,-2.4661953637794154
712.706897,,0.0,712.381,0.5170000195503235,-2.4775736863338658
713.172414,,0.0,712.847,0.5299999713897705,-2.449614907620806
713.637931,,0.0,713.311,0.5180000066757202,-2.475989103229037
714.1034480000001,,0.0,713.777,0.5170000195503235,-2.4782580928171205
714.5689659999999,,0.0,714.24,0.5460000038146973,-2.415024341940445
715.034483,,0.0,714.71,0.5299999713897705,-2.4496872616098977
715.5,,0.0,715.173,0.574999988079071,-2.351315060399851
715.965517,,0.0,715.636,0.5210000276565552,-2.4685015672492434
716.431034,,0.0,716.099,0.5199999809265137,-2.470107814922607
716.896552,,0.0,716.57,0.5339999794960022,-2.4389407598576596
717.362069,,0.0,717.035,0.503000020980835,-2.5057401283773486
717.827586,,0.0,717.498,0.5249999761581421,-2.4570220101344336
718.2931030000001,,0.0,717.963,0.5270000100135803,-2.451851623638789
718.758621,,0.0,718.424,0.5180000066757202,-2.4706462976328747
719.2241379999999,,0.0,718.89,0.527999997138977,-2.448071845814787
719.689655,,0.0,719.355,0.5260000228881836,-2.4516906032929544
720.155172,,0.0,719.82,0.5,-2.5076698554139
720.62069,,0.0,720.285,0.515999972820282,-2.4722400404606346
721.0862070000001,,0.0,720.75,0.5419999957084656,-2.4151349476807438
721.551724,,0.0,721.218,0.515999972820282,-2.471444524007035
722.017241,,0.0,721.68,0.5339999794960022,-2.432028841906072
722.482759,,0.0,722.144,0.5249999761581421,-2.4515782928353818
722.948276,,0.0,722.613,0.5299999713897705,-2.44076999533893
723.4137929999999,,0.0,723.077,0.515999972820282,-2.471497017621847
723.87931,,0.0,723.54,0.5109999775886536,-2.4827507588740603
724.344828,,0.0,724.005,0.5230000019073486,-2.4570910767221408
724.810345,,0.0,724.47,0.515999972820282,-2.4729342855340137
725.2758620000001,,0.0,724.935,0.5299999713897705,-2.4431156430180545
725.741379,,0.0,725.399,0.5329999923706055,-2.4373303199265375
726.2068969999999,,0.0,725.865,0.5170000195503235,-2.4729841889909903
726.672414,,0.0,726.33,0.5210000276565552,-2.4650857818915566
727.137931,,0.0,726.795,0.550000011920929,-2.4027161504087737
727.603448,,0.0,727.262,0.5299999713897705,-2.4470693931454086
728.068966,,0.0,727.729,0.5210000276565552,-2.4674024843297766
728.534483,,0.0,728.192,0.5339999794960022,-2.4397287176016564
729.0,,0.0,728.654,0.5139999985694885,-2.4838533906064546
729.465517,,0.0,729.122,0.5199999809265137,-2.471219719059273
729.9310340000001,,0.0,729.584,0.5170000195503235,-2.4780668318144277
730.3965519999999,,0.0,730.05,0.515999972820282,-2.4804202266074844
730.8620689999999,,0.0,730.515,0.5170000195503235,-2.4782741097151435
731.327586,,0.0,730.981,0.531000018119812,-2.4476622658751648
731.793103,,0.0,731.448,0.5070000290870667,-2.499698908720061
732.2586210000001,,0.0,731.914,0.5440000295639038,-2.4187054214883017
732.724138,,0.0,732.381,0.5120000243186951,-2.487917628687212
733.189655,,0.0,732.839,0.5170000195503235,-2.4764146428643614
733.655172,,0.0,733.305,0.5109999775886536,-2.488791029142006
734.12069,,0.0,733.771,0.5139999985694885,-2.4814951085256487
734.586207,,0.0,734.24,0.527999997138977,-2.450192943274346
735.0517239999999,,0.0,734.703,0.5249999761581421,-2.4559109000995942
735.517241,,0.0,735.166,0.5210000276565552,-2.463815583218372
735.982759,,0.0,735.636,0.5170000195503235,-2.47175395370938
736.448276,,0.0,736.096,0.5099999904632568,-2.48628625736497
736.913793,,0.0,736.559,0.5120000243186951,-2.4812910672427946
737.37931,,0.0,737.025,0.5270000100135803,-2.448073567036865
737.844828,,0.0,737.495,0.4740000069141388,-2.5631212853526937
738.310345,,0.0,737.961,0.5239999890327454,-2.4538990770237925
738.775862,,0.0,738.426,0.5170000195503235,-2.4689989140409634
739.2413789999999,,0.0,738.884,0.5339999794960022,-2.431954148472079
739.706897,,0.0,739.356,0.5260000228881836,-2.4495181802589174
740.172414,,0.0,739.814,0.5199999809265137,-2.462863838053032
740.637931,,0.0,740.281,0.5009999871253967,-2.504662932588494
741.1034480000001,,0.0,740.746,0.5339999794960022,-2.433291189177006
741.568966,,0.0,741.214,0.5199999809265137,-2.464418120265618
742.034483,,0.0,741.676,0.5090000033378601,-2.4890921022199715
742.5,,0.0,742.14,0.5450000166893005,-2.4114308202142
742.965517,,0.0,742.61,0.515999972820282,-2.4754187877364133
743.431034,,0.0,743.074,0.5170000195503235,-2.4740595572451873
743.896552,,0.0,743.536,0.5289999842643738,-2.448722890250621
744.362069,,0.0,744.002,0.5059999823570251,-2.499601501697255
744.827586,,0.0,744.466,0.5289999842643738,-2.45020134722698
745.293103,,0.0,744.931,0.531000018119812,-2.4464695264703273
745.7586210000001,,0.0,745.396,0.5049999952316284,-2.5036374431775035
746.2241379999999,,0.0,745.862,0.515999972820282,-2.480077337114156
746.6896549999999,,0.0,746.326,0.5249999761581421,-2.460743825703974
747.155172,,0.0,746.792,0.515999972820282,-2.480486442033234
747.62069,,0.0,747.258,0.5040000081062317,-2.5066214790237646
748.086207,,0.0,747.724,0.5249999761581421,-2.4607181588258005
748.551724,,0.0,748.184,0.515999972820282,-2.4800353109905853
749.017241,,0.0,748.654,0.5249999761581421,-2.460006400805766
749.4827590000001,,0.0,749.115,0.5049999952316284,-2.5030409564935776
749.9482760000001,,0.0,749.584,0.515999972820282,-2.4784369711938754
750.4137929999999,,0.0,750.05,0.5260000228881836,-2.4559302946270356
750.8793099999999,,0.0,750.515,0.5130000114440918,-2.483473225137698
751.344828,,0.0,750.98,0.5189999938011169,-2.4695864776700573
751.810345,,0.0,751.44,0.5099999904632568,-2.4883692988760235
752.275862,,0.0,751.906,0.5210000276565552,-2.4635942921355363
752.741379,,0.0,752.371,0.5170000195503235,-2.471539119397097
753.206897,,0.0,752.836,0.5090000033378601,-2.4882623691834436
753.672414,,0.0,753.303,0.5419999957084656,-2.41574632791678
754.1379310000001,,0.0,753.768,0.5130000114440918,-2.478410481560032
754.603448,,0.0,754.229,0.5090000033378601,-2.486729024416654
755.0689659999999,,0.0,754.699,0.5090000033378601,-2.4864665620568736
755.534483,,0.0,755.162,0.5210000276565552,-2.46020195747369
756.0,,0.0,755.625,0.515999972820282,-2.471119791824601
756.465517,,0.0,756.096,0.515999972820282,-2.471288872729965
756.931034,,0.0,756.558,0.5270000100135803,-2.4476322042257808
757.396552,,0.0,757.024,0.515999972820282,-2.4720359308809448
757.862069,,0.0,757.487,0.5299999713897705,-2.4420899267601626
758.3275860000001,,0.0,757.953,0.5199999809265137,-2.464531021869508
758.793103,,0.0,758.418,0.44999998807907104,-2.6177720604774213
759.258621,,0.0,758.884,0.515999972820282,-2.474776881202563
759.724138,,0.0,759.344,0.5199999809265137,-2.466892228892737
760.189655,,0.0,759.81,0.515999972820282,-2.476444225779836
760.655172,,0.0,760.281,0.6389999985694885,-2.209287039851472
761.1206900000001,,0.0,760.739,0.5149999856948853,-2.4802082631312015
761.5862070000001,,0.0,761.21,0.5199999809265137,-2.470014323672874
762.051724,,0.0,761.673,0.5249999761581421,-2.459731601992226
762.517241,,0.0,762.141,0.515999972820282,-2.4798423554855105
762.982759,,0.0,762.603,0.5270000100135803,-2.4562570290214065
763.448276,,0.0,763.066,0.5090000033378601,-2.4957180337767553
763.9137929999999,,0.0,763.529,0.5260000228881836,-2.458784243931039
764.37931,,0.0,763.994,0.5360000133514404,-2.4369553239939328
764.844828,,0.0,764.463,0.531000018119812,-2.447661000463556
765.310345,,0.0,764.928,0.5149999856948853,-2.4821927750337647
765.7758620000001,,0.0,765.395,0.5529999732971191,-2.398948266053563
766.241379,,0.0,765.854,0.5230000019073486,-2.4637360092431444
766.706897,,0.0,766.325,0.5410000085830688,-2.4238504190192165
767.172414,,0.0,766.791,0.5189999938011169,-2.4710334797714757
767.637931,,0.0,767.256,0.5249999761581421,-2.4571603216450866
768.103448,,0.0,767.714,0.515999972820282,-2.4759377896091808
768.568966,,0.0,768.185,0.5249999761581421,-2.455496030516199
769.034483,,0.0,768.647,0.5339999794960022,-2.435076011365636
769.5,,0.0,769.11,0.5239999890327454,-2.4560966770576664
769.9655170000001,,0.0,769.58,0.5199999809265137,-2.4641156605633383
770.4310340000001,,0.0,770.039,0.5210000276565552,-2.4613331555033566
770.8965519999999,,0.0,770.509,0.5049999952316284,-2.4956986348214474
771.362069,,0.0,770.974,0.49900001287460327,-2.5084041257663454
771.827586,,0.0,771.44,0.5149999856948853,-2.4733174952391823
772.293103,,0.0,771.906,0.5379999876022339,-2.423124356104729
772.7586210000001,,0.0,772.37,0.5170000195503235,-2.4689375681604724
773.224138,,0.0,772.835,0.5080000162124634,-2.488751491738298
773.689655,,0.0,773.299,0.49000000953674316,-2.52831237470823
774.155172,,0.0,773.765,0.5410000085830688,-2.4176747654253505
774.62069,,0.0,774.225,0.5249999761581421,-2.453119130507305
775.086207,,0.0,774.695,0.5329999923706055,-2.436369635045335
775.551724,,0.0,775.155,0.5139999985694885,-2.4785169502911906
776.017241,,0.0,775.625,0.515999972820282,-2.4749633368822033
776.482759,,0.0,776.088,0.5170000195503235,-2.4736144205270847
776.9482760000001,,0.0,776.551,0.515999972820282,-2.4766236615509793
777.413793,,0.0,777.017,0.5210000276565552,-2.4665358543817386
777.87931,,0.0,777.483,0.5379999876022339,-2.430254304443751
778.344828,,0.0,777.949,0.5440000295639038,-2.417863536045837
778.810345,,0.0,778.414,0.5130000114440918,-2.4859879132456872
779.275862,,0.0,778.879,0.5149999856948853,-2.4821049756404787
779.7413789999999,,0.0,779.344,0.5090000033378601,-2.4955253811576736
780.206897,,0.0,779.81,0.5410000085830688,-2.426020355641209
780.672414,,0.0,780.27,0.5339999794960022,-2.441338559369097
781.137931,,0.0,780.736,0.5180000066757202,-2.476118298339285
781.6034480000001,,0.0,781.204,0.5080000162124634,-2.4976834323186257
782.0689659999999,,0.0,781.665,0.5149999856948853,-2.482076302156559
782.5344829999999,,0.0,782.129,0.5070000290870667,-2.499024524326074
783.0,,0.0,782.599,0.5260000228881836,-2.457039705299595
783.465517,,0.0,783.059,0.5379999876022339,-2.4302132174887925
783.931034,,0.0,783.529,0.5339999794960022,-2.438173006844174
784.396552,,0.0,783.994,0.5239999890327454,-2.4591558948958525
784.862069,,0.0,784.458,0.5180000066757202,-2.4714006614302124
785.327586,,0.0,784.924,0.5139999985694885,-2.47929057412049
785.7931030000001,,0.0,785.389,0.5419999957084656,-2.4174911471120355
786.258621,,0.0,785.854,0.5070000290870667,-2.4929981418584983
786.7241379999999,,0.0,786.314,0.5199999809265137,-2.4640051764287016
787.189655,,0.0,786.78,0.5049999952316284,-2.496110295786457
787.655172,,0.0,787.247,0.5130000114440918,-2.478220283144755
788.12069,,0.0,787.71,0.5139999985694885,-2.4757087173766905
788.5862070000001,,0.0,788.174,0.5289999842643738,-2.442833559665134
789.051724,,0.0,788.643,0.5080000162124634,-2.4885328743134902
789.517241,,0.0,789.104,0.5289999842643738,-2.4428738706754753
789.982759,,0.0,789.573,0.4359999895095825,-2.645724005577915
790.448276,,0.0,790.039,0.5139999985694885,-2.4761625616072087
790.9137929999999,,0.0,790.502,0.5299999713897705,-2.4418017443218965
791.3793099999999,,0.0,790.967,0.49300000071525574,-2.523016619813589
791.844828,,0.0,791.432,0.4959999918937683,-2.5171752336766904
792.310345,,0.0,791.898,0.5120000243186951,-2.4830796572119094
792.7758620000001,,0.0,792.363,0.515999972820282,-2.475171995911264
793.241379,,0.0,792.829,0.5170000195503235,-2.4738185445304888
793.7068969999999,,0.0,793.295,0.5149999856948853,-2.478994093066823
794.172414,,0.0,793.754,0.5249999761581421,-2.4579932862411322
794.637931,,0.0,794.221,0.5130000114440918,-2.4848658381233224
795.103448,,0.0,794.684,0.5170000195503235,-2.4768010233458004
795.568966,,0.0,795.155,0.5320000052452087,-2.4446719569610607
796.034483,,0.0,795.617,0.5239999890327454,-2.462535372250581
796.5,,0.0,796.085,0.5040000081062317,-2.506413273295177
796.965517,,0.0,796.547,0.5299999713897705,-2.449935469399254
797.4310340000001,,0.0,797.013,0.515999972820282,-2.480460381089607
797.8965519999999,,0.0,797.476,0.5099999904632568,-2.4934126002496835
798.3620689999999,,0.0,797.942,0.515999972820282,-2.4800820008460103
798.827586,,0.0,798.406,0.5139999985694885,-2.4840495803082687
799.293103,,0.0,798.872,0.503000020980835,-2.5075065305132465
799.758621,,0.0,799.337,0.5189999938011169,-2.472037620054881
800.224138,,0.0,799.803,0.5210000276565552,-2.4669858018845154
800.689655,,0.0,800.27,0.5299999713897705,-2.446620783050816
801.155172,,0.0,800.735,0.5339999794960022,-2.43710903619208
801.62069,,0.0,801.196,0.515999972820282,-2.475512469881444
802.086207,,0.0,801.665,0.5230000019073486,-2.4594600565803963
802.5517239999999,,0.0,802.129,0.5139999985694885,-2.4783015816336786
803.017241,,0.0,802.592,0.5249999761581421,-2.4536292845401664
803.482759,,0.0,803.062,0.5249999761581421,-2.453002736987423
803.948276,,0.0,803.525,0.5239999890327454,-2.4546545409014797
804.413793,,0.0,803.99,0.5149999856948853,-2.47385167126196
804.87931,,0.0,804.456,0.5049999952316284,-2.495356616618116
805.344828,,0.0,804.914,0.5299999713897705,-2.4407467132073823
805.810345,,0.0,805.381,0.5419999957084656,-2.4146002254407537
806.275862,,0.0,805.847,0.5070000290870667,-2.4909909485075445
806.7413789999999,,0.0,806.311,0.5,-2.5065171277907785
807.206897,,0.0,806.776,0.5400000214576721,-2.4197756610171726
807.672414,,0.0,807.244,0.5180000066757202,-2.4682258692612344
808.137931,,0.0,807.707,0.5419999957084656,-2.4165569502827315
808.603448,,0.0,808.17,0.515999972820282,-2.473900028877574
809.068966,,0.0,808.64,0.531000018119812,-2.4419764415799325
809.534483,,0.0,809.103,0.5049999952316284,-2.49941272378407
810.0,,0.0,809.566,0.5410000085830688,-2.4217833258134944
810.465517,,0.0,810.031,0.5170000195503235,-2.474858353892402
810.931034,,0.0,810.501,0.5080000162124634,-2.4952152420908202
811.396552,,0.0,810.959,0.5120000243186951,-2.4871888592115683
811.862069,,0.0,811.426,0.5350000262260437,-2.4376857317892315
812.327586,,0.0,811.892,0.5170000195503235,-2.477405569855992
812.793103,,0.0,812.359,0.578000009059906,-2.3448940706563697
813.2586210000001,,0.0,812.825,0.5139999985694885,-2.4845831297063277
813.724138,,0.0,813.289,0.5180000066757202,-2.4759868829737233
814.1896549999999,,0.0,813.755,0.5299999713897705,-2.4498218040174544
814.655172,,0.0,814.218,0.5920000076293945,-2.3145835688159355
815.12069,,0.0,814.68,0.5339999794960022,-2.440646639522759
815.586207,,0.0,815.148,0.5419999957084656,-2.422792425794847
816.051724,,0.0,815.61,0.5090000033378601,-2.494151396980257
816.517241,,0.0,816.081,0.515999972820282,-2.4782708947911587
816.982759,,0.0,816.543,0.5270000100135803,-2.4536019615911933
817.4482760000001,,0.0,817.009,0.531000018119812,-2.444131295061898
817.913793,,0.0,817.473,0.5139999985694885,-2.480383466916126
818.3793099999999,,0.0,817.939,0.5199999809265137,-2.466522650263808
818.844828,,0.0,818.404,0.5270000100135803,-2.4505034013520453
819.310345,,0.0,818.869,0.5329999923706055,-2.4367064449865565
819.775862,,0.0,819.329,0.49399998784065247,-2.5210148962785874
820.241379,,0.0,819.794,0.5460000038146973,-2.407153012333561
820.706897,,0.0,820.259,0.5149999856948853,-2.474222691441301
821.172414,,0.0,820.724,0.515999972820282,-2.47169355590257
821.6379310000001,,0.0,821.192,0.5149999856948853,-2.4736507133108616
822.1034480000001,,0.0,821.655,0.5419999957084656,-2.4147407500457123
822.5689659999999,,0.0,822.125,0.515999972820282,-2.471436109735117
823.034483,,0.0,822.588,0.5189999938011169,-2.465085870092506
823.5,,0.0,823.059,0.527999997138977,-2.445793199628434
823.965517,,0.0,823.514,0.5199999809265137,-2.4636567011208843
824.431034,,0.0,823.979,0.5299999713897705,-2.442409795348452
824.896552,,0.0,824.451,0.5239999890327454,-2.456109443166579
825.362069,,0.0,824.909,0.515999972820282,-2.4742352430114214
825.827586,,0.0,825.381,0.5109999775886536,-2.485872627586979
826.293103,,0.0,825.839,0.5419999957084656,-2.4191028125774174
826.758621,,0.0,826.31,0.5400000214576721,-2.424227753159482
827.224138,,0.0,826.769,0.5049999952316284,-2.5012240044483898
827.689655,,0.0,827.236,0.5149999856948853,-2.4801350368822623
828.155172,,0.0,827.699,0.5339999794960022,-2.4393707442503008
828.6206900000001,,0.0,828.166,0.49900001287460327,-2.51616639834544
829.0862070000001,,0.0,828.636,0.5210000276565552,-2.4686760226871147
829.551724,,0.0,829.096,0.5080000162124634,-2.497322062618634
830.017241,,0.0,829.559,0.5210000276565552,-2.469196868550487
830.482759,,0.0,830.024,0.5339999794960022,-2.4409391536942446
830.948276,,0.0,830.495,0.531000018119812,-2.4474045666989217
831.4137929999999,,0.0,830.961,0.531000018119812,-2.447201366177859
831.87931,,0.0,831.425,0.5180000066757202,-2.4751947548636646
832.344828,,0.0,831.884,0.5180000066757202,-2.474750757411896
832.810345,,0.0,832.352,0.5339999794960022,-2.4393474563384303
833.2758620000001,,0.0,832.817,0.5339999794960022,-2.4387180089106737
833.741379,,0.0,833.282,0.4740000069141388,-2.568743493644701
834.2068969999999,,0.0,833.747,0.515999972820282,-2.4765060043578093
834.672414,,0.0,834.21,0.4339999854564667,-2.6544039040725864
835.137931,,0.0,834.68,0.5379999876022339,-2.427079573934195
835.603448,,0.0,835.144,0.5199999809265137,-2.4655778060324005
836.068966,,0.0,835.607,0.527999997138977,-2.4474789543698647
836.534483,,0.0,836.07,0.5199999809265137,-2.464307021608776
837.0,,0.0,836.54,0.5249999761581421,-2.452899434840652
837.4655170000001,,0.0,837.005,0.5270000100135803,-2.4481300500691354
837.9310340000001,,0.0,837.47,0.5109999775886536,-2.482691406168171
838.3965519999999,,0.0,837.936,0.5210000276565552,-2.4607318827965017
838.862069,,0.0,838.4,0.5249999761581421,-2.4519735720785323
839.327586,,0.0,838.866,0.5230000019073486,-2.4564168794432693
839.793103,,0.0,839.325,0.5419999957084656,-2.4152352736100293
840.2586210000001,,0.0,839.79,0.515999972820282,-2.4722126378961082
840.724138,,0.0,840.255,0.5239999890327454,-2.4552256442156137
841.189655,,0.0,840.722,0.5199999809265137,-2.4644788329210456
841.655172,,0.0,841.185,0.5339999794960022,-2.4345957431006693
842.12069,,0.0,841.654,0.45100000500679016,-2.6161030364380085
842.586207,,0.0,842.118,0.5339999794960022,-2.435996481632536
843.0517239999999,,0.0,842.581,0.515999972820282,-2.475951807075953
843.517241,,0.0,843.046,0.5249999761581421,-2.4570780756781083
843.982759,,0.0,843.51,0.515999972820282,-2.4773921081995884
844.4482760000001,,0.0,843.976,0.5460000038146973,-2.412688713758932
844.913793,,0.0,844.441,0.5270000100135803,-2.454668439875771
845.37931,,0.0,844.906,0.503000020980835,-2.5074533731880453
845.844828,,0.0,845.373,0.5260000228881836,-2.4577394720843526
846.310345,,0.0,845.839,0.5120000243186951,-2.488521129885676
846.775862,,0.0,846.299,0.5299999713897705,-2.4494629779721073
847.2413789999999,,0.0,846.765,0.5170000195503235,-2.47781476283987
847.706897,,0.0,847.233,0.5199999809265137,-2.471179768308987
848.172414,,0.0,847.695,0.5149999856948853,-2.481848765860463
848.637931,,0.0,848.163,0.527999997138977,-2.453183927642315
849.1034480000001,,0.0,848.625,0.5379999876022339,-2.430947072146469
849.5689659999999,,0.0,849.096,0.5320000052452087,-2.443474052733377
850.0344829999999,,0.0,849.558,0.5239999890327454,-2.460281035312126
850.5,,0.0,850.024,0.5070000290870667,-2.49663840818403
850.965517,,0.0,850.487,0.5180000066757202,-2.471958032847181
851.431034,,0.0,850.953,0.5059999823570251,-2.4973731128865326
851.896552,,0.0,851.418,0.492000013589859,-2.527154843885014
852.362069,,0.0,851.884,0.5239999890327454,-2.4567505412705297
852.827586,,0.0,852.348,0.5329999923706055,-2.436506756428951
853.2931030000001,,0.0,852.814,0.5099999904632568,-2.4860503112927628
853.758621,,0.0,853.281,0.5180000066757202,-2.4681440164339206
854.2241379999999,,0.0,853.739,0.5180000066757202,-2.467769875917449
854.689655,,0.0,854.207,0.5270000100135803,-2.447901780539324
855.155172,,0.0,854.67,0.515999972820282,-2.471728298863084
855.62069,,0.0,855.14,0.5299999713897705,-2.441214070340347
856.0862070000001,,0.0,855.602,0.5199999809265137,-2.463113019500478
856.551724,,0.0,856.07,0.5299999713897705,-2.441560916359005
857.017241,,0.0,856.532,0.49000000953674316,-2.5290562469874627
857.482759,,0.0,856.998,0.5070000290870667,-2.492473778388671
857.948276,,0.0,857.463,0.5299999713897705,-2.4429102916015313
858.4137929999999,,0.0,857.928,0.5189999938011169,-2.4674935178233808
858.8793099999999,,0.0,858.396,0.5210000276565552,-2.4638079095538896
859.344828,,0.0,858.854,0.5130000114440918,-2.4819420795902047
859.810345,,0.0,859.325,0.5070000290870667,-2.495730709504747
860.275862,,0.0,859.791,0.5139999985694885,-2.4811870222975263
860.741379,,0.0,860.255,0.531000018119812,-2.4448245534604967
861.206897,,0.0,860.714,0.515999972820282,-2.4781256248130537
861.672414,,0.0,861.184,0.5299999713897705,-2.44817335082363
862.137931,,0.0,861.647,0.531000018119812,-2.4464539710991127
862.603448,,0.0,862.11,0.5149999856948853,-2.481668397588923
863.068966,,0.0,862.58,0.5239999890327454,-2.46230277920989
863.534483,,0.0,863.046,0.5270000100135803,-2.455887963800096
