Trial: ,23
Threshold: ,0.0
Maximum EMG: ,0.04995855129485
Success: ,True

EMG Time,Raw EMG,Filtered EMG,Force Time,Raw Force (V),Filtered Force (N)
0.0,samples,9.293336976952558e-06,0.471,0.5210000276565552,-2.465945931473488
0.46551699999999996,time,8.161403746999128e-06,0.933,0.515999972820282,-2.4767674157280224
0.9310339999999999,value,6.951489557825437e-06,1.396,0.515999972820282,-2.476665868565875
1.396552,,5.664538569040813e-06,1.866,0.5249999761581421,-2.456929721221966
1.862069,,4.301810272030762e-06,2.329,0.515999972820282,-2.476386189262605
2.327586,,2.8648886188658823e-06,2.792,0.5509999990463257,-2.3999630260668314
2.793103,,1.35569038904937e-06,3.258,0.5170000195503235,-2.4738523684039797
3.258621,,2.235272686290671e-07,3.721,0.515999972820282,-2.475838463343971
3.724138,,1.8701601816338375e-06,4.187,0.5299999713897705,-2.4451431509110986
4.189654999999999,,3.5812514486555565e-06,4.651,0.5249999761581421,-2.4558462452699903
4.655172,,5.35348674534632e-06,5.117,0.5109999775886536,-2.486167438528379
5.12069,,7.183190701195579e-06,5.582,0.503000020980835,-2.5034333482460545
5.586207,,9.06632440671327e-06,6.048,0.527999997138977,-2.4488259532374714
6.051723999999999,,1.0998484108612906e-05,6.515,0.5099999904632568,-2.4879264583789755
6.517241,,1.2974901148944079e-05,6.98,0.5239999890327454,-2.4573398367788695
6.982759,,1.499044320210579e-05,7.441,0.49000000953674316,-2.5313612213077694
7.448276,,1.703961686137455e-05,7.91,0.5239999890327454,-2.4572695625367316
7.913793000000001,,1.911657162400045e-05,8.374,0.5120000243186951,-2.483430893200025
8.379309999999998,,2.1215105321057352e-05,8.836,0.5049999952316284,-2.4987338397173864
8.844828000000001,,2.332867103507768e-05,9.304,0.5249999761581421,-2.4552465068789378
9.310345,,2.5450385545057094e-05,9.766,0.515999972820282,-2.4749701765469347
9.775862,,2.757303933467905e-05,10.232,0.5090000033378601,-2.4903632140190815
10.241379,,2.968910819558485e-05,10.696,0.5339999794960022,-2.4360618922111055
10.706897,,3.179076645320307e-05,11.161,0.515999972820282,-2.4754591726440034
11.172414,,3.386990183805629e-05,11.626,0.5049999952316284,-2.4996173504090424
11.637931,,3.591813202058671e-05,12.092,0.5099999904632568,-2.488923361466556
12.103447999999998,,3.7926822822390974e-05,12.559,0.5230000019073486,-2.4607998626683876
12.568966000000001,,3.98871081113348e-05,13.025,0.503000020980835,-2.5045650522935885
13.034483,,4.178991138233746e-05,13.485,0.5099999904632568,-2.489494431843311
13.5,,4.3625969019683874e-05,13.955,0.4950000047683716,-2.522336317016147
13.965517,,4.538585523054806e-05,14.415,0.527999997138977,-2.4505800516998786
14.431034,,4.7060008633008086e-05,14.885,0.5180000066757202,-2.472477388479723
14.896552,,4.863876047521165e-05,15.348,0.5170000195503235,-2.47473477552553
15.362069,,5.011236445552777e-05,15.81,0.5090000033378601,-2.4922084568737413
15.827586000000002,,5.1471028106508815e-05,16.276,0.515999972820282,-2.4769667885871143
16.293103,,5.270494569830582e-05,16.746,0.5059999823570251,-2.4987260994175053
16.758621,,5.3804332609846514e-05,17.205,0.5099999904632568,-2.4899492419680667
17.224138,,5.4759461108618995e-05,17.67,0.515999972820282,-2.476781801173587
17.689655,,5.556069747232639e-05,18.136,0.5149999856948853,-2.4788340803191042
18.155172,,5.619854037800998e-05,18.6,0.5139999985694885,-2.480859385961896
18.62069,,5.666366047650487e-05,19.066,0.5299999713897705,-2.445825231771757
19.086207,,5.694694106231736e-05,19.533,0.5120000243186951,-2.484847666242318
19.551724,,5.7039519741222507e-05,19.999,0.5120000243186951,-2.484643615620083
20.017241000000002,,5.693283099010181e-05,20.46,0.5170000195503235,-2.4735420531961405
20.482758999999998,,5.661864949580183e-05,20.929,0.515999972820282,-2.475514586437187
20.948276,,5.6089134152124737e-05,21.392,0.515999972820282,-2.475316935471125
21.413793000000002,,5.533687258649149e-05,21.855,0.5180000066757202,-2.4707767338032314
21.87931,,5.435492608037866e-05,22.326,0.5239999890327454,-2.457542517674823
22.344828,,5.3136874740353225e-05,22.788,0.5070000290870667,-2.4944428572145996
22.810344999999998,,5.1676862769449e-05,23.254,0.515999972820282,-2.47472906881584
23.275862,,4.996964368177668e-05,23.718,0.5009999871253967,-2.507337002183303
23.741379,,4.801062529667241e-05,24.184,0.5170000195503235,-2.472443568082611
24.206897,,4.5795914342401026e-05,24.648,0.527999997138977,-2.4484810222175217
24.672414,,4.33223604934756e-05,25.114,0.5109999775886536,-2.485557849422363
25.137931,,4.058759966007013e-05,25.578,0.5130000114440918,-2.481276727180042
25.603448,,3.759009634282305e-05,26.044,0.5339999794960022,-2.43563552246005
26.068966,,3.432918486159134e-05,26.511,0.5139999985694885,-2.4793491650488653
26.534483,,3.0805109262455075e-05,26.976,0.5120000243186951,-2.483873563905578
27.0,,2.7019061703525305e-05,27.437,0.5199999809265137,-2.4666332563128015
27.465517,,2.2973219116910602e-05,27.9,0.5540000200271606,-2.392762801643905
27.931034,,1.867077794158334e-05,28.37,0.515999972820282,-2.4757631839091863
28.396552,,1.4115986719891479e-05,28.833,0.5180000066757202,-2.4716195340993514
28.862069,,9.314176349118486e-06,29.304,0.4659999907016754,-2.585120154466976
29.327586,,4.2717877788362306e-06,29.766,0.5189999938011169,-2.469853992191988
29.793103000000002,,1.003603055144696e-06,30.225,0.515999972820282,-2.476576306892608
30.258620999999998,,6.503263268615481e-06,30.697,0.5120000243186951,-2.4854544053070597
30.724138,,1.2217284245403465e-05,31.155,0.5299999713897705,-2.446374314516447
31.189655000000002,,1.8134566236813164e-05,31.622,0.5180000066757202,-2.4726205635913514
31.655172000000004,,2.4242806545264592e-05,32.088,0.5070000290870667,-2.4966521488181477
32.12069,,3.052849148924135e-05,32.552,0.5059999823570251,-2.4988597052980572
32.586207,,3.6976892341704075e-05,33.018,0.5270000100135803,-2.4530978394596534
33.051724,,4.357206542826907e-05,33.486,0.5630000233650208,-2.3746159208397937
33.517241000000006,,5.029685656467924e-05,33.948,0.5049999952316284,-2.500887491719837
33.982759,,5.713291000538969e-05,34.411,0.5099999904632568,-2.4898685525861426
34.448276,,6.40606820664398e-05,34.881,0.5249999761581421,-2.4570320141123916
34.913793,,7.105945957617873e-05,35.341,0.5040000081062317,-2.5026001598555414
35.37931,,7.810738329684255e-05,35.811,0.5419999957084656,-2.4196069618886096
35.844828,,8.518147644844837e-05,36.276,0.5019999742507935,-2.5065333609945117
36.310345,,9.225767845396882e-05,36.739,0.5199999809265137,-2.467090293615401
36.775862,,9.931088401128642e-05,37.204,0.5080000162124634,-2.4930063290064552
37.241378999999995,,0.00010631498758300343,37.67,0.5139999985694885,-2.4797136511701376
37.706897000000005,,0.00011324293337981205,38.135,0.5130000114440918,-2.4816853028645314
38.172414,,0.00012006677089682557,38.6,0.5289999842643738,-2.446640042453052
38.637931,,0.0001267577160450489,39.065,0.5239999890327454,-2.4573718581626403
39.103448,,0.00013328621790205158,39.53,0.5249999761581421,-2.455062396767092
39.568965999999996,,0.00013962203108691998,39.996,0.5170000195503235,-2.472395720499155
40.034483,,0.00014573429374474303,40.459,0.515999972820282,-2.4745172674781175
40.5,,0.0001515916111052565,40.921,0.515999972820282,-2.4745008342321833
40.965517,,0.000157162144558877,41.389,0.5099999904632568,-2.4875978951748907
41.431034,,0.00016241370617123887,41.851,0.5410000085830688,-2.4201256375437685
41.896552,,0.00016731385853455577,42.319,0.5249999761581421,-2.455088102878782
42.362069000000005,,0.00017183001983071212,42.782,0.5099999904632568,-2.487907170884157
42.827586000000004,,0.0001759295739570059,43.247,0.531000018119812,-2.4423265008359767
43.293103,,0.00017957998554097622,43.715,0.5289999842643738,-2.446880920767389
43.758621,,0.0001827489196458172,44.18,0.5339999794960022,-2.436204339094859
44.224138,,0.0001854043659425782,44.646,0.5249999761581421,-2.4560418369111194
44.689655,,0.0001875147670997515,45.105,0.5339999794960022,-2.4366696467614184
45.155172,,0.00018904915111502834,45.57,0.5329999923706055,-2.4390825256462674
45.620689999999996,,0.00018997726728804895,46.036,0.515999972820282,-2.476345402213637
46.086206999999995,,0.00019026972550696542,46.501,0.515999972820282,-2.47655638024701
46.551724,,0.00018989813849566733,46.966,0.5170000195503235,-2.4745674873393013
47.017241,,0.0001888352666426874,47.437,0.5329999923706055,-2.439871561347475
47.482759,,0.00018705516500719922,47.899,0.5239999890327454,-2.4596087203426222
47.948276,,0.00018453333207224843,48.363,0.5320000052452087,-2.4422714048055227
48.413793,,0.0001812468597905216,48.826,0.46399998664855957,-2.5904722044360975
48.879310000000004,,0.00017717458444366306,49.291,0.5249999761581421,-2.4575873105825004
49.344828,,0.00017229723781250856,49.755,0.5099999904632568,-2.4902383460733604
49.810345,,0.00016659759813272723,50.221,0.5339999794960022,-2.4378802640377186
50.275862,,0.00016006064028836243,50.685,0.515999972820282,-2.476985136827225
50.741379,,0.00015267368467475706,51.151,0.5059999823570251,-2.4986239828361483
51.206897,,0.0001444265441424533,51.615,0.5270000100135803,-2.4526924357346895
51.672414,,0.0001353116684149923,52.082,0.5249999761581421,-2.456842437896477
52.137931,,0.00012532428535622024,52.548,0.5180000066757202,-2.4718640081241268
52.603448,,0.00011446253844685893,53.014,0.5460000038146973,-2.410618056914575
53.068966,,0.00010272761981583408,53.481,0.5130000114440918,-2.4822619395613224
53.534483,,9.01238981592977e-05,53.944,0.5199999809265137,-2.4667605134833117
54.0,,7.665904086954467e-05,54.407,0.5170000195503235,-2.473054213878127
54.465517,,6.234412968722739e-05,54.87,0.5260000228881836,-2.45322037882439
54.931034,,4.71937691835282e-05,55.341,0.47699999809265137,-2.559772211158593
55.396552,,3.122618737437067e-05,55.803,0.5199999809265137,-2.4659195366368474
55.862069,,1.4463327766444664e-05,56.269,0.503000020980835,-2.502822027096054
56.327586,,3.0690678651065675e-06,56.732,0.5149999856948853,-2.476584151457749
56.793102999999995,,2.1341386664936375e-05,57.198,0.5139999985694885,-2.4787119192100135
57.258621000000005,,4.0320082544151005e-05,57.663,0.4860000014305115,-2.539708677090924
57.724138,,5.996762537004359e-05,58.129,0.5210000276565552,-2.463496716089682
58.189655,,8.024246217302469e-05,58.593,0.5009999871253967,-2.5071553635476995
58.655172,,0.00010109899103148141,59.058,0.5320000052452087,-2.43974457190813
59.120689999999996,,0.0001224875482790026,59.523,0.5339999794960022,-2.435551911945481
59.586207,,0.00014435440965914048,59.988,0.5189999938011169,-2.468428126678834
60.051724,,0.0001666418060305789,60.456,0.5120000243186951,-2.4839018091086604
60.517241,,0.00018928795420019906,60.918,0.5239999890327454,-2.458001598323129
60.982758999999994,,0.00021222710343303053,61.381,0.492000013589859,-2.5279750350783172
61.448276,,0.00023538959815642174,61.851,0.5400000214576721,-2.4236620413534555
61.913793,,0.0002587019573409332,62.315,0.5180000066757202,-2.471851205112644
62.379310000000004,,0.0002820869710024425,62.777,0.5239999890327454,-2.459026723650568
62.84482800000001,,0.0003054638142287492,63.243,0.515999972820282,-2.4766845782440017
63.310345000000005,,0.0003287481790895964,63.708,0.5139999985694885,-2.481244855065534
63.775862000000004,,0.0003518524247415008,64.173,0.5260000228881836,-2.4552721430040982
64.241379,,0.0003746857459881489,64.641,0.5099999904632568,-2.4902643556455075
64.706897,,0.00039715436050341145,65.106,0.5270000100135803,-2.453319468918538
65.172414,,0.00041916171486732444,65.566,0.5109999775886536,-2.4882255361097
65.637931,,0.0004406087095057511,66.032,0.503000020980835,-2.505656455944859
66.103448,,0.0004613939425619661,66.504,0.5350000262260437,-2.4358954499333563
66.56896599999999,,0.0004814139726631943,66.962,0.5400000214576721,-2.424911962783163
67.03448300000001,,0.000500563600477311,67.43,0.49799999594688416,-2.516281583568152
67.5,,0.0005187361688845939,67.892,0.5130000114440918,-2.4834297944799477
67.965517,,0.0005358238815167675,68.356,0.5149999856948853,-2.4788675262211193
68.431034,,0.000551718139340746,68.825,0.5210000276565552,-2.4655631674808847
68.896552,,0.0005663098948876497,69.291,0.5329999923706055,-2.439166236493899
69.362069,,0.0005794900236490299,69.755,0.6240000128746033,-2.2406404555573967
69.827586,,0.0005911497120819787,70.221,0.5080000162124634,-2.493086457132374
70.293103,,0.0006011808615831825,70.685,0.4909999966621399,-2.5298491980837206
70.75862099999999,,0.0006094765077091847,71.15,0.5180000066757202,-2.4707651995198554
71.22413800000001,,0.0006159312538364531,71.615,0.5149999856948853,-2.4770621941182713
71.689655,,0.0006204417183705293,72.081,0.5099999904632568,-2.4877451106499016
72.15517200000001,,0.0006229069945288679,72.54,0.515999972820282,-2.4744983935995797
72.62069,,0.0006232291216372374,73.006,0.5090000033378601,-2.4896150220824005
73.086207,,0.0006213135667950502,73.474,0.5320000052452087,-2.439417243839302
73.551724,,0.0006170697156810473,73.937,0.5059999823570251,-2.4960209822884067
74.017241,,0.0006104113711876955,74.4,0.43799999356269836,-2.644178785619105
74.482759,,0.0006012572584908092,74.87,0.5230000019073486,-2.4590553510100777
74.94827599999999,,0.0005895315350806355,75.333,0.5230000019073486,-2.459165375761251
75.41379300000001,,0.0005751643042022903,75.796,0.5210000276565552,-2.463675882731962
75.87931,,0.0005580921300773825,76.262,0.5099999904632568,-2.4878330875697285
76.344828,,0.0005382585532052832,76.728,0.5080000162124634,-2.4924155126351297
76.810345,,0.0005156146039721658,77.194,0.5379999876022339,-2.427307157293587
77.275862,,0.0004901193127290528,77.659,0.515999972820282,-2.475505888626142
77.741379,,0.0004617402144370452,78.124,0.5080000162124634,-2.4932128024250075
78.206897,,0.0004304538459190704,78.589,0.6039999723434448,-2.284340051441715
78.67241399999999,,0.0003962462337032795,79.055,0.5260000228881836,-2.454541152365417
79.137931,,0.00035911337039402886,79.515,0.5360000133514404,-2.4330031137064356
79.603448,,0.00031906167746260456,79.981,0.5170000195503235,-2.474621638352035
80.068966,,0.0002761084523118627,80.448,0.5109999775886536,-2.4878874747129007
80.53448300000001,,0.00023028229743718087,80.91,0.5080000162124634,-2.4945816477216947
81.0,,0.00018162352948093003,81.378,0.5270000100135803,-2.4533052152651393
81.465517,,0.0001301845659594662,81.841,0.5410000085830688,-2.422877157630452
81.931034,,7.603028743071432e-05,82.311,0.5239999890327454,-2.4599397011170354
82.396552,,1.9238372867128704e-05,82.774,0.5299999713897705,-2.4468453400243746
82.86206899999999,,4.01003939964236e-05,83.24,0.515999972820282,-2.477277125117588
83.327586,,0.00010188184955707376,83.704,0.5379999876022339,-2.4292329586440093
83.79310299999999,,0.00016598820867593682,84.17,0.5249999761581421,-2.457400310595304
84.258621,,0.0002322878586122724,84.637,0.5529999732971191,-2.396206183783909
84.72413800000001,,0.00030063519068475536,85.095,0.5339999794960022,-2.437377268976886
85.189655,,0.0003708704717353908,85.566,0.5360000133514404,-2.4327725109653913
85.65517200000001,,0.00044281975741178396,86.025,0.5199999809265137,-2.4673677475271614
86.12069,,0.0005162948492136834,86.497,0.531000018119812,-2.4431320297061463
86.586207,,0.0005910932971712534,86.955,0.5400000214576721,-2.4232545360497224
87.051724,,0.0006669984499350814,87.425,0.527999997138977,-2.449137629084056
87.517241,,0.0007437795539581999,87.888,0.5080000162124634,-2.4924674371257973
87.98275899999999,,0.000821191903336185,88.356,0.5249999761581421,-2.455213114757698
88.448276,,0.0008989770417474086,88.818,0.5210000276565552,-2.4637424504074477
88.913793,,0.0009768630178100454,89.283,0.503000020980835,-2.502811002035352
89.37931,,0.0010545646950422354,89.746,0.5370000004768372,-2.428632325166532
89.844828,,0.0011317841174573783,90.212,0.5049999952316284,-2.4982896646114834
90.310345,,0.0012082109316390959,90.678,0.5070000290870667,-2.4939201771789166
90.775862,,0.0012835228659532584,91.143,0.5080000162124634,-2.491777389007015
91.241379,,0.001357386267412631,91.607,0.5210000276565552,-2.463536976408033
91.706897,,0.0014294566965809645,92.072,0.49300000071525574,-2.524664640257617
92.17241399999999,,0.001499379580670078,92.537,0.5419999957084656,-2.418075308533638
92.63793100000001,,0.00156679092461865,93.003,0.5189999938011169,-2.46838145654969
93.103448,,0.0016313180796662318,93.466,0.5120000243186951,-2.4838555607095163
93.568966,,0.0016925805689831893,93.936,0.5099999904632568,-2.4884565261304137
94.03448300000001,,0.001750190970018897,94.397,0.5059999823570251,-2.4974272181793022
94.5,,0.0018037558526951063,94.866,0.515999972820282,-2.4759011871428993
94.965517,,0.0018528767713998865,95.326,0.5370000004768372,-2.4304053841844486
95.431034,,0.0018971513083536355,95.796,0.515999972820282,-2.4763998198476433
95.896552,,0.0019361741674577852,96.262,0.5379999876022339,-2.428691541264845
96.36206899999999,,0.0019695383191788035,96.721,0.515999972820282,-2.476816355689552
96.827586,,0.0019968361944204278,97.186,0.515999972820282,-2.476977843823677
97.293103,,0.002017660919705297,97.651,0.5070000290870667,-2.49670982043599
97.758621,,0.0020316075862413293,98.117,0.5230000019073486,-2.461934944844858
98.224138,,0.0020382745566286282,98.582,0.5059999823570251,-2.499012247119121
98.689655,,0.002037264820754363,99.048,0.5180000066757202,-2.472864555135881
99.155172,,0.0020281873950454147,99.515,0.5080000162124634,-2.4946035881953526
99.62069,,0.002010658728765231,99.981,0.5339999794960022,-2.4378691989341603
100.086207,,0.001984304091864459,100.441,0.515999972820282,-2.476955795393015
100.551724,,0.0019487589896253126,100.91,0.5230000019073486,-2.4615409362955063
101.017241,,0.0019036706829328814,101.374,0.503000020980835,-2.504920325338426
101.482759,,0.0018486997738063964,101.836,0.5210000276565552,-2.465488322858303
101.948276,,0.00178352165112301,102.304,0.5379999876022339,-2.4282186445330187
102.413793,,0.0017078277046744118,102.766,0.5379999876022339,-2.4279759313628446
102.87931,,0.0016213266441736398,103.233,0.515999972820282,-2.4756613537390857
103.344828,,0.0015237463683723813,103.7,0.5199999809265137,-2.4667081730647467
103.810345,,0.001414836034542475,104.165,0.515999972820282,-2.475198403763004
104.275862,,0.0012943671208973373,104.63,0.515999972820282,-2.4749952973695803
104.741379,,0.0011621332245384088,105.095,0.48100000619888306,-2.5510731441544485
105.206897,,0.0010179508586115429,105.555,0.515999972820282,-2.4746799803753996
105.672414,,0.0008616635696861281,106.021,0.5230000019073486,-2.4593265371870126
106.13793100000001,,0.000693146557864773,106.489,0.5410000085830688,-2.42004736001078
106.603448,,0.0005123047651567484,106.952,0.5070000290870667,-2.4940987870807856
107.068966,,0.00031906459977180636,107.415,0.515999972820282,-2.4745105056404446
107.534483,,0.00011337388017452009,107.885,0.515999972820282,-2.4745713573239563
108.0,,0.00010477872697705545,108.348,0.5299999713897705,-2.4441698694937477
108.46551699999999,,0.00033534578422392616,108.811,0.5070000290870667,-2.49441348729629
108.931034,,0.0005782446315422358,109.276,0.5139999985694885,-2.479328977371613
109.396552,,0.0008334110912496515,109.746,0.5099999904632568,-2.4882354794126074
109.862069,,0.0011007921594060562,110.212,0.5339999794960022,-2.436159025238799
110.32758600000001,,0.001380228236217041,110.671,0.5130000114440918,-2.4821336431458634
110.793103,,0.0016713729332792416,111.137,0.5099999904632568,-2.4888978775575543
111.258621,,0.0019738702345139694,111.604,0.6079999804496765,-2.275615113500926
111.724138,,0.0022876599326906847,112.07,0.515999972820282,-2.4762633499164886
112.189655,,0.0026128564711517762,112.53,0.5170000195503235,-2.4742797965744057
112.655172,,0.0029490240031612804,112.996,0.5249999761581421,-2.4570242446567874
113.12069,,0.0032948472903198203,113.466,0.5120000243186951,-2.485493239891177
113.586207,,0.003649360177393988,113.929,0.5099999904632568,-2.48996647699992
114.051724,,0.0040136028813446,114.397,0.527999997138977,-2.4508325300054494
114.51724100000001,,0.0043894188725518805,114.859,0.5170000195503235,-2.474842617307482
114.982759,,0.004775088597012358,115.326,0.5139999985694885,-2.481385920110741
115.448276,,0.0051643220223084076,115.788,0.5149999856948853,-2.4791773426824544
115.913793,,0.005554435062522788,116.254,0.5289999842643738,-2.4486100584212642
116.37931,,0.005954945477372835,116.718,0.5120000243186951,-2.485546721078959
116.84482799999999,,0.006377618440766411,117.184,0.5139999985694885,-2.4810588551086297
117.310345,,0.006810850142913191,117.649,0.5210000276565552,-2.4656517206750963
117.77586199999999,,0.007219703705723551,118.114,0.5289999842643738,-2.4480448223291633
118.241379,,0.0075986507389955585,118.578,0.5379999876022339,-2.428243000645162
118.70689700000001,,0.008013767135168083,119.045,0.5120000243186951,-2.4846838278856818
119.172414,,0.008528357003514647,119.511,0.5379999876022339,-2.4278318185709415
119.63793100000001,,0.009056080431131158,119.97,0.515999972820282,-2.475558117668576
120.103448,,0.00938739975542207,120.437,0.5260000228881836,-2.4535772011330157
120.568966,,0.009480023312963028,120.9,0.5289999842643738,-2.4468627130442093
121.034483,,0.009613337837310207,121.37,0.550000011920929,-2.400952867272547
121.5,,0.010044446159423329,121.833,0.5299999713897705,-2.444392607062564
121.96551699999999,,0.010672851072597928,122.304,0.5139999985694885,-2.4791471059935506
122.431034,,0.011364146237378034,122.766,0.5230000019073486,-2.459468823695338
122.896552,,0.012242696872451051,123.225,0.5210000276565552,-2.463791043047966
123.362069,,0.01296734134320215,123.696,0.5299999713897705,-2.4441843199688034
123.827586,,0.01203812285804908,124.161,0.5540000200271606,-2.391932634233898
124.293103,,0.007915446866237383,124.626,0.5149999856948853,-2.4769693482212616
124.758621,,0.0010351419946229262,125.092,0.5260000228881836,-2.4531051993087356
125.22413800000001,,0.006087927650389709,125.556,0.515999972820282,-2.4750217874585663
125.68965500000002,,0.011102574307277333,126.015,0.5299999713897705,-2.444675260280509
126.15517200000001,,0.013676922490970616,126.485,0.515999972820282,-2.475350397482135
126.62069000000001,,0.01487891567459035,126.947,0.515999972820282,-2.4755386033402456
127.086207,,0.015273497038129122,127.415,0.5199999809265137,-2.4670205089849384
127.55172400000001,,0.014320348994734833,127.877,0.5360000133514404,-2.432360163136025
128.017241,,0.011638449448946184,128.341,0.492000013589859,-2.5284142880168075
128.48275900000002,,0.008231317919720945,128.81,0.5289999842643738,-2.447987862761206
128.948276,,0.005990993125337124,129.276,0.5149999856948853,-2.478656355277877
129.413793,,0.005991329541375001,129.739,0.5170000195503235,-2.4744447809549257
129.87931,,0.007374884654670649,130.205,0.5180000066757202,-2.47238594344731
130.344828,,0.008060017242643316,130.67,0.5400000214576721,-2.424545175529491
130.81034499999998,,0.00685527390493767,131.137,0.5210000276565552,-2.4659955695061773
131.275862,,0.0049154317422827765,131.596,0.5149999856948853,-2.4790889051881257
131.741379,,0.004568595255444331,132.062,0.5130000114440918,-2.4834328514069863
132.206897,,0.006359968836204289,132.526,0.5180000066757202,-2.4724923263438114
132.67241399999997,,0.007862526437118458,132.992,0.5080000162124634,-2.494199179766931
133.13793099999998,,0.006278354931274713,133.459,0.5120000243186951,-2.485375460712305
133.60344800000001,,0.002137240747664549,133.922,0.5170000195503235,-2.474347127103625
134.06896600000002,,0.0004971267324667402,134.389,0.5120000243186951,-2.4850834525050582
134.53448300000002,,0.0019306325523133548,134.851,0.49900001287460327,-2.513232549136917
135.0,,0.00854243987887351,135.315,0.5410000085830688,-2.4215447678864153
135.465517,,0.014767777351957388,135.784,0.5210000276565552,-2.4649269199939123
135.931034,,0.017060674933674996,136.25,0.5109999775886536,-2.486522649356057
136.396552,,0.01625338159689674,136.714,0.515999972820282,-2.4754451531638386
136.862069,,0.015900504012488804,137.18,0.5339999794960022,-2.436057279420588
137.327586,,0.018011118736041346,137.644,0.5210000276565552,-2.464224427196756
137.793103,,0.021198263759321573,138.11,0.5210000276565552,-2.4640912649526348
138.258621,,0.022572558857871416,138.575,0.5220000147819519,-2.461805928256496
138.724138,,0.020341275839863705,139.041,0.5189999938011169,-2.468265031020072
139.189655,,0.014449837973427781,139.5,0.5329999923706055,-2.43771912554648
139.655172,,0.00579740248429661,139.966,0.5299999713897705,-2.444243364758726
140.12069,,0.00429302418972657,140.433,0.5540000200271606,-2.3919767659291007
140.586207,,0.014201054888016804,140.897,0.5130000114440918,-2.481354630669372
141.05172399999998,,0.022501617796585736,141.367,0.5130000114440918,-2.4814394664930983
141.51724099999998,,0.028529659790799643,141.829,0.5180000066757202,-2.470660736108787
141.982759,,0.03215633420381804,142.295,0.5299999713897705,-2.4446572171292944
142.44827600000002,,0.03322400617766016,142.76,0.5379999876022339,-2.427388789320939
142.913793,,0.03175672429424573,143.226,0.5339999794960022,-2.436279327253634
143.37931,,0.028550852429523627,143.685,0.5170000195503235,-2.473502143404109
143.844828,,0.02477481029516534,144.15,0.5389999747276306,-2.4257622631071576
144.310345,,0.020800341825385323,144.615,0.5410000085830688,-2.4215931479292796
144.77586200000002,,0.016019167072878326,145.08,0.5270000100135803,-2.4522743474442583
145.241379,,0.010100233182874972,145.545,0.5170000195503235,-2.47422785918803
145.706897,,0.003944525008328558,146.011,0.6209999918937683,-2.247795864337801
146.172414,,0.001058332099581702,146.481,0.5170000195503235,-2.4744969126601424
146.637931,,0.004470759068301693,146.944,0.527999997138977,-2.45062560640248
147.103448,,0.0070264598770030245,147.411,0.5149999856948853,-2.479013067141845
147.568966,,0.009495351513269407,147.873,0.5419999957084656,-2.4202236058399866
148.034483,,0.011829757189248563,148.341,0.5149999856948853,-2.479049126597831
148.5,,0.013553395686147158,148.803,0.5260000228881836,-2.4550540778161314
148.965517,,0.014551573824094536,149.269,0.5090000033378601,-2.492030930495548
149.43103399999998,,0.015153511852094462,149.732,0.5339999794960022,-2.43747597196482
149.89655199999999,,0.015728704880500138,150.198,0.5099999904632568,-2.4896487594972454
150.362069,,0.01663304411134555,150.663,0.48899999260902405,-2.5352639482427017
150.82758600000003,,0.01825479486786119,151.129,0.515999972820282,-2.4762871919065836
151.293103,,0.020362076756554884,151.597,0.5210000276565552,-2.4652275772458787
151.758621,,0.021521766158875005,152.055,0.503000020980835,-2.504268608082104
152.224138,,0.020147752773009942,152.527,0.5170000195503235,-2.473589890308134
152.68965500000002,,0.01638525198815242,152.985,0.5350000262260437,-2.434198276763477
153.155172,,0.012232378506345303,153.455,0.5070000290870667,-2.495030987703966
153.62069,,0.009474188842095914,153.917,0.5400000214576721,-2.42297762055657
154.086207,,0.007830696029832772,154.381,0.5090000033378601,-2.4903738229006276
154.551724,,0.005262518403998924,154.851,0.531000018119812,-2.4423218317769395
155.017241,,4.7137429631988866e-05,155.315,0.531000018119812,-2.442223772289632
155.482759,,0.00725624553456075,155.777,0.5210000276565552,-2.4639384669830093
155.948276,,0.01381407841015068,156.243,0.5230000019073486,-2.4595382040507414
156.413793,,0.01678604856387325,156.708,0.5210000276565552,-2.463882633537952
156.87931,,0.01597304100929536,157.173,0.5109999775886536,-2.485687271103518
157.34482799999998,,0.014292096446113395,157.638,0.5170000195503235,-2.4726639734250124
157.81034499999998,,0.015160626936591605,158.103,0.5099999904632568,-2.487992605840696
158.275862,,0.018727718700351396,158.57,0.49900001287460327,-2.5120631195075274
158.741379,,0.020676181803498585,159.036,0.5249999761581421,-2.4555480632694007
159.20689700000003,,0.01545109169776346,159.504,0.503000020980835,-2.503628085082866
159.672414,,0.0011331466348533633,159.962,0.4959999918937683,-2.5190446012662933
160.137931,,0.018879377448233703,160.426,0.531000018119812,-2.4429688286979245
160.60344800000001,,0.03886481805119628,160.895,0.5410000085830688,-2.4213637574097095
161.06896600000002,,0.05517201501830272,161.359,0.5130000114440918,-2.482545761973882
161.534483,,0.06763652430785225,161.822,0.5170000195503235,-2.4740048210584673
162.0,,0.07675515509874499,162.287,0.47200000286102295,-2.572207622989611
162.465517,,0.07972766782748478,162.75,0.5139999985694885,-2.4808537093705407
162.931034,,0.07015279164098193,163.216,0.5360000133514404,-2.4330528676340926
163.396552,,0.0428522296226404,163.681,0.5249999761581421,-2.4571223442760672
163.862069,,0.0003535764467648307,164.147,0.5720000267028809,-2.354800713167186
164.327586,,0.04989157198498449,164.615,0.5059999823570251,-2.498634844968044
164.793103,,0.09395717759460159,165.081,0.5180000066757202,-2.472502530584533
165.258621,,0.12517363087602368,165.541,0.5040000081062317,-2.5029842954559114
165.72413799999998,,0.14242890815419726,166.007,0.5009999871253967,-2.509471142553623
166.189655,,0.1475571787477265,166.47,0.5130000114440918,-2.483250013646194
166.655172,,0.14176255653700437,166.94,0.5149999856948853,-2.4787892641188174
167.12069,,0.12555820052598987,167.4,0.5320000052452087,-2.4416249490973763
167.58620699999997,,0.1009489729530221,167.87,0.5270000100135803,-2.4523704605085697
168.051724,,0.07229748388985367,168.333,0.5339999794960022,-2.436955954398608
168.517241,,0.04463320035956405,168.795,0.5130000114440918,-2.4825323691310905
168.98275900000002,,0.021286246460443192,169.261,0.5130000114440918,-2.4823520566501687
169.44827600000002,,0.0031127259596406007,169.728,0.515999972820282,-2.475636507425718
169.913793,,0.010616972500293602,170.193,0.5139999985694885,-2.47982003281467
170.37931,,0.021331147310050008,170.655,0.4970000088214874,-2.5166948550351247
170.844828,,0.030873926694269947,171.121,0.5379999876022339,-2.427224368273417
171.310345,,0.04062516572960128,171.587,0.5239999890327454,-2.4575992024607305
171.775862,,0.049950114872911004,172.053,0.5149999856948853,-2.4771041409644368
172.241379,,0.05637572000167062,172.519,0.5189999938011169,-2.4683135399971463
172.706897,,0.058523902771098445,172.985,0.5210000276565552,-2.4639093397483496
173.172414,,0.05836690060734209,173.445,0.5379999876022339,-2.4268556282686666
173.637931,,0.05908675877733705,173.915,0.4880000054836273,-2.535802101792242
174.103448,,0.06079801477034075,174.378,0.5170000195503235,-2.4726666788745097
174.568966,,0.06013856408636993,174.84,0.5379999876022339,-2.4269899931370853
175.034483,,0.05462212657689157,175.311,0.5419999957084656,-2.418376009671472
175.5,,0.04576798891383117,175.774,0.5170000195503235,-2.4729654702652284
175.96551699999998,,0.03697598838531775,176.239,0.527999997138977,-2.449143294961905
176.43103399999998,,0.02973473803777428,176.703,0.515999972820282,-2.4754457339641625
176.896552,,0.023350932914934026,177.169,0.5080000162124634,-2.493044797231864
177.36206900000002,,0.01749672946830592,177.634,0.5249999761581421,-2.4561843370364898
177.827586,,0.013116478648836583,178.1,0.5170000195503235,-2.4737908572855503
178.293103,,0.010615453633936527,178.56,0.5149999856948853,-2.478321307816643
178.758621,,0.00876721524624585,179.025,0.5299999713897705,-2.445805110354927
179.224138,,0.006424416110630982,179.501,0.5149999856948853,-2.478633627377735
179.68965500000002,,0.004317398496548519,179.959,0.531000018119812,-2.4439048110776738
180.155172,,0.0038671532575943962,180.422,0.5289999842643738,-2.4483685047566883
180.62069,,0.004699684496776621,180.892,0.5130000114440918,-2.4833067427042996
181.086207,,0.004687297249082474,181.352,0.5299999713897705,-2.446321238295967
181.551724,,0.002555825900571284,181.822,0.5210000276565552,-2.465950251323415
182.01724099999998,,0.0004908277685519237,182.28,0.5299999713897705,-2.4463329029802057
182.482759,,0.0020396787883484135,182.75,0.515999972820282,-2.4767938459919048
182.948276,,0.0007870046883568072,183.215,0.5109999775886536,-2.487618096365845
183.413793,,0.002705061953736101,183.681,0.5170000195503235,-2.474450692451735
183.87931,,0.007044167628253886,184.147,0.5099999904632568,-2.489582293139355
184.34482799999998,,0.011074447439971019,184.611,0.5170000195503235,-2.474192629402884
184.81034499999998,,0.013890627132785134,185.077,0.527999997138977,-2.4500721970017807
185.27586200000002,,0.01465921771600006,185.541,0.527999997138977,-2.449904609658438
185.74137900000002,,0.013309480184762487,186.006,0.515999972820282,-2.4758735894048436
186.206897,,0.011233075353090066,186.467,0.5090000033378601,-2.490947685448679
186.672414,,0.010159940167452737,186.937,0.5149999856948853,-2.477703521781362
187.137931,,0.009549161600683236,187.397,0.5419999957084656,-2.4187162262948863
187.60344800000001,,0.005656448696346752,187.866,0.5419999957084656,-2.418564759390439
188.06896600000002,,0.005509890450226547,188.329,0.5139999985694885,-2.4794322706786747
188.534483,,0.023715011030425705,188.792,0.5109999775886536,-2.485855559608522
189.0,,0.04341760793574812,189.257,0.5490000247955322,-2.4029793663128656
189.465517,,0.05761100631887676,189.721,0.5400000214576721,-2.4225265462729544
189.931034,,0.06262346793767513,190.187,0.5189999938011169,-2.4682462412489663
190.39655199999999,,0.05927147300311448,190.651,0.5080000162124634,-2.492210251118344
190.862069,,0.05051908659527681,191.117,0.515999972820282,-2.474811805159748
191.327586,,0.03927690503998367,191.582,0.5260000228881836,-2.453086510117731
191.793103,,0.028017738447951284,192.047,0.5099999904632568,-2.488034966985298
192.25862099999998,,0.018657597287894533,192.512,0.5180000066757202,-2.4707220808442627
192.72413799999998,,0.01170837419516003,192.977,0.5070000290870667,-2.494826646241067
193.189655,,0.006025061735712274,193.441,0.5289999842643738,-2.4470547692862357
193.655172,,0.00012079390039414488,193.91,0.515999972820282,-2.475549269519723
194.12069000000002,,0.006171203158422597,194.371,0.5339999794960022,-2.436513905119964
194.586207,,0.011437883039850666,194.84,0.5339999794960022,-2.436696692542989
195.051724,,0.014058536031299088,195.304,0.5180000066757202,-2.471734732848804
195.517241,,0.013823246218886092,195.766,0.5350000262260437,-2.4348691783328413
195.98275900000002,,0.012120612099025038,196.232,0.5120000243186951,-2.485136399268729
196.448276,,0.010514463360832683,196.696,0.5299999713897705,-2.4460613211109354
196.913793,,0.009471484600681906,197.162,0.515999972820282,-2.4766808931523188
197.37931,,0.008671221375979834,197.627,0.5170000195503235,-2.47459520259545
197.844828,,0.007924797550567252,198.092,0.5260000228881836,-2.455052203142472
198.310345,,0.0070886090196861234,198.559,0.5199999809265137,-2.468158578137985
198.775862,,0.005519094804018141,199.024,0.5210000276565552,-2.4659826851370537
199.241379,,0.0026178185688270333,199.485,0.5299999713897705,-2.4463460341638292
199.706897,,0.0009739142645081177,199.955,0.5230000019073486,-2.4615363572009525
200.172414,,0.003409548128741047,200.418,0.5130000114440918,-2.4832334613065252
200.63793099999998,,0.0032146799638160914,200.881,0.5339999794960022,-2.4373660401507777
201.103448,,0.0006214700880410695,201.349,0.5170000195503235,-2.4742637710797974
201.568966,,0.0028877016166791464,201.811,0.5180000066757202,-2.47192691243075
202.034483,,0.006263455532690025,202.277,0.5260000228881836,-2.4543252549668315
202.5,,0.009722259588260672,202.74,0.5109999775886536,-2.48682356371983
202.965517,,0.013642434497747187,203.206,0.5249999761581421,-2.4561374062939354
203.431034,,0.01709946592718283,203.671,0.515999972820282,-2.475562087253791
203.896552,,0.018417223545775116,204.136,0.5170000195503235,-2.4732075944800083
204.36206900000002,,0.017343099730565255,204.601,0.550000011920929,-2.401148642114709
204.827586,,0.015739897265545377,205.066,0.5210000276565552,-2.464182292772718
205.293103,,0.015401123950681649,205.533,0.527999997138977,-2.448805874104824
205.758621,,0.015766119384429202,205.999,0.5249999761581421,-2.4552413284605383
206.224138,,0.014711708071999488,206.467,0.5249999761581421,-2.455169294330315
206.689655,,0.011341589946113641,206.929,0.5170000195503235,-2.4725573547438224
207.155172,,0.007092429124520186,207.396,0.5070000290870667,-2.494335630536278
207.62069,,0.004070225397143043,207.859,0.515999972820282,-2.4747532781442203
208.086207,,0.002955386240894439,208.322,0.5170000195503235,-2.472632624890078
208.551724,,0.002679567154414543,208.785,0.43799999356269836,-2.6448363938726875
209.01724099999998,,0.001745516147219013,209.25,0.5249999761581421,-2.455415292137514
209.482759,,0.0004479488151010127,209.722,0.5090000033378601,-2.4904206700703786
209.948276,,0.003452284021858737,210.18,0.5320000052452087,-2.4404784614766415
210.413793,,0.006245525409604536,210.652,0.5139999985694885,-2.4798751747440977
210.87930999999998,,0.007294725196429294,211.11,0.5009999871253967,-2.5083878267364352
211.344828,,0.004835877400660133,211.581,0.531000018119812,-2.443222028894688
211.810345,,0.001403854589926613,212.04,0.5400000214576721,-2.423804449729588
212.27586200000002,,0.008387291614876271,212.505,0.5419999957084656,-2.419627212871675
212.741379,,0.010955017926186836,212.97,0.5249999761581421,-2.4568286195750946
213.206897,,0.006058735409893018,213.441,0.5529999732971191,-2.3959702163552294
213.672414,,0.004420121396069858,213.903,0.5180000066757202,-2.472341727534732
214.137931,,0.015875476950636288,214.366,0.5199999809265137,-2.468075715958093
214.60344800000001,,0.02561527950575304,214.837,0.531000018119812,-2.4441718645489923
215.068966,,0.03406755570438015,215.296,0.5299999713897705,-2.4463800109520775
215.534483,,0.04158110571326808,215.761,0.5130000114440918,-2.4834138288815844
216.0,,0.04615837065282605,216.227,0.46399998664855957,-2.5901338951441986
216.465517,,0.045637717430924374,216.692,0.5339999794960022,-2.4375660087987616
216.93103399999998,,0.0407942876205028,217.158,0.5289999842643738,-2.4483684962192367
217.39655199999999,,0.034559983421747494,217.624,0.5389999747276306,-2.4264644702641878
217.862069,,0.02858519032998533,218.09,0.5289999842643738,-2.448110101651826
218.327586,,0.02210386537729052,218.556,0.5260000228881836,-2.4544864109371485
218.793103,,0.014331621603060151,219.015,0.5130000114440918,-2.482636045940392
219.25862099999998,,0.006579254287235922,219.485,0.5109999775886536,-2.486813172944752
219.724138,,0.0011624088001660512,219.947,0.49399998784065247,-2.523668631786813
220.18965500000002,,0.0010966727122846396,220.415,0.5210000276565552,-2.4646677710520417
220.65517200000002,,0.0016024739233825875,220.877,0.5419999957084656,-2.4187474557800686
221.12069,,0.002613874893720911,221.345,0.5299999713897705,-2.444734963407524
221.586207,,0.005416922185817473,221.807,0.531000018119812,-2.4424169501299584
222.051724,,0.009332998327440264,222.272,0.5130000114440918,-2.4815151065232848
222.517241,,0.012362643070601089,222.735,0.5070000290870667,-2.4944953691940874
222.98275900000002,,0.013279201470738817,223.201,0.5299999713897705,-2.4443237138760527
223.448276,,0.012987244199726161,223.67,0.5289999842643738,-2.446469282328073
223.913793,,0.0132464321385807,224.135,0.5180000066757202,-2.4704318156403198
224.37931,,0.014368610200677112,224.6,0.5249999761581421,-2.4552095485150547
224.844828,,0.015075185249364829,225.066,0.5249999761581421,-2.455267533684558
225.31034499999998,,0.01450747050668975,225.526,0.5170000195503235,-2.4727825855876966
225.775862,,0.013274696140384483,225.991,0.5299999713897705,-2.4445715721815606
226.241379,,0.012221670906649747,226.459,0.5270000100135803,-2.4512404427555063
226.706897,,0.011261203065515464,226.922,0.5180000066757202,-2.4709989892747033
227.172414,,0.010153706808100914,227.385,0.5210000276565552,-2.464627173945585
227.63793099999998,,0.00951493673484655,227.855,0.5299999713897705,-2.4451920658475372
228.103448,,0.01000461599560615,228.316,0.5370000004768372,-2.4301168088000207
228.56896600000002,,0.011080493512345599,228.786,0.5130000114440918,-2.482577249674552
229.03448300000002,,0.011528015985958854,229.251,0.5220000147819519,-2.4631352888584988
229.5,,0.010871928617676583,229.711,0.5260000228881836,-2.454574703291495
229.965517,,0.009535196451925035,230.176,0.5210000276565552,-2.4656053395744726
230.431034,,0.007955432904907097,230.642,0.4970000088214874,-2.518010256647007
230.896552,,0.006256995606967696,231.107,0.5299999713897705,-2.4462090288947134
231.362069,,0.004704236634410811,231.575,0.527999997138977,-2.4506336861682887
231.827586,,0.0038815849845413707,232.04,0.531000018119812,-2.4441358310804087
232.293103,,0.004100540169518368,232.5,0.5249999761581421,-2.457215628923028
232.758621,,0.004781672964827696,232.965,0.531000018119812,-2.4441210134755122
233.224138,,0.004785141428800961,233.435,0.5090000033378601,-2.491999310164821
233.689655,,0.003482568153302104,233.898,0.5270000100135803,-2.4527042007970152
234.155172,,0.0013459173133835282,234.362,0.5329999923706055,-2.439527602664857
234.62069,,0.0005556435752227325,234.825,0.5270000100135803,-2.452472119726642
235.086207,,0.001513929145632952,235.29,0.4300000071525574,-2.6636569467428726
235.55172399999998,,0.0017212053084026656,235.761,0.5249999761581421,-2.456530634032903
236.01724099999998,,0.0020582402087306133,236.227,0.515999972820282,-2.475976177275105
236.482759,,0.003333607861559673,236.685,0.5170000195503235,-2.4736307329543847
236.94827600000002,,0.005589667159574042,237.151,0.5540000200271606,-2.3928538630884773
237.413793,,0.008005349857096201,237.616,0.5320000052452087,-2.4406209978843276
237.87931,,0.009299968531777636,238.082,0.515999972820282,-2.4753251185157383
238.344828,,0.008319611511140248,238.548,0.515999972820282,-2.4751851534407714
238.810345,,0.004662214378613103,239.013,0.5419999957084656,-2.4184185495880497
239.27586200000002,,0.001128357483450346,239.481,0.5370000004768372,-2.4292111047694247
239.741379,,0.00833686930856936,239.944,0.5630000233650208,-2.372488704520151
240.206897,,0.017108315027786463,240.412,0.515999972820282,-2.4748334501028157
240.672414,,0.028097500676192676,240.874,0.5329999923706055,-2.4377727229537025
241.137931,,0.04065285008743559,241.337,0.5260000228881836,-2.4530290412589904
241.603448,,0.052039035091022125,241.807,0.5379999876022339,-2.4269203989280395
242.068966,,0.059654186100673585,242.265,0.5149999856948853,-2.4770929241124846
242.534483,,0.06378997203985567,242.736,0.5239999890327454,-2.457575979646911
243.0,,0.06637293428459809,243.195,0.5180000066757202,-2.4707637739154746
243.465517,,0.06629130657928614,243.66,0.5239999890327454,-2.4578295676018986
243.93103399999998,,0.057976420697612475,244.125,0.5149999856948853,-2.4775928993847964
244.39655199999999,,0.03672331269688712,244.592,0.5419999957084656,-2.4189378739070686
244.862069,,0.004908478739751444,245.058,0.5080000162124634,-2.493188340775332
245.327586,,0.02876862905028578,245.522,0.5170000195503235,-2.473760243707983
245.793103,,0.056290477087113294,245.987,0.5120000243186951,-2.4848315987589342
246.258621,,0.0754195732324374,246.455,0.5370000004768372,-2.4305361013333413
246.724138,,0.08793087161452379,246.918,0.5230000019073486,-2.461194670870558
247.18965500000002,,0.09460946886960489,247.381,0.5239999890327454,-2.4591555555845392
247.655172,,0.09359681750159894,247.851,0.5180000066757202,-2.472344971167721
248.12069,,0.08346519798866406,248.315,0.550000011920929,-2.402719721687121
248.586207,,0.06638636270940138,248.777,0.5299999713897705,-2.446354682958366
249.051724,,0.0471130474089843,249.243,0.5379999876022339,-2.4289556715293408
249.517241,,0.029107418220901075,249.708,0.5239999890327454,-2.4594545840500976
249.982759,,0.012588671131026987,250.174,0.5149999856948853,-2.479028333553626
250.44827600000002,,0.003845541468280684,250.641,0.5370000004768372,-2.431033053864896
250.913793,,0.021191124356486468,251.107,0.5419999957084656,-2.420045042882814
251.37931000000003,,0.0399693511075908,251.566,0.5440000295639038,-2.4155651661609694
251.844828,,0.06011506478339613,252.032,0.5339999794960022,-2.4372051468652955
252.31034499999998,,0.07907783163850972,252.498,0.5299999713897705,-2.445753801691887
252.77586200000002,,0.09084525291394678,252.964,0.5379999876022339,-2.4281444449107603
253.241379,,0.08877942669385921,253.429,0.5230000019073486,-2.4606353545343373
253.706897,,0.07010304979053511,253.891,0.5210000276565552,-2.464801307169626
254.172414,,0.037567684074473646,254.361,0.5270000100135803,-2.4515417296527553
254.63793099999998,,0.0026663767159588576,254.823,0.5429999828338623,-2.416504480228673
255.10344800000001,,0.043981631532893715,255.289,0.5230000019073486,-2.4599124341864664
255.56896600000002,,0.08034362848428808,255.752,0.5120000243186951,-2.4837321952790177
256.03448299999997,,0.10600818617223882,256.218,0.527999997138977,-2.448753160825487
256.5,,0.11650553239485621,256.685,0.515999972820282,-2.4748044826148194
256.965517,,0.11119990408027568,257.151,0.5419999957084656,-2.418097742197173
257.431034,,0.0942032298127791,257.616,0.5120000243186951,-2.4834278049474547
257.896552,,0.07167529759176101,258.081,0.5130000114440918,-2.4812538590950193
258.362069,,0.048315198445832014,258.54,0.5289999842643738,-2.446434362918601
258.827586,,0.026685626381695797,259.006,0.515999972820282,-2.474828290327481
259.29310300000003,,0.008673995784075057,259.474,0.5329999923706055,-2.4378930151919795
259.758621,,0.004107025882090295,259.936,0.5230000019073486,-2.4598083408719735
260.224138,,0.01136593641444384,260.404,0.5419999957084656,-2.418565712841125
260.689655,,0.014220639907132456,260.866,0.527999997138977,-2.4492364734412466
261.155172,,0.01388054443780064,261.33,0.5379999876022339,-2.427632507695943
261.62068999999997,,0.011279921374454669,261.799,0.5419999957084656,-2.419107537897711
262.086207,,0.008220389177056687,262.265,0.531000018119812,-2.4432635794315667
262.551724,,0.007375246049283921,262.729,0.5410000085830688,-2.4216637860044155
263.017241,,0.010127219840311565,263.195,0.5379999876022339,-2.4283764945140356
263.482759,,0.015115139366085573,263.66,0.5260000228881836,-2.4546818453429657
263.94827599999996,,0.01971357674087808,264.126,0.5289999842643738,-2.448288187219513
264.413793,,0.022547352968593407,264.585,0.5090000033378601,-2.4919801670132378
264.87931,,0.024016516792812553,265.051,0.5419999957084656,-2.4201771527710307
265.34482799999995,,0.024791828140410106,265.515,0.531000018119812,-2.4442045708290254
265.810345,,0.024680464289377518,265.981,0.5199999809265137,-2.4682001743562685
266.27586199999996,,0.02318307586940263,266.452,0.515999972820282,-2.476912993805282
266.741379,,0.020614606204002555,266.914,0.6110000014305115,-2.26990588437751
267.206897,,0.018307065413140533,267.382,0.5289999842643738,-2.448485322450105
267.672414,,0.017813803135546254,267.843,0.5,-2.5115658003535604
268.137931,,0.01969957338563802,268.311,0.5239999890327454,-2.4591527084711147
268.603448,,0.02265045404401393,268.774,0.5249999761581421,-2.4568267683273173
269.06896600000005,,0.02413191729658687,269.239,0.515999972820282,-2.476269620197766
269.53448299999997,,0.022727837867536602,269.703,0.5139999985694885,-2.4804494636604453
270.0,,0.019669863144909386,270.169,0.5170000195503235,-2.4737291167305733
270.465517,,0.017367958658048518,270.633,0.5239999890327454,-2.4582925521205783
270.931034,,0.01669703784648337,271.099,0.5519999861717224,-2.3971071688934478
271.396552,,0.016491999179310508,271.563,0.550000011920929,-2.4012882996953566
271.86206899999996,,0.015475422808586943,272.029,0.5180000066757202,-2.4708414111555155
272.327586,,0.013759409624483434,272.492,0.5299999713897705,-2.444552317287882
272.793103,,0.012331454473696797,272.962,0.5339999794960022,-2.4357150060519923
273.258621,,0.011808670251609692,273.422,0.5040000081062317,-2.500978234718235
273.724138,,0.011970786776220835,273.885,0.5339999794960022,-2.4355524783575997
274.18965499999996,,0.011947162902153757,274.355,0.5440000295639038,-2.4137305782023537
274.655172,,0.010637793565259263,274.818,0.5149999856948853,-2.476907881965074
275.12069,,0.00758426165310104,275.284,0.5260000228881836,-2.4529715138584907
275.586207,,0.0037956013855711852,275.746,0.5299999713897705,-2.4443175517601508
276.051724,,0.0011828994060938329,276.212,0.5199999809265137,-2.466194239044881
276.517241,,0.0006869477532051121,276.678,0.5239999890327454,-2.4575970684425203
276.98275900000004,,0.0012393804035017878,277.143,0.5270000100135803,-2.4512022254011665
277.448276,,0.0009994927092868268,277.608,0.5149999856948853,-2.477506750504266
277.913793,,0.0005777034591897035,278.074,0.5289999842643738,-2.4471812079183044
278.37931,,0.002450452647008508,278.541,0.5199999809265137,-2.4669740835461704
278.844828,,0.0037190926937328865,279.006,0.5419999957084656,-2.419232402635316
279.31034500000004,,0.004823856802814716,279.467,0.5320000052452087,-2.441205014762192
279.77586199999996,,0.006578076223662225,279.936,0.5419999957084656,-2.4195964250225317
280.241379,,0.008746605484913173,280.4,0.5170000195503235,-2.4742272404315866
280.706897,,0.010317566022322745,280.862,0.5370000004768372,-2.4308012075763954
281.172414,,0.010727288852766576,281.33,0.5299999713897705,-2.446176529967845
281.637931,,0.01025738070210467,281.792,0.5320000052452087,-2.4419178747348704
282.10344799999996,,0.00968639546675002,282.258,0.5099999904632568,-2.4899185078662684
282.568966,,0.009830551887733253,282.721,0.5329999923706055,-2.4398498144503056
283.034483,,0.010586687200556543,283.187,0.5170000195503235,-2.4747170082999927
283.5,,0.010047441011160297,283.651,0.5170000195503235,-2.4746944262545747
283.965517,,0.005741646572301724,284.116,0.5199999809265137,-2.4681054515725203
284.431034,,0.0023195778494687,284.581,0.5270000100135803,-2.4527725148754453
284.89655200000004,,0.010803501344064903,285.047,0.531000018119812,-2.4439483640022046
285.362069,,0.01652285457180921,285.515,0.5419999957084656,-2.419849245930004
285.827586,,0.02001862524608031,285.981,0.5090000033378601,-2.4915902118596778
286.293103,,0.024053998419419492,286.444,0.546999990940094,-2.4086315817138146
286.758621,,0.028812811459695293,286.907,0.5249999761581421,-2.456380993150086
287.22413800000004,,0.03039061939232071,287.374,0.5339999794960022,-2.436586620002727
287.689655,,0.024461896921961226,287.837,0.5289999842643738,-2.447293420038259
288.155172,,0.01037628552162928,288.307,0.5370000004768372,-2.429683258046722
288.62069,,0.008288361153064411,288.77,0.5490000247955322,-2.403368954122335
289.086207,,0.025893287100159142,289.236,0.5329999923706055,-2.43807224284659
289.55172400000004,,0.03739816855568118,289.7,0.5249999761581421,-2.455366813211234
290.01724099999996,,0.04044404555395652,290.166,0.5339999794960022,-2.435649350502865
290.482759,,0.035958976174527736,290.63,0.5040000081062317,-2.500927936298229
290.948276,,0.026754514867658646,291.096,0.49000000953674316,-2.531380683386327
291.413793,,0.015408889442924076,291.555,0.5239999890327454,-2.4572927266286144
291.87931,,0.0035494923198399935,292.021,0.5350000262260437,-2.4333471583954136
292.344828,,0.007145973330418177,292.485,0.515999972820282,-2.4747935097413247
292.81034500000004,,0.014145718986603087,292.955,0.5419999957084656,-2.4182311308246756
293.275862,,0.0151360103606572,293.415,0.5450000166893005,-2.411805140741329
293.74137900000005,,0.010028367798115367,293.885,0.5139999985694885,-2.479477417478522
294.206897,,0.0013844497484155553,294.348,0.5299999713897705,-2.44477408681284
294.672414,,0.007450033822524027,294.811,0.5410000085830688,-2.420979878348169
295.13793100000004,,0.014530941864944217,295.276,0.503000020980835,-2.5039504336304437
295.603448,,0.01982254699629565,295.746,0.5460000038146973,-2.410456333973485
296.068966,,0.02398720222380033,296.212,0.5170000195503235,-2.4738248020431763
296.534483,,0.026894000247822417,296.671,0.5230000019073486,-2.460935068820656
297.0,,0.02751648852278358,297.137,0.5339999794960022,-2.4371412130044092
297.46551700000003,,0.025545104567859415,297.604,0.5410000085830688,-2.422045175377498
297.931034,,0.02267876685458409,298.07,0.5339999794960022,-2.4374287383430047
298.396552,,0.021378953212998354,298.533,0.5230000019073486,-2.461501564753782
298.862069,,0.02218697736635227,298.999,0.5180000066757202,-2.472474773220692
299.327586,,0.02309416282252388,299.46,0.5329999923706055,-2.4398450381120753
299.79310300000003,,0.021987197694513027,299.929,0.5109999775886536,-2.4877938024835515
300.258621,,0.0191414823945452,300.39,0.5440000295639038,-2.4158845789931127
300.724138,,0.016756259508872634,300.859,0.527999997138977,-2.450697109942797
301.189655,,0.016224749686369156,301.322,0.5429999828338623,-2.417940319203031
301.65517200000005,,0.016269894242729982,301.785,0.5239999890327454,-2.459228826594574
302.12069,,0.014004836734891451,302.25,0.5170000195503235,-2.474348520243389
302.586207,,0.008012700424276823,302.722,0.5370000004768372,-2.430624006688636
303.05172400000004,,0.0002445511339156885,303.18,0.5189999938011169,-2.4696716195471087
303.517241,,0.005639560275451183,303.645,0.5149999856948853,-2.478207036357252
303.982759,,0.007944566328920922,304.111,0.5299999713897705,-2.445342574930212
304.448276,,0.008512796234583859,304.577,0.5339999794960022,-2.4364425810715664
304.913793,,0.01043199814809109,305.043,0.5149999856948853,-2.4776563275881562
305.37931000000003,,0.014549998260088622,305.508,0.5220000147819519,-2.4622358095449393
305.844828,,0.018616111174506986,305.974,0.5230000019073486,-2.459903042110168
306.310345,,0.019802379416953057,306.437,0.531000018119812,-2.4423396498193735
306.775862,,0.017761811365118077,306.9,0.5709999799728394,-2.3550824562643013
307.241379,,0.015017595736163644,307.367,0.45399999618530273,-2.6098997555791676
307.70689699999997,,0.014511183055272981,307.836,0.5320000052452087,-2.439911816477569
308.172414,,0.017017521441765576,308.295,0.5210000276565552,-2.4638559722833637
308.637931,,0.020807857776264965,308.76,0.49900001287460327,-2.511797577172314
309.103448,,0.023478860749148824,309.226,0.5130000114440918,-2.4813403182979856
309.568966,,0.024079194777538726,309.692,0.5270000100135803,-2.4509137705356077
310.034483,,0.023540486006299047,310.158,0.5339999794960022,-2.4357652443111046
310.5,,0.022971028961076424,310.623,0.515999972820282,-2.47510694192518
310.96551700000003,,0.021897287108832743,311.088,0.515999972820282,-2.4752536544949177
311.431034,,0.018999184304498,311.556,0.5180000066757202,-2.47105953727148
311.896552,,0.014546460604146074,312.021,0.4970000088214874,-2.516986325232523
312.362069,,0.010887852497527628,312.482,0.5419999957084656,-2.4191287981544285
312.827586,,0.009772834662341493,312.951,0.5339999794960022,-2.4367395557265144
313.29310300000003,,0.00993115840210307,313.411,0.515999972820282,-2.4761310011969444
313.758621,,0.00830392973526065,313.881,0.527999997138977,-2.4501524926394778
314.224138,,0.0035341046202996434,314.341,0.5210000276565552,-2.465553036065454
314.689655,,0.0024349033351773104,314.811,0.5270000100135803,-2.4526115058193136
315.155172,,0.006147995653851653,315.277,0.5540000200271606,-2.393894170509147
315.62068999999997,,0.005572404853337643,315.739,0.5210000276565552,-2.465868168350029
316.086207,,0.001614831002551381,316.205,0.5270000100135803,-2.4528457570006776
316.551724,,0.002605347528970494,316.67,0.5230000019073486,-2.4615799047245903
317.017241,,0.004257489338182991,317.136,0.5210000276565552,-2.465926506496072
317.482759,,0.0032257998706012,317.6,0.5210000276565552,-2.4658864019637914
317.94827599999996,,0.0018988644510424487,318.066,0.5419999957084656,-2.4200663384605368
318.413793,,0.002296753659371969,318.53,0.5210000276565552,-2.4657228762501657
318.87931000000003,,0.003984310834716877,318.996,0.5170000195503235,-2.4743194464742913
319.344828,,0.005168940618933604,319.459,0.531000018119812,-2.4436812805604164
319.810345,,0.005020085259151182,319.921,0.5479999780654907,-2.40649168036252
320.275862,,0.004179151783266981,320.389,0.5339999794960022,-2.4368285832006342
320.741379,,0.003578078657255796,320.852,0.5149999856948853,-2.4780527585360095
321.20689699999997,,0.0035912755695697066,321.315,0.5329999923706055,-2.4386667436852725
321.672414,,0.004063284587265243,321.785,0.5299999713897705,-2.4450371132476896
322.137931,,0.004368226656915142,322.25,0.5419999957084656,-2.4187368256866946
322.603448,,0.0034609151507375806,322.714,0.4970000088214874,-2.5166338334008005
323.068966,,0.0006320537437114887,323.18,0.5329999923706055,-2.4380795362350094
323.53448299999997,,0.0034879400837511854,323.644,0.515999972820282,-2.4750162244121685
324.0,,0.007225871146421409,324.11,0.5379999876022339,-2.4270104507423995
324.465517,,0.009545075179373865,324.574,0.5249999761581421,-2.455284166061973
324.931034,,0.010987113336439426,325.04,0.5099999904632568,-2.487943409705057
325.396552,,0.012560940856750757,325.505,0.5239999890327454,-2.4574510455608727
325.86206899999996,,0.014188216038082265,325.97,0.5400000214576721,-2.422629413751752
326.327586,,0.014835656136782413,326.433,0.5149999856948853,-2.4771588799609736
326.793103,,0.013936068482115089,326.896,0.531000018119812,-2.4423880952289774
327.258621,,0.012134540805857243,327.366,0.5249999761581421,-2.455569387827638
327.724138,,0.010644248559107712,327.829,0.5339999794960022,-2.436088745840751
328.189655,,0.010135040545244306,328.295,0.5249999761581421,-2.455837668869054
328.655172,,0.010180419390696221,328.761,0.5419999957084656,-2.418951026799476
329.12068999999997,,0.00960407212966876,329.226,0.5889999866485596,-2.3167084181336066
329.586207,,0.00749337293341884,329.686,0.5180000066757202,-2.471544481043296
330.051724,,0.004113009744397051,330.152,0.5429999828338623,-2.4172253435678983
330.517241,,0.0008242820666500564,330.618,0.5199999809265137,-2.4674729988994297
330.982759,,0.0010360437956033071,331.084,0.5379999876022339,-2.428383868328057
331.44827599999996,,0.0013429787546082163,331.549,0.5490000247955322,-2.4045291347663125
331.913793,,0.0014436261740037465,332.015,0.531000018119812,-2.443835866420861
332.37931,,0.003184379512614801,332.478,0.5139999985694885,-2.4809429560674165
332.844828,,0.0072067060270798525,332.94,0.503000020980835,-2.5049564984226573
333.310345,,0.011956195256409402,333.408,0.5040000081062317,-2.5028043592128033
333.77586199999996,,0.014763421961093972,333.87,0.550000011920929,-2.4025897728905132
334.241379,,0.014157606704435641,334.341,0.515999972820282,-2.4766430145872524
334.706897,,0.010816126612286548,334.803,0.5370000004768372,-2.4308469944658855
335.17241399999995,,0.006241055692626708,335.269,0.5540000200271606,-2.3937431500333615
335.637931,,0.0011587739694942057,335.732,0.531000018119812,-2.443764362057253
336.103448,,0.004327583327512751,336.198,0.5260000228881836,-2.4545522353646656
336.56896600000005,,0.0092682062492735,336.664,0.5630000233650208,-2.3738223168702834
337.034483,,0.011233087003924652,337.129,0.5210000276565552,-2.4651942226045866
337.5,,0.007884479519588702,337.596,0.5400000214576721,-2.4236615160013293
337.965517,,0.0004774975675734051,338.055,0.5249999761581421,-2.4562003711613665
338.431034,,0.01039724010503737,338.527,0.5389999747276306,-2.425559764232061
338.89655200000004,,0.01814045708725403,338.986,0.5490000247955322,-2.4036387080500337
339.36206899999996,,0.023245096306300846,339.455,0.5419999957084656,-2.418763286319645
339.827586,,0.028177858516026194,339.918,0.5360000133514404,-2.431721336767473
340.293103,,0.03351279175758132,340.381,0.5210000276565552,-2.4643033417581917
340.758621,,0.034440296909675046,340.852,0.5210000276565552,-2.4642251660149186
341.224138,,0.02429326521564243,341.315,0.5320000052452087,-2.440203636516962
341.68965499999996,,0.0020596636582215044,341.777,0.492000013589859,-2.5273166878043063
342.155172,,0.025238845077093043,342.243,0.5339999794960022,-2.435805363353266
342.62069,,0.0484433618738893,342.708,0.5170000195503235,-2.472858400118855
343.086207,,0.06340840122757198,343.173,0.550000011920929,-2.401001748208984
343.551724,,0.07177431303013583,343.641,0.5260000228881836,-2.453348825447352
344.01724099999996,,0.07612117430639645,344.107,0.5299999713897705,-2.4447128126399886
344.48275900000004,,0.07604830595209415,344.566,0.5329999923706055,-2.4382719498255483
344.948276,,0.06917924567186862,345.032,0.5379999876022339,-2.4274872337594995
345.413793,,0.05492116977850225,345.504,0.5419999957084656,-2.41889087846147
345.87931,,0.03615978308707421,345.962,0.5289999842643738,-2.4473377887082117
346.344828,,0.01714363706893672,346.43,0.47200000286102295,-2.5716491904794254
346.81034500000004,,0.00042461548811970794,346.892,0.5149999856948853,-2.478097537698268
347.275862,,0.013724998516904617,347.356,0.5299999713897705,-2.4455451800013366
347.741379,,0.02568981375894077,347.825,0.5130000114440918,-2.4827017903815904
348.206897,,0.03560954027946155,348.291,0.5239999890327454,-2.4588453062663063
348.672414,,0.044246127154286746,348.755,0.4880000054836273,-2.537371615041105
349.13793100000004,,0.05328637469087142,349.22,0.5419999957084656,-2.4198032865414505
349.60344799999996,,0.06321440492778875,349.685,0.5419999957084656,-2.4198621106837117
350.068966,,0.07100966782387237,350.151,0.515999972820282,-2.4765438037838425
350.534483,,0.07145001375753685,350.615,0.5540000200271606,-2.393769042180334
351.0,,0.06154283754756673,351.081,0.515999972820282,-2.476548614322779
351.465517,,0.043201578596926395,351.545,0.5379999876022339,-2.42858666834388
351.93103399999995,,0.021299027509492183,352.011,0.515999972820282,-2.4764643964539164
352.396552,,2.260736202980557e-05,352.474,0.5199999809265137,-2.4676783734194703
352.862069,,0.01852964169611939,352.936,0.5289999842643738,-2.4479827316142098
353.32758600000005,,0.032666321325644114,353.404,0.5339999794960022,-2.436987625528469
353.793103,,0.04111108012352475,353.866,0.515999972820282,-2.47609056978457
354.258621,,0.043875230944758856,354.334,0.5199999809265137,-2.4672563308594375
354.72413800000004,,0.04247849096881263,354.796,0.5339999794960022,-2.4366323568014883
355.189655,,0.0382375932266178,355.262,0.5289999842643738,-2.4474026718305746
355.655172,,0.03110328822173749,355.728,0.5429999828338623,-2.4167820030775387
356.12069,,0.02090502940714687,356.193,0.531000018119812,-2.4428128561178837
356.586207,,0.009332671015767555,356.659,0.5299999713897705,-2.444889048190605
357.05172400000004,,0.0001414248054695398,357.125,0.515999972820282,-2.475301448143374
357.517241,,0.004754210553537504,357.589,0.5149999856948853,-2.477408414850057
357.982759,,0.004908777899031315,358.054,0.5460000038146973,-2.4098173872051842
358.448276,,0.003933408162034935,358.52,0.46299999952316284,-2.5906130649937817
358.913793,,0.005184613500038879,358.986,0.5230000019073486,-2.4598847061316698
359.37931000000003,,0.009321614230643442,359.449,0.5379999876022339,-2.4272174592592033
359.844828,,0.014218582311704768,359.911,0.5289999842643738,-2.446857431647858
360.310345,,0.01718706436449208,360.381,0.5490000247955322,-2.4033345608935672
360.775862,,0.01732081266953424,360.844,0.5260000228881836,-2.4535098578331667
361.241379,,0.01612906547361936,361.307,0.5339999794960022,-2.4361614009402586
361.706897,,0.016084515574609527,361.77,0.5419999957084656,-2.418824480569678
362.172414,,0.018264936137627627,362.235,0.5389999747276306,-2.425461159439163
362.63793100000004,,0.021137424947375104,362.701,0.5460000038146973,-2.4103163610882516
363.103448,,0.0217505847425601,363.166,0.5099999904632568,-2.4888559965154493
363.568966,,0.0183872850739128,363.633,0.5529999732971191,-2.395282002914622
364.034483,,0.012202450158604255,364.099,0.5210000276565552,-2.465102733778401
364.5,,0.006314272709091742,364.563,0.5320000052452087,-2.4412351225687723
364.96551700000003,,0.0032464218178988135,365.029,0.49000000953674316,-2.5328275098345907
365.431034,,0.0030015502294146344,365.501,0.5270000100135803,-2.452296455589235
365.896552,,0.00338983730178036,365.96,0.5270000100135803,-2.4523624681495746
366.362069,,0.0023146023592472034,366.423,0.5139999985694885,-2.480735718856344
366.827586,,0.00017322350096044613,366.886,0.5389999747276306,-2.4263037469842135
367.29310300000003,,0.0022289585501511864,367.356,0.5130000114440918,-2.4829650885225805
367.758621,,0.002477075376772399,367.819,0.5339999794960022,-2.437212152109478
368.224138,,0.0013050923357084863,368.284,0.5419999957084656,-2.4197633528663176
368.689655,,0.00028662933238032335,368.747,0.5210000276565552,-2.465477554800077
369.155172,,0.0023701650959695496,369.212,0.5199999809265137,-2.4676030418632955
369.62068999999997,,0.005860914018689223,369.678,0.5329999923706055,-2.439213289927485
370.086207,,0.010761998898991168,370.143,0.5680000185966492,-2.362880161963844
370.55172400000004,,0.015417150802987998,370.607,0.5419999957084656,-2.4194330952172693
371.017241,,0.018007864761234275,371.073,0.5260000228881836,-2.454191249060515
371.482759,,0.018406057337483513,371.538,0.5329999923706055,-2.4388364809480123
371.948276,,0.017721554558118177,372.003,0.5260000228881836,-2.453981934742148
372.413793,,0.016111995825229174,372.467,0.5249999761581421,-2.456058280837312
372.87931000000003,,0.01215546423985108,372.936,0.5389999747276306,-2.4254604055700297
373.344828,,0.0047316098892842,373.397,0.5419999957084656,-2.418835566968156
373.810345,,0.005387593506912976,373.866,0.5339999794960022,-2.4361863043905054
374.275862,,0.016104380693377485,374.326,0.5289999842643738,-2.447014052376725
374.741379,,0.025276822870910483,374.796,0.5210000276565552,-2.4643930608141633
375.20689699999997,,0.03126967366519816,375.261,0.5400000214576721,-2.4229654982903077
375.672414,,0.033441803835007916,375.721,0.5230000019073486,-2.4599868277516133
376.137931,,0.033009428864030986,376.186,0.5239999890327454,-2.4578105481247814
376.603448,,0.032787279849104047,376.651,0.5199999809265137,-2.466545726669031
377.068966,,0.034749885970226865,377.117,0.5410000085830688,-2.420831760017824
377.53448299999997,,0.03759287932229703,377.582,0.5519999861717224,-2.3969193187287234
378.0,,0.03770373481752639,378.048,0.5049999952316284,-2.499381710180239
378.465517,,0.03311768841386393,378.515,0.5419999957084656,-2.4188495612302394
378.931034,,0.025839949302010168,378.981,0.5299999713897705,-2.4450804924073983
379.396552,,0.019670806666928886,379.441,0.5299999713897705,-2.445173805780971
379.862069,,0.016288860161812906,379.911,0.5149999856948853,-2.477950650716394
380.327586,,0.014216131293567875,380.374,0.5270000100135803,-2.4519050982883592
380.79310300000003,,0.011312198669717798,380.836,0.5460000038146973,-2.410606665368512
381.258621,,0.0072394076669281045,381.308,0.527999997138977,-2.4499123194636647
381.724138,,0.003109830540997392,381.77,0.5329999923706055,-2.439100611614595
382.189655,,0.00042872987884640676,382.235,0.5180000066757202,-2.4718514288968727
382.655172,,0.003782064598505165,382.7,0.515999972820282,-2.4762679119275717
383.12068999999997,,0.007311121186305042,383.165,0.5379999876022339,-2.4283829350466055
383.586207,,0.010707223140261598,383.629,0.5220000147819519,-2.463271048226528
384.051724,,0.013967927489198933,384.095,0.5450000166893005,-2.413175289726701
384.517241,,0.01833196103099209,384.559,0.5040000081062317,-2.5024964170402226
384.982759,,0.025216696898613854,385.025,0.5490000247955322,-2.404437456739105
385.44827599999996,,0.03408931831059291,385.485,0.5180000066757202,-2.4719400989223588
385.913793,,0.042294522352706726,385.955,0.515999972820282,-2.4762476888322476
386.37931,,0.04764040149363618,386.418,0.5299999713897705,-2.4456845778306664
386.84482799999995,,0.05059085067335919,386.881,0.5339999794960022,-2.4368971067849317
387.310345,,0.05301008364518352,387.352,0.5419999957084656,-2.419385917572327
387.775862,,0.05486946379105367,387.814,0.5289999842643738,-2.447619755791977
388.241379,,0.05303668031754264,388.28,0.5199999809265137,-2.46713559077847
388.70689699999997,,0.04365945471153885,388.742,0.46399998664855957,-2.589049018205678
389.172414,,0.02552410202533943,389.208,0.5299999713897705,-2.4451721737665704
389.637931,,0.0011926970628927656,389.675,0.515999972820282,-2.475593485912906
390.103448,,0.024431850262794617,390.14,0.5379999876022339,-2.427590803859271
390.56896600000005,,0.046206436441505495,390.607,0.531000018119812,-2.4427779221951784
391.03448299999997,,0.060246272508299205,391.065,0.5249999761581421,-2.4557972730167843
391.5,,0.06503222856997559,391.53,0.5320000052452087,-2.440506411359949
391.965517,,0.061957804057068966,391.996,0.5130000114440918,-2.4818741304752976
392.431034,,0.054251767525735115,392.467,0.515999972820282,-2.47532648849193
392.896552,,0.04457545922937286,392.929,0.5210000276565552,-2.464436511322743
393.36206899999996,,0.03370762101157419,393.396,0.48399999737739563,-2.5450653267826944
393.827586,,0.02174473297385646,393.859,0.5370000004768372,-2.4296305183816114
394.293103,,0.009871477149349621,394.322,0.5109999775886536,-2.4863219060891932
394.75862099999995,,1.9435388147625243e-05,394.785,0.5199999809265137,-2.4667715690714993
395.224138,,0.006988165065995356,395.25,0.5460000038146973,-2.4101929526489196
395.68965499999996,,0.011943185663895992,395.715,0.5320000052452087,-2.44076612846381
396.155172,,0.015844598131674482,396.18,0.5180000066757202,-2.4713431254630422
396.62069,,0.01892504747574229,396.648,0.5270000100135803,-2.451813316139725
397.086207,,0.021219348546274785,397.114,0.5149999856948853,-2.4780351536155707
397.551724,,0.022996661839713634,397.581,0.531000018119812,-2.4432523351343205
398.017241,,0.024008229097800517,398.04,0.5360000133514404,-2.432429739252604
398.48275900000004,,0.0230157207896328,398.505,0.5419999957084656,-2.4194209436919056
398.94827599999996,,0.018902150659996335,398.97,0.546999990940094,-2.408581088875317
399.413793,,0.012208304443008612,399.44,0.5120000243186951,-2.484876461996352
399.87931,,0.005032494359347147,399.903,0.5139999985694885,-2.4805514952328385
400.344828,,0.0008438977805924025,400.371,0.527999997138977,-2.4500719077318522
400.810345,,0.005471521240744267,400.833,0.5400000214576721,-2.4239376616433796
401.27586199999996,,0.01007320159822776,401.304,0.515999972820282,-2.476222798522848
401.741379,,0.015049878815050786,401.767,0.5419999957084656,-2.4195637296832797
402.206897,,0.019084440345250316,402.225,0.5299999713897705,-2.4456822511824514
402.672414,,0.02030204801411257,402.69,0.5299999713897705,-2.445646727947206
403.137931,,0.018075414683903477,403.155,0.5249999761581421,-2.4564958571475803
403.60344799999996,,0.013653817397366722,403.622,0.5370000004768372,-2.430300801612956
404.068966,,0.009205865093091722,404.088,0.5299999713897705,-2.4454945504406496
404.534483,,0.006278167686541071,404.553,0.5210000276565552,-2.4650417752313705
405.0,,0.004951068710214133,405.018,0.546999990940094,-2.408334684736445
405.465517,,0.004134020200597828,405.481,0.5540000200271606,-2.393020919140583
405.931034,,0.0025240143895008675,405.951,0.5260000228881836,-2.4539607030181854
406.39655200000004,,0.00039876172491171076,406.415,0.5540000200271606,-2.3928991222558333
406.862069,,0.00386671871925193,406.877,0.5460000038146973,-2.410273252996974
407.327586,,0.006330223253115492,407.341,0.5299999713897705,-2.4450825571333086
407.793103,,0.006758215319637447,407.811,0.5199999809265137,-2.4668281192979173
408.258621,,0.005483398184167554,408.276,0.5270000100135803,-2.451546469905923
408.72413800000004,,0.0037460214514996545,408.739,0.515999972820282,-2.475491385256102
409.18965499999996,,0.0026267322246557715,409.205,0.5260000228881836,-2.4536956683094
409.655172,,0.0025284269781064863,409.67,0.5249999761581421,-2.455876331143215
410.12069,,0.0033408520719542464,410.136,0.546999990940094,-2.4079580189368643
410.586207,,0.0046452708512785094,410.6,0.5410000085830688,-2.421050598707095
411.05172400000004,,0.005795385254463645,411.066,0.5460000038146973,-2.4101856108784587
411.51724099999996,,0.006337880556752321,411.526,0.5320000052452087,-2.440721563086913
411.982759,,0.006635950648079823,411.991,0.5339999794960022,-2.4364049528654856
412.448276,,0.007621221193935524,412.459,0.515999972820282,-2.4756662002368546
412.913793,,0.00942333264143057,412.922,0.5519999861717224,-2.3972837321239995
413.37931,,0.010552738135769577,413.385,0.5260000228881836,-2.4539787750827937
413.844828,,0.00914420180402167,413.855,0.515999972820282,-2.4758158733005726
414.31034500000004,,0.005100331897218484,414.319,0.5429999828338623,-2.4170419202472533
414.775862,,0.0005284255373644275,414.781,0.5339999794960022,-2.4366963673182456
415.241379,,0.0020974639885744245,415.247,0.5270000100135803,-2.451989091521338
415.706897,,0.0018494595705335016,415.712,0.5339999794960022,-2.4367756726685936
416.172414,,0.0005756849214579731,416.177,0.5260000228881836,-2.454235717919762
416.63793100000004,,0.0038944370783709826,416.644,0.5720000267028809,-2.354041252923056
417.103448,,0.0068141861078072526,417.11,0.5210000276565552,-2.4651671520498843
417.568966,,0.008354933836883642,417.574,0.5249999761581421,-2.4564596567092534
418.034483,,0.008714590771904597,418.04,0.5389999747276306,-2.425958397187643
418.5,,0.00956249486660207,418.504,0.5339999794960022,-2.43684409443973
418.96551700000003,,0.012390889065927944,418.969,0.5170000195503235,-2.4738668996623736
419.43103399999995,,0.016644313292066015,419.43,0.5249999761581421,-2.4564183210859296
419.896552,,0.020608678746874314,419.899,0.5329999923706055,-2.4389649527817028
420.362069,,0.024198483247377937,420.36,0.531000018119812,-2.443293880151856
420.827586,,0.02935741668404196,420.83,0.5149999856948853,-2.4781210472732624
421.293103,,0.03691952364906577,421.296,0.5540000200271606,-2.3931203021808147
421.758621,,0.04444843250653637,421.761,0.5419999957084656,-2.419228824079043
422.22413800000004,,0.04869578730414673,422.226,0.5199999809265137,-2.4671230292973663
422.689655,,0.049347143595788935,422.686,0.5360000133514404,-2.4322294660515875
423.15517200000005,,0.04827073753093484,423.151,0.5419999957084656,-2.419124178234196
423.62069,,0.04498598422859081,423.618,0.5270000100135803,-2.451772764159238
424.086207,,0.035075414744549456,424.085,0.5299999713897705,-2.4452092611161795
424.55172400000004,,0.014643750746493357,424.552,0.5360000133514404,-2.432113814661348
425.017241,,0.014325526958258086,425.01,0.5419999957084656,-2.419022772429813
425.482759,,0.04434175641276341,425.478,0.5249999761581421,-2.456045268877779
425.948276,,0.0681467906983176,425.94,0.5339999794960022,-2.436427996228888
426.413793,,0.08333157137696547,426.411,0.5950000286102295,-2.303524911140466
426.87931000000003,,0.09143314665796645,426.873,0.5450000166893005,-2.4124545195898386
427.344828,,0.09398395263377281,427.341,0.5339999794960022,-2.4364202631414233
427.810345,,0.09076477582628022,427.803,0.5370000004768372,-2.429889412831324
428.275862,,0.08156727581817166,428.269,0.5519999861717224,-2.397219107032041
428.741379,,0.06816507255557963,428.732,0.5429999828338623,-2.416839897376671
429.20689699999997,,0.0536320266474634,429.198,0.5400000214576721,-2.4233920182266027
429.672414,,0.040072407794804775,429.663,0.5360000133514404,-2.432126170089977
430.137931,,0.02785101647478137,430.129,0.5009999871253967,-2.508402161918024
430.603448,,0.017130941175938948,430.593,0.5540000200271606,-2.392960379838583
431.068966,,0.009055776549134786,431.059,0.546999990940094,-2.4082392791052807
431.534483,,0.004355327697386025,431.526,0.5419999957084656,-2.419161027991689
432.0,,0.0013897681628876012,431.991,0.531000018119812,-2.443154665073283
432.46551700000003,,0.0027968492031214746,432.452,0.5389999747276306,-2.42575379134973
432.931034,,0.009085036210601942,432.921,0.5379999876022339,-2.4279595439985147
433.396552,,0.015107118885308093,433.385,0.5249999761581421,-2.4563074999160968
433.862069,,0.01816940320703755,433.848,0.5260000228881836,-2.4541524390385887
434.327586,,0.01853876852908461,434.311,0.5419999957084656,-2.419315279634533
434.79310300000003,,0.01888585382668166,434.781,0.5230000019073486,-2.46072740147292
435.258621,,0.02089435660757324,435.247,0.5540000200271606,-2.3932029827544463
435.724138,,0.02354841915799963,435.712,0.5519999861717224,-2.3975688664560506
436.189655,,0.024906500275629635,436.17,0.5460000038146973,-2.410643345779823
436.655172,,0.024578274002818548,436.637,0.5299999713897705,-2.445499023401071
437.12068999999997,,0.023740927300586384,437.102,0.5329999923706055,-2.438955581587028
437.586207,,0.023099575479753966,437.567,0.5400000214576721,-2.423693110498673
438.051724,,0.02180476587606603,438.033,0.5370000004768372,-2.430212867553877
438.517241,,0.018864706241498195,438.5,0.5299999713897705,-2.445443394108021
438.982759,,0.015001291276942056,438.965,0.5419999957084656,-2.419276230144965
439.448276,,0.01217485074447228,439.427,0.5180000066757202,-2.4715379515181284
439.913793,,0.011378694191541989,439.89,0.5410000085830688,-2.4214015526312536
440.37931000000003,,0.011700829381721888,440.36,0.5540000200271606,-2.393050021132787
440.844828,,0.011557682302111828,440.822,0.5289999842643738,-2.4474859365427752
441.310345,,0.01012806430202024,441.288,0.5379999876022339,-2.4278476733135426
441.775862,,0.007476683089428822,441.751,0.531000018119812,-2.443068775246619
442.241379,,0.003936513025567102,442.217,0.5419999957084656,-2.4190759991334754
442.70689699999997,,0.00014026509077592143,442.681,0.531000018119812,-2.4430157557639105
443.172414,,0.00408960732865722,443.147,0.5239999890327454,-2.458244385775877
443.637931,,0.006855894004190738,443.614,0.5419999957084656,-2.4190107793924636
444.103448,,0.007746866419123196,444.08,0.5170000195503235,-2.4734635198341524
444.568966,,0.007321928081300053,444.544,0.5379999876022339,-2.4277035360581953
445.03448299999997,,0.007054923280116623,445.01,0.5339999794960022,-2.4364147119244106
445.5,,0.007917131283903684,445.471,0.5379999876022339,-2.4277013931940714
445.965517,,0.009527076774677705,445.94,0.5389999747276306,-2.425528665595339
446.431034,,0.010623622032860412,446.403,0.550000011920929,-2.4015734662298533
446.896552,,0.01001951224939235,446.866,0.5680000185966492,-2.3623709187302375
447.36206899999996,,0.007221368296542397,447.334,0.5540000200271606,-2.3928874054901605
447.827586,,0.0027145433116716445,447.796,0.5630000233650208,-2.3732969633811565
448.29310300000003,,0.0020544803483310207,448.261,0.550000011920929,-2.401638763775018
448.758621,,0.005313439777838463,448.728,0.5260000228881836,-2.453948098085033
449.224138,,0.006143384171843268,449.194,0.5419999957084656,-2.419114524134145
449.689655,,0.005224523503056068,449.659,0.550000011920929,-2.401712322372511
450.155172,,0.004250702036391449,450.124,0.5270000100135803,-2.451849899250155
450.62068999999997,,0.004512892896170189,450.589,0.5540000200271606,-2.3930562437006704
451.086207,,0.006051595699214066,451.055,0.5170000195503235,-2.4736968917531565
451.551724,,0.008027916240296171,451.515,0.5460000038146973,-2.410547079552933
452.017241,,0.00976019807859435,451.981,0.5460000038146973,-2.4105772395556113
452.482759,,0.011507841309289587,452.452,0.5659999847412109,-2.3670319013095047
452.94827599999996,,0.01444378534581641,452.913,0.5419999957084656,-2.4193434344260822
453.413793,,0.019823043166272297,453.381,0.550000011920929,-2.4019342312231498
453.87931,,0.027857874298975814,453.844,0.5669999718666077,-2.364912578741955
454.344828,,0.03711614194180978,454.308,0.5529999732971191,-2.395423209684553
454.810345,,0.04514556223878318,454.77,0.5360000133514404,-2.4324641299678937
455.27586199999996,,0.05015334023280511,455.236,0.5720000267028809,-2.35403114295129
455.741379,,0.05240463190439007,455.703,0.5540000200271606,-2.393238940788343
456.206897,,0.05388006860942332,456.169,0.5419999957084656,-2.419368897439386
456.672414,,0.05600761770985542,456.633,0.5329999923706055,-2.438958105553936
457.137931,,0.057072821433925336,457.099,0.5419999957084656,-2.419327633851955
457.603448,,0.05206190241742802,457.565,0.5360000133514404,-2.4323732954786847
458.06896600000005,,0.03628885217384718,458.031,0.574999988079071,-2.34737612330514
458.53448299999997,,0.009941420401912099,458.492,0.5379999876022339,-2.427952514521295
459.0,,0.021348602386513208,458.955,0.5339999794960022,-2.4366312742492346
459.465517,,0.050558434688290806,459.426,0.5540000200271606,-2.393021437869196
459.931034,,0.07329747855614195,459.889,0.5379999876022339,-2.4278427280380237
460.39655200000004,,0.08819114301058498,460.352,0.5640000104904175,-2.3711608714561687
460.86206899999996,,0.09508500389764546,460.822,0.5329999923706055,-2.4386631936331615
461.327586,,0.09417155852983533,461.28,0.5440000295639038,-2.414664620505425
461.793103,,0.08644545648845982,461.749,0.5540000200271606,-2.3928481743328853
462.258621,,0.07387312665760631,462.215,0.5640000104904175,-2.3710351755256878
462.724138,,0.058727270477753044,462.675,0.45500001311302185,-2.608487123604873
463.18965499999996,,0.04300962456559237,463.14,0.5820000171661377,-2.3317857108036546
463.655172,,0.02830488094987353,463.607,0.5540000200271606,-2.392780983644491
464.12069,,0.015509345901415934,464.073,0.5680000185966492,-2.3622776898825437
464.58620699999994,,0.00469229949074095,464.537,0.5370000004768372,-2.4298190886895337
465.051724,,0.00412877846133572,465.003,0.5669999718666077,-2.3644687549466465
465.517241,,0.010063660224653503,465.466,0.5410000085830688,-2.4211283736585405
465.98275900000004,,0.01192598188535723,465.936,0.5389999747276306,-2.4255065661624093
466.448276,,0.009939897396453961,466.396,0.5669999718666077,-2.3645309112186252
466.913793,,0.006138906419349804,466.866,0.5389999747276306,-2.425564312173374
467.37931,,0.0024658374292016224,467.326,0.5690000057220459,-2.3602400442898204
467.844828,,0.0010539327265880476,467.796,0.5540000200271606,-2.3929580213441386
468.31034500000004,,0.0054336663984799844,468.255,0.5419999957084656,-2.4191425316381814
468.77586199999996,,0.010323918900063978,468.725,0.5799999833106995,-2.336396068870637
469.241379,,0.013609723546975358,469.191,0.5540000200271606,-2.3930828909394966
469.706897,,0.013557866448260427,469.652,0.5540000200271606,-2.3931240465916748
470.172414,,0.01042832979152912,470.118,0.5889999866485596,-2.3169105514319424
470.63793100000004,,0.005817194076178655,470.582,0.5419999957084656,-2.4193428385375206
471.10344799999996,,0.0014113924104180858,471.048,0.5640000104904175,-2.3714447881699137
471.568966,,0.001453641462715302,471.515,0.5419999957084656,-2.419403507961538
472.034483,,0.0022297434221489974,471.981,0.5839999914169312,-2.3279236665426413
472.5,,0.0017616746768550782,472.441,0.5419999957084656,-2.4194443166174584
472.965517,,0.0017944356280879422,472.91,0.5680000185966492,-2.362810514316697
473.43103399999995,,0.0036086874144793356,473.371,0.5440000295639038,-2.4151027886455947
473.89655200000004,,0.007626310820828049,473.84,0.5709999799728394,-2.3562772971813666
474.362069,,0.014023672439391057,474.308,0.550000011920929,-2.4020196997807135
474.827586,,0.02254524391228508,474.77,0.5669999718666077,-2.3649664875376977
475.293103,,0.03158655886289273,475.235,0.5400000214576721,-2.42376700980686
475.758621,,0.03869629840788601,475.701,0.5669999718666077,-2.364914603831267
476.22413800000004,,0.042610791980170336,476.166,0.5419999957084656,-2.4193461895492936
476.689655,,0.044030760734137954,476.626,0.5540000200271606,-2.3931630104292765
477.155172,,0.043870252774227514,477.091,0.5410000085830688,-2.42144244764291
477.62069,,0.04143400150195955,477.556,0.5540000200271606,-2.3930741690438286
478.086207,,0.03491048291560652,478.022,0.5540000200271606,-2.3930262999732554
478.55172400000004,,0.023242354502871362,478.485,0.5410000085830688,-2.4212998959723713
479.01724099999996,,0.007283966787072266,478.955,0.5540000200271606,-2.3929289231441144
479.482759,,0.010156527262406881,479.419,0.5360000133514404,-2.432097715210723
479.948276,,0.024972887043237118,479.881,0.5540000200271606,-2.3928379381251834
480.413793,,0.033271061007396956,480.352,0.5669999718666077,-2.3644748856250724
480.87931000000003,,0.033493555263080836,480.815,0.5709999799728394,-2.3557230955325648
481.344828,,0.027612450500994194,481.28,0.5879999995231628,-2.3186527522105984
481.810345,,0.019944830696816407,481.743,0.5709999799728394,-2.3556611797472504
482.275862,,0.014236384017012705,482.208,0.5379999876022339,-2.4275345722203525
482.74137900000005,,0.011410487026779336,482.677,0.5379999876022339,-2.4275217368446604
483.206897,,0.00963703356343497,483.135,0.5540000200271606,-2.3926607056847375
483.672414,,0.0063020912060546925,483.6,0.5540000200271606,-2.3926682787510347
484.13793100000004,,0.0003554449672345857,484.066,0.5669999718666077,-2.364363325374723
484.603448,,0.0066712100692010315,484.531,0.5460000038146973,-2.4101419280343386
485.068966,,0.012163300096904164,484.996,0.5540000200271606,-2.392749456408168
485.534483,,0.015298302947854446,485.467,0.5669999718666077,-2.364472821373034
486.0,,0.018035171511979628,485.929,0.531000018119812,-2.44295785944424
486.46551700000003,,0.02306006691484505,486.393,0.5709999799728394,-2.3558729707335377
486.931034,,0.03147976337776419,486.855,0.5540000200271606,-2.3929761824758535
487.396552,,0.042522136573675665,487.326,0.5450000166893005,-2.412653939721073
487.862069,,0.053882626165758396,487.788,0.5640000104904175,-2.3713316176648354
488.327586,,0.06141585164175436,488.254,0.5529999732971191,-2.395368602446418
488.79310300000003,,0.059916437643085955,488.718,0.5389999747276306,-2.425939464338377
489.258621,,0.04626408615244027,489.183,0.492000013589859,-2.528403190169665
489.724138,,0.022358210478090806,489.648,0.550000011920929,-2.4021051249095624
490.189655,,0.005484695842990987,490.113,0.531000018119812,-2.443556175955705
490.655172,,0.030083088968994857,490.578,0.5419999957084656,-2.4196382394182923
491.12069,,0.04633575747208807,491.043,0.5669999718666077,-2.3652071772734304
491.586207,,0.0517428925582444,491.511,0.5540000200271606,-2.3935500498323985
492.05172400000004,,0.045952012101711286,491.97,0.5730000138282776,-2.352160127201919
492.517241,,0.03101486894479068,492.44,0.5329999923706055,-2.439293959980864
492.982759,,0.011653136412908445,492.903,0.5669999718666077,-2.365191464874675
493.448276,,0.00634647426531417,493.366,0.5460000038146973,-2.410898462886307
493.913793,,0.01939878398646686,493.837,0.5759999752044678,-2.3454788134866638
494.37931000000003,,0.027691673747233973,494.295,0.5379999876022339,-2.4281929245709004
494.844828,,0.03236992059938622,494.761,0.5419999957084656,-2.4193921689457283
495.310345,,0.03130894775149105,495.226,0.5389999747276306,-2.425833359600323
495.775862,,0.019836320725725224,495.693,0.5540000200271606,-2.3930524708794003
496.241379,,0.0030789721186474514,496.159,0.5659999847412109,-2.366803650642413
496.70689699999997,,0.030974364917562586,496.626,0.5540000200271606,-2.392840847347376
497.172414,,0.054190191336790934,497.092,0.5540000200271606,-2.3927364529240007
497.637931,,0.06759159939076073,497.552,0.5669999718666077,-2.364315184252377
498.103448,,0.07282314242465114,498.018,0.5249999761581421,-2.4557285653568406
498.568966,,0.07372780362948471,498.486,0.503000020980835,-2.503582772579765
499.03448299999997,,0.07157969689791414,498.948,0.5540000200271606,-2.3924129464321977
499.5,,0.06528757975716243,499.411,0.5490000247955322,-2.403265503174885
499.96551700000003,,0.05466782641107888,499.881,0.5709999799728394,-2.3553131501928157
500.431034,,0.041838988863559204,500.341,0.5540000200271606,-2.392347164473232
500.89655200000004,,0.02923261989793648,500.812,0.5669999718666077,-2.364041696551607
501.362069,,0.01730432147200089,501.27,0.5690000057220459,-2.359720805471291
501.827586,,0.005201846885421807,501.74,0.5669999718666077,-2.3641334318419793
502.293103,,0.0065408943336382214,502.206,0.5519999861717224,-2.3968863616248672
502.758621,,0.015334419451002982,502.671,0.5429999828338623,-2.416584482265386
503.224138,,0.01940899617281735,503.136,0.5460000038146973,-2.4101541057882576
503.68965499999996,,0.020503902373375044,503.596,0.5460000038146973,-2.4102723085862903
504.15517200000005,,0.022314013855622504,504.062,0.5669999718666077,-2.364647782120418
504.62068999999997,,0.026349446134436086,504.53,0.5630000233650208,-2.373493760413342
505.08620699999994,,0.030494347562604773,504.996,0.5809999704360962,-2.3344096708730246
505.55172400000004,,0.031854242576493046,505.459,0.5379999876022339,-2.428219266716188
506.017241,,0.029989536786374414,505.921,0.5379999876022339,-2.428340564571604
506.48275899999993,,0.026781290472387666,506.389,0.578000009059906,-2.341305643777787
506.948276,,0.023865445453690917,506.851,0.5669999718666077,-2.3653668312204865
507.413793,,0.021213968524091985,507.315,0.5509999990463257,-2.4003027106559114
507.87931,,0.018213262495085016,507.785,0.5460000038146973,-2.4112532391655828
508.344828,,0.015102098269386357,508.251,0.546999990940094,-2.409109926672144
508.810345,,0.012580134403681931,508.715,0.5669999718666077,-2.3655483983154983
509.27586199999996,,0.010458102909396501,509.181,0.574999988079071,-2.34810486664847
509.74137900000005,,0.007764376085197838,509.641,0.5540000200271606,-2.39381600584372
510.20689699999997,,0.004488438342919766,510.106,0.5379999876022339,-2.428609545163558
510.67241399999995,,0.0024152696470734463,510.571,0.574999988079071,-2.3479118649597015
511.13793100000004,,0.0034179555277091146,511.037,0.49000000953674316,-2.532989282640869
511.603448,,0.007173121760571722,511.503,0.5740000009536743,-2.3498586988696677
512.0689659999999,,0.011355063109174881,511.969,0.5440000295639038,-2.4150800235156265
512.534483,,0.013954750607537722,512.43,0.5419999957084656,-2.419288662503101
513.0,,0.014472801703962613,512.899,0.5460000038146973,-2.4104194246653003
513.465517,,0.012902755269646904,513.367,0.5419999957084656,-2.418977934372774
513.931034,,0.008963825776248038,513.829,0.5339999794960022,-2.4362543732492066
514.396552,,0.003139443116660254,514.296,0.546999990940094,-2.4077871152165535
514.862069,,0.0024006851963703627,514.76,0.5669999718666077,-2.3640810566265564
515.327586,,0.005108489557105995,515.226,0.5460000038146973,-2.4097147224148974
515.793103,,0.004449323719647919,515.685,0.5379999876022339,-2.427045620153453
516.258621,,0.0024755160045852715,516.151,0.5659999847412109,-2.365968141674159
516.724138,,0.0017744549115316331,516.618,0.5450000166893005,-2.4116695925216876
517.189655,,0.0030230609960599365,517.084,0.5600000023841858,-2.3789669338049864
517.655172,,0.004631338279139173,517.548,0.5320000052452087,-2.4399749038734213
518.1206900000001,,0.004564584989583756,518.014,0.5540000200271606,-2.392079890278414
518.5862070000001,,0.002463232156796852,518.477,0.5379999876022339,-2.4270026723515614
519.051724,,0.00017979059122527342,518.94,0.5669999718666077,-2.3639135004992355
519.517241,,0.00012385535311129316,519.411,0.5410000085830688,-2.4206747108401325
519.982759,,0.0027292301410429595,519.873,0.550000011920929,-2.401205334212587
520.448276,,0.005711690315950994,520.337,0.5640000104904175,-2.3708609709263935
520.9137929999999,,0.00629678157527964,520.8,0.5669999718666077,-2.3644950178084283
521.37931,,0.004092892065779995,521.265,0.5540000200271606,-2.392995554097884
521.844828,,0.001341606639579667,521.737,0.5509999990463257,-2.3997134475989133
522.310345,,0.0004357170682538051,522.195,0.550000011920929,-2.4020727679609917
522.7758620000001,,0.0016582442530604104,522.66,0.5540000200271606,-2.3935323305064973
523.241379,,0.0033890532031352525,523.126,0.5529999732971191,-2.39587337423884
523.7068969999999,,0.004032484141111443,523.592,0.5669999718666077,-2.36551740144583
524.172414,,0.003372494260124286,524.058,0.5170000195503235,-2.4745735518402507
524.637931,,0.002252213829046483,524.522,0.5690000057220459,-2.3613828997581634
525.103448,,0.001435113503599796,524.988,0.546999990940094,-2.409383590410475
525.568966,,0.0009810756889095538,525.45,0.550000011920929,-2.4028864585134806
526.034483,,0.0005324381780870377,525.919,0.5730000138282776,-2.352783026089517
526.5,,4.8869918517417645e-05,526.382,0.5709999799728394,-2.3571109250083335
526.9655170000001,,0.0004946843061954683,526.852,0.5809999704360962,-2.335259781391139
527.4310340000001,,0.0006236887394398525,527.315,0.5860000252723694,-2.3242675404997195
527.8965519999999,,0.0008036916804682008,527.777,0.5669999718666077,-2.3655314242663534
528.362069,,0.001623461160337775,528.243,0.5950000286102295,-2.304370527147373
528.827586,,0.0031346207679214294,528.708,0.5960000157356262,-2.3020090909017403
529.293103,,0.004652009168498027,529.173,0.5759999752044678,-2.345380315134082
529.7586210000001,,0.005308697917623745,529.641,0.5759999752044678,-2.345166244439653
530.224138,,0.004649186263685243,530.107,0.5669999718666077,-2.3645549119401603
530.689655,,0.002728989319310134,530.566,0.6150000095367432,-2.2597616307790993
531.155172,,6.249571724999646e-05,531.032,0.4909999966621399,-2.5297048563354583
531.62069,,0.003112553461019177,531.504,0.5860000252723694,-2.3225411968080683
532.086207,,0.005801104959561164,531.962,0.574999988079071,-2.346337044084223
532.5517239999999,,0.007890147955640843,532.43,0.5889999866485596,-2.3156930288070474
533.017241,,0.00940669870661832,532.892,0.5680000185966492,-2.3613329716815405
533.482759,,0.00986382799802245,533.356,0.5929999947547913,-2.306790420571329
533.9482760000001,,0.008243871331033764,533.825,0.5839999914169312,-2.3263596238260487
534.413793,,0.0045682614985752,534.291,0.5989999771118164,-2.2936803150764193
534.87931,,0.0010353120318862708,534.755,0.5730000138282776,-2.3503652217856126
535.344828,,0.00030945371566640597,535.22,0.6320000290870667,-2.221903653570516
535.810345,,0.002279557341970561,535.685,0.5889999866485596,-2.3157003722577127
536.275862,,0.0034303079167190415,536.15,0.6179999709129333,-2.252667294401429
536.7413789999999,,0.00029193225175192054,536.614,0.628000020980835,-2.2310570423450695
537.206897,,0.006757390373020187,537.08,0.6169999837875366,-2.2552217496715397
537.672414,,0.013642174415617067,537.545,0.628000020980835,-2.231473663920823
538.137931,,0.01601085181338115,538.011,0.6190000176429749,-2.25131020112914
538.6034480000001,,0.011971799648565177,538.474,0.6830000281333923,-2.1121093426810864
539.0689659999999,,0.0026200601098634885,538.936,0.6340000033378601,-2.219092042831922
539.5344829999999,,0.008528125922714083,539.404,0.6660000085830688,-2.149593757161135
540.0,,0.01713209445743796,539.866,0.625,-2.2391208599891304
540.465517,,0.020867526454812938,540.333,0.6209999918937683,-2.2480171650076355
540.931034,,0.021094964716862313,540.797,0.6579999923706055,-2.167563078396196
541.396552,,0.020905866090388095,541.262,0.6449999809265137,-2.196010136995218
541.862069,,0.021479743744626814,541.728,0.6340000033378601,-2.2200648279144373
542.327586,,0.02107949277451334,542.194,0.6539999842643738,-2.1765440939978276
542.7931030000001,,0.017695242197253956,542.659,0.6660000085830688,-2.150412675435491
543.258621,,0.01193580627106571,543.125,0.6549999713897705,-2.1743494333194975
543.7241379999999,,0.006693662254837042,543.589,0.6539999842643738,-2.1764596101316
544.189655,,0.004002771614077219,544.055,0.6809999942779541,-2.117529246435446
544.655172,,0.0027754436596144102,544.519,0.6949999928474426,-2.086884735976744
545.12069,,8.543050593511376e-05,544.985,0.6380000114440918,-2.2108918343086015
545.5862070000001,,0.005504435490061471,545.448,0.6449999809265137,-2.1954399148957036
546.051724,,0.012426749586051207,545.91,0.7139999866485596,-2.0448914910452
546.517241,,0.01789961848663721,546.381,0.6620000004768372,-2.157944194029935
546.982759,,0.02055529179366784,546.844,0.656000018119812,-2.1707713926675587
547.448276,,0.021029176271110662,547.307,0.6370000243186951,-2.211922260722776
547.9137929999999,,0.020747571997809865,547.77,0.7160000205039978,-2.039573324272345
548.3793099999999,,0.020894515400039095,548.235,0.6370000243186951,-2.2114646617555582
548.844828,,0.02202064721532401,548.7,0.6710000038146973,-2.1371899118181465
549.310345,,0.02363753263491923,549.166,0.640999972820282,-2.202376788275452
549.775862,,0.024320398175757384,549.633,0.6489999890327454,-2.184808504514388
550.241379,,0.02309573937835912,550.099,0.6320000290870667,-2.2217447996607644
550.706897,,0.020809621076007527,550.563,0.6869999766349792,-2.1018594388513234
551.172414,,0.019447952039764824,551.029,0.6449999809265137,-2.1933446577945106
551.637931,,0.01990692205540744,551.492,0.6790000200271606,-2.1192946504603833
552.103448,,0.020897818932265562,551.962,0.6359999775886536,-2.2130426335725133
552.568966,,0.02028854540403427,552.422,0.6420000195503235,-2.20007736766028
553.034483,,0.017073011279503877,552.885,0.6499999761581421,-2.1827929930762013
553.5,,0.011418889207184245,553.355,0.6420000195503235,-2.200400214579062
553.965517,,0.0030288880671854885,553.818,0.6579999923706055,-2.1657478840426405
554.4310340000001,,0.00924639654283713,554.283,0.6890000104904175,-2.0984363386910907
554.896552,,0.0251919920184387,554.746,0.6650000214576721,-2.150963299743761
555.3620689999999,,0.04130400843421696,555.212,0.6259999871253967,-2.236176754410581
555.827586,,0.05262961785757622,555.678,0.6320000290870667,-2.2233519157540464
556.293103,,0.056975174419085214,556.144,0.6039999723434448,-2.28459604532949
556.758621,,0.05630184064633485,556.611,0.6420000195503235,-2.202036649768316
557.224138,,0.053379610726509284,557.07,0.640999972820282,-2.2044243946106175
557.689655,,0.04809954882086737,557.542,0.6570000052452087,-2.169747079991311
558.155172,,0.03825265240401412,558.0,0.6370000243186951,-2.2134674403544192
558.6206900000001,,0.02338322672745842,558.47,0.6430000066757202,-2.200504952197036
559.0862070000001,,0.006506995575015883,558.932,0.6349999904632568,-2.218002283588415
559.5517239999999,,0.008044002156445662,559.4,0.6190000176429749,-2.252885650834141
560.017241,,0.01761358353123275,559.862,0.6309999823570251,-2.2267234335655166
560.482759,,0.022238951814908682,560.33,0.640999972820282,-2.2048748676229377
560.948276,,0.023901480011580524,560.792,0.6190000176429749,-2.252700775186511
561.413793,,0.025315796085423833,561.258,0.6660000085830688,-2.150160450085255
561.87931,,0.028783017609897505,561.722,0.6309999823570251,-2.226233247165304
562.344828,,0.03528238361737325,562.187,0.6340000033378601,-2.2194867235906073
562.8103450000001,,0.04420456587812911,562.652,0.5860000252723694,-2.3238283997137557
563.275862,,0.05388513425023774,563.117,0.6570000052452087,-2.168895309471816
563.7413789999999,,0.06254205937194668,563.582,0.6880000233650208,-2.101097547606161
564.206897,,0.06916046600130327,564.048,0.609000027179718,-2.272947434635762
564.672414,,0.07397742799363297,564.515,0.6460000276565552,-2.1920798884844586
565.137931,,0.0779324440640294,564.98,0.609000027179718,-2.27244691402258
565.603448,,0.08080148515351075,565.444,0.6489999890327454,-2.18507996426995
566.068966,,0.07942929977027138,565.907,0.5979999899864197,-2.295998923058116
566.534483,,0.06834006928334385,566.374,0.6060000061988831,-2.278413439720698
567.0,,0.043069784935661874,566.836,0.609000027179718,-2.2717625600352114
567.465517,,0.00387014756913677,567.304,0.6100000143051147,-2.269513726291413
567.931034,,0.04292404841525194,567.766,0.6060000061988831,-2.2782049846037435
568.396552,,0.08688517503919616,568.232,0.5950000286102295,-2.302194662039792
568.862069,,0.11809107026010103,568.696,0.6119999885559082,-2.2652296581639497
569.327586,,0.13202742941538143,569.162,0.6060000061988831,-2.2784182736865537
569.793103,,0.13139293211492423,569.627,0.5879999995231628,-2.317792160703847
570.2586210000001,,0.12295668329530904,570.092,0.6470000147819519,-2.1894461941369445
570.724138,,0.11211591450625516,570.56,0.5799999833106995,-2.335639653021343
571.189655,,0.10028586569234,571.025,0.6019999980926514,-2.2879567867037207
571.655172,,0.08672757977549142,571.485,0.6169999837875366,-2.255540540598312
572.12069,,0.07134362819928614,571.955,0.6019999980926514,-2.288490822255188
572.586207,,0.055245627108356635,572.418,0.5989999771118164,-2.2952964120173474
573.051724,,0.039837385033279424,572.881,0.6209999918937683,-2.2476262944345398
573.517241,,0.026233565700774022,573.352,0.6190000176429749,-2.25222549436806
573.982759,,0.0149713790535312,573.815,0.6169999837875366,-2.2567987553872246
574.4482760000001,,0.005605034106612448,574.281,0.5519999861717224,-2.3985954009193695
574.913793,,0.0031321883874716417,574.744,0.6140000224113464,-2.2636676555927773
575.37931,,0.012236071530289454,575.209,0.5789999961853027,-2.3400280412761294
575.844828,,0.021389457430236826,575.674,0.597000002861023,-2.3008753429803184
576.310345,,0.029119907509318442,576.139,0.5989999771118164,-2.2965343647472793
576.775862,,0.03410519837296861,576.607,0.6150000095367432,-2.2616440710669843
577.241379,,0.03637750873608423,577.065,0.6029999852180481,-2.2877084128989384
577.706897,,0.03722215752022489,577.533,0.5920000076293945,-2.311549032691087
578.172414,,0.03786590529349409,577.999,0.5809999704360962,-2.3353494001259394
578.6379310000001,,0.03823540618127191,578.467,0.578000009059906,-2.3416856912814077
579.1034480000001,,0.03703986900470734,578.929,0.593999981880188,-2.3065991373584023
579.5689659999999,,0.033333567149774423,579.392,0.597000002861023,-2.29981258243874
580.034483,,0.02812919104420096,579.855,0.5839999914169312,-2.3278695905033566
580.5,,0.02395812874699852,580.323,0.6119999885559082,-2.266595055672043
580.965517,,0.022305376505994342,580.792,0.6449999809265137,-2.1944272806357317
581.431034,,0.02195248701856301,581.25,0.578000009059906,-2.340132229413807
581.896552,,0.0206734948494763,581.722,0.6069999933242798,-2.2767043937723153
582.362069,,0.01823903203639078,582.18,0.6000000238418579,-2.291733304516931
582.827586,,0.016613015238584692,582.652,0.5759999752044678,-2.3438320397639685
583.2931030000001,,0.0169751741549482,583.11,0.6039999723434448,-2.2826800196306185
583.758621,,0.01762539053333811,583.575,0.5920000076293945,-2.3087173976429707
584.2241379999999,,0.015757653800692255,584.04,0.5759999752044678,-2.3435166997956363
584.689655,,0.011068766578827001,584.507,0.6110000014305115,-2.2672540941647656
585.155172,,0.006825083478320227,584.973,0.5699999928474426,-2.3566184420005576
585.6206900000001,,0.006995676302807722,585.441,0.5849999785423279,-2.3240274838088095
586.0862070000001,,0.012445991628037745,585.903,0.574999988079071,-2.3459494944769714
586.551724,,0.020218258017603477,586.367,0.6019999980926514,-2.2873037288919247
587.017241,,0.026758494237499868,586.837,0.5669999718666077,-2.363770898918613
587.482759,,0.03168178315423811,587.295,0.5709999799728394,-2.3553013670132295
587.948276,,0.03797287556167404,587.76,0.625,-2.237921896890823
588.4137929999999,,0.04857001602594491,588.226,0.5899999737739563,-2.314455050153698
588.87931,,0.0630679205919709,588.693,0.5879999995231628,-2.3190969838558937
589.344828,,0.0773591448733888,589.158,0.597000002861023,-2.299769813799478
589.810345,,0.08582935649192876,589.626,0.5759999752044678,-2.3457894934882084
590.2758620000001,,0.08425442522701752,590.091,0.5860000252723694,-2.32425021415076
590.741379,,0.07173231605785399,590.556,0.6079999804496765,-2.276538515069002
591.2068969999999,,0.050782546236921376,591.021,0.5669999718666077,-2.3660456649956343
591.672414,,0.026069518704685737,591.485,0.6060000061988831,-2.2812194208181573
592.137931,,0.002756396000807382,591.947,0.5659999847412109,-2.3684607787123904
592.603448,,0.01514989417579685,592.411,0.5649999976158142,-2.370686627150684
593.068966,,0.02604032649670706,592.881,0.6340000033378601,-2.22035680572593
593.534483,,0.030609197555584007,593.341,0.6060000061988831,-2.281303627601946
594.0,,0.030692772190797208,593.811,0.5920000076293945,-2.311698659462447
594.4655170000001,,0.028573834732731975,594.277,0.5649999976158142,-2.370370252859848
594.9310340000001,,0.0269745247212851,594.739,0.5540000200271606,-2.3941436519415755
595.3965519999999,,0.028408928085326867,595.205,0.5759999752044678,-2.345988441551529
595.862069,,0.03379816831465745,595.671,0.5929999947547913,-2.3086989694652544
596.327586,,0.04204965752088215,596.137,0.5830000042915344,-2.330212559312523
596.793103,,0.05134203626187112,596.596,0.6010000109672546,-2.2907115998064556
597.2586210000001,,0.0605078393209288,597.062,0.5220000147819519,-2.4625370411229657
597.724138,,0.0688228179721047,597.526,0.5709999799728394,-2.3555034698153436
598.189655,,0.0748713909525742,597.992,0.5519999861717224,-2.3966345583273503
598.655172,,0.07650880098419845,598.455,0.5979999899864197,-2.2961770264104313
599.12069,,0.07241416443648065,598.925,0.5979999899864197,-2.295966879252411
599.586207,,0.06351485777149922,599.386,0.5640000104904175,-2.3698664696871643
600.0517239999999,,0.052480529732330396,599.855,0.5799999833106995,-2.3348757406778655
600.517241,,0.041623593310082176,600.319,0.5630000233650208,-2.371826760261041
600.982759,,0.031547341993203255,600.781,0.578000009059906,-2.3391102956608343
601.448276,,0.022098275816702366,601.246,0.5830000042915344,-2.3282302713737244
601.913793,,0.014066872079617602,601.711,0.5989999771118164,-2.2934339602718623
602.37931,,0.009017804259605222,602.176,0.5680000185966492,-2.3610808386398294
602.844828,,0.007590540384379062,602.641,0.5519999861717224,-2.396092843283344
603.310345,,0.008941480403053358,603.107,0.5540000200271606,-2.391930201197606
603.775862,,0.011873434062888774,603.574,0.5929999947547913,-2.307192380848518
604.2413789999999,,0.015441987327080086,604.04,0.5669999718666077,-2.3640934024541127
604.706897,,0.018148851434627866,604.5,0.578000009059906,-2.3404030775079696
605.172414,,0.01772978485278827,604.966,0.5789999961853027,-2.3385097614629755
605.637931,,0.012956707092096727,605.434,0.574999988079071,-2.347511145838318
606.1034480000001,,0.005506040130733248,605.897,0.6119999885559082,-2.2671799825578165
606.5689659999999,,0.0010014775100556476,606.367,0.5730000138282776,-2.3524090681043845
607.0344829999999,,0.004304375605374144,606.829,0.5789999961853027,-2.339574655549789
607.5,,0.00538457864024351,607.295,0.5730000138282776,-2.352852972407754
607.965517,,0.0067300537878092126,607.76,0.5540000200271606,-2.3944169590120707
608.431034,,0.009254806585775495,608.226,0.5709999799728394,-2.357508214174297
608.896552,,0.011614120840208037,608.686,0.5889999866485596,-2.318374711080584
609.362069,,0.012417207698699716,609.152,0.6060000061988831,-2.281369978277808
609.827586,,0.012180932996952781,609.618,0.574999988079071,-2.348889261868345
610.293103,,0.012319682905546296,610.084,0.5519999861717224,-2.3989299742669123
610.758621,,0.012605455825587326,610.549,0.5640000104904175,-2.372671903527277
611.2241379999999,,0.010995687409712171,611.014,0.5680000185966492,-2.3638004611079975
611.689655,,0.006668340152494182,611.477,0.5929999947547913,-2.3091387758605917
612.155172,,0.002361129160701519,611.94,0.5699999928474426,-2.3590188846990134
612.62069,,0.002486674850737161,612.407,0.5809999704360962,-2.3347987928776437
613.0862070000001,,0.008707312526334703,612.87,0.5830000042915344,-2.3301680014795503
613.551724,,0.017855443601601375,613.341,0.550000011920929,-2.4017802463214424
614.017241,,0.024544934852324462,613.803,0.5669999718666077,-2.364459901370728
614.4827590000001,,0.02586495805550456,614.27,0.578000009059906,-2.340219443266723
614.948276,,0.023529903350439516,614.733,0.5419999957084656,-2.41839205959055
615.4137929999999,,0.02157727430150324,615.198,0.515999972820282,-2.4748041044420637
615.8793099999999,,0.022235933833080673,615.663,0.5669999718666077,-2.3634936739608596
616.344828,,0.02421597203162494,616.129,0.5540000200271606,-2.391654945763735
616.810345,,0.024761727077949047,616.593,0.5529999732971191,-2.3937151076665235
617.275862,,0.02275473189279387,617.059,0.5429999828338623,-2.415429281772163
617.741379,,0.01950956099797093,617.526,0.5379999876022339,-2.426298913170331
618.206897,,0.017005582716537727,617.991,0.5649999976158142,-2.3675007230251777
618.672414,,0.01604283100031957,618.452,0.5419999957084656,-2.4176823960899356
619.137931,,0.016116973775614482,618.921,0.5540000200271606,-2.39165625452375
619.603448,,0.01640817868694288,619.382,0.5419999957084656,-2.417959076175096
620.068966,,0.016474667742838584,619.852,0.5370000004768372,-2.4290477471788687
620.534483,,0.016225757063963855,620.315,0.5429999828338623,-2.4162018520491295
621.0,,0.015625891196160972,620.777,0.531000018119812,-2.442595004564447
621.465517,,0.01459256599101343,621.243,0.5540000200271606,-2.392751052277949
621.9310340000001,,0.013122727157131541,621.708,0.5339999794960022,-2.4365961138806624
622.396552,,0.011342235134338437,622.174,0.5460000038146973,-2.410722906975954
622.862069,,0.009339991609963204,622.64,0.5460000038146973,-2.410983756614671
623.327586,,0.007082152522458903,623.106,0.5080000162124634,-2.4940159371136748
623.793103,,0.004617640768789966,623.565,0.5429999828338623,-2.417982830126452
624.258621,,0.0022718134732558244,624.03,0.5389999747276306,-2.426885776308054
624.724138,,0.000493410288817741,624.504,0.503000020980835,-2.505468621180946
625.189655,,0.00047491904656335096,624.962,0.5249999761581421,-2.4576496884721952
625.655172,,0.0007285430135401875,625.43,0.531000018119812,-2.4446450263535517
626.1206900000001,,0.0005989467324144438,625.892,0.5320000052452087,-2.4424871404096264
626.5862070000001,,0.0005622267668520161,626.356,0.5249999761581421,-2.4577113046062937
627.0517239999999,,0.0011932289613846214,626.826,0.531000018119812,-2.444566708944924
627.5172409999999,,0.002864975849852405,627.292,0.5339999794960022,-2.4379142233039137
627.982759,,0.005178402313222074,627.755,0.5519999861717224,-2.3985409823960504
628.448276,,0.006871797242133031,628.22,0.527999997138977,-2.450634730607571
628.913793,,0.006840339366503577,628.686,0.5019999742507935,-2.507056690480084
629.37931,,0.005435480332862787,629.151,0.5360000133514404,-2.4327381316538705
629.844828,,0.004360681840967508,629.611,0.5519999861717224,-2.3976204600122557
630.3103450000001,,0.004949281868526542,630.077,0.5289999842643738,-2.4474623268917926
630.7758620000001,,0.0067562623694254675,630.541,0.5400000214576721,-2.4232309332992803
631.2413789999999,,0.008160368727450327,631.007,0.5289999842643738,-2.4469393540139834
631.706897,,0.008157654596457292,631.47,0.546999990940094,-2.4074840426481767
632.172414,,0.007180619159194656,631.939,0.515999972820282,-2.4748073223519436
632.637931,,0.006362550306467391,632.4,0.5339999794960022,-2.43540859755393
633.103448,,0.006537916998103683,632.87,0.5249999761581421,-2.4548710101298967
633.568966,,0.007832413316783863,633.33,0.5199999809265137,-2.4656609544738948
634.034483,,0.009578361438612909,633.799,0.5210000276565552,-2.4634245357508218
634.5,,0.010599947321940714,634.265,0.5540000200271606,-2.3915182250026654
634.9655170000001,,0.01017293521377333,634.729,0.515999972820282,-2.4743425646030133
635.431034,,0.008823308458057654,635.194,0.5410000085830688,-2.4199574406541062
635.8965519999999,,0.007719539817820531,635.659,0.5649999976158142,-2.3677934213900507
636.362069,,0.007204992669130021,636.125,0.5389999747276306,-2.424599487138467
636.827586,,0.006492512916059465,636.59,0.5289999842643738,-2.446580409301642
637.293103,,0.005121825598401119,637.056,0.5189999938011169,-2.468589700066639
637.7586210000001,,0.004151020006549265,637.516,0.5299999713897705,-2.444869279774728
638.224138,,0.005095080643478604,637.981,0.5540000200271606,-2.3928398878816473
638.689655,,0.00775584533407995,638.445,0.5690000057220459,-2.36042274609338
639.155172,,0.009943863967039897,638.914,0.5540000200271606,-2.3933605035628602
639.62069,,0.009667600061671713,639.375,0.5490000247955322,-2.404499795685679
640.086207,,0.007060652024214872,639.844,0.5419999957084656,-2.4199776347564383
640.551724,,0.003908670347181557,640.307,0.550000011920929,-2.40275019853645
641.017241,,0.0018794948574069673,640.77,0.5879999995231628,-2.320131017397466
641.482759,,0.0016260719474759872,641.235,0.5339999794960022,-2.437909712084504
641.9482760000001,,0.002946973414901116,641.7,0.5680000185966492,-2.363926179207647
642.413793,,0.00486094470446762,642.165,0.5400000214576721,-2.4249757876708715
642.87931,,0.005734720040038921,642.637,0.5379999876022339,-2.429336699443658
643.344828,,0.0045341338636205,643.095,0.5260000228881836,-2.4554410536005813
643.810345,,0.0023465046476073745,643.56,0.5419999957084656,-2.4205020950882576
644.275862,,0.001692272499885537,644.026,0.5540000200271606,-2.3942384005183914
644.7413789999999,,0.003592870130836595,644.5,0.5669999718666077,-2.365759804894754
645.206897,,0.0059702187122258115,644.959,0.5509999990463257,-2.400429946030125
645.672414,,0.005894915359466747,645.426,0.5410000085830688,-2.422002702607837
646.1379310000001,,0.0031616333691777006,645.888,0.5360000133514404,-2.4326640695181414
646.6034480000001,,0.0005404935295119116,646.356,0.5640000104904175,-2.3714188340819775
647.0689659999999,,0.00019867451878370317,646.818,0.5360000133514404,-2.432173720384977
647.534483,,0.0009645189413868366,647.284,0.5360000133514404,-2.4319302251921595
648.0,,0.00012383026624442731,647.747,0.5540000200271606,-2.392482332070051
648.465517,,0.0027552062477067332,648.213,0.5379999876022339,-2.4271264558337458
648.931034,,0.005276068842038206,648.677,0.5379999876022339,-2.4269365859785603
649.396552,,0.005566139466317785,649.143,0.550000011920929,-2.400632973089978
649.862069,,0.0047675401012407075,649.607,0.550000011920929,-2.4005074671353355
650.327586,,0.005413194729804945,650.073,0.5370000004768372,-2.4287422611388583
650.7931030000001,,0.008130394341104475,650.541,0.5440000295639038,-2.4134445670160933
651.258621,,0.010941915090853894,651.006,0.5289999842643738,-2.4461193163584487
651.7241379999999,,0.011643842779791856,651.467,0.5529999732971191,-2.393868516574675
652.189655,,0.01007020099078729,651.936,0.550000011920929,-2.4004810195195194
652.655172,,0.007922981896544168,652.396,0.5379999876022339,-2.426738681147226
653.12069,,0.006937662591020228,652.866,0.5669999718666077,-2.3637051632682744
653.5862070000001,,0.007315453746360654,653.326,0.5249999761581421,-2.4553844267153897
654.051724,,0.00761409378431848,653.796,0.5460000038146973,-2.409832626277278
654.517241,,0.006274318709366599,654.255,0.5899999737739563,-2.314188925331729
654.982759,,0.003452471376249958,654.725,0.5419999957084656,-2.4189899992007398
655.448276,,0.0009674498555498971,655.191,0.5860000252723694,-2.3233578458014605
655.9137929999999,,0.000280136598303549,655.656,0.546999990940094,-2.4085494479486704
656.37931,,0.0011372125014753424,656.122,0.5270000100135803,-2.4523367820863493
656.844828,,0.0023506499374726696,656.582,0.5490000247955322,-2.404605899054733
657.310345,,0.003046789918289702,657.047,0.546999990940094,-2.4091415909368976
657.7758620000001,,0.0027619190369265892,657.512,0.5669999718666077,-2.3657200527561875
658.241379,,0.001157256831511839,657.978,0.5350000262260437,-2.4355568335282447
658.7068969999999,,0.0015949906337794058,658.44,0.5540000200271606,-2.394248528660678
659.172414,,0.004505112973794858,658.911,0.5460000038146973,-2.4117274386875764
659.637931,,0.006582838386398711,659.374,0.5659999847412109,-2.3681662237437604
660.103448,,0.007923362531610413,659.837,0.5370000004768372,-2.4313206817064272
660.568966,,0.009324038143321271,660.308,0.5540000200271606,-2.3942206664187835
661.034483,,0.010766822442422505,660.77,0.5540000200271606,-2.394123172713013
661.5,,0.011168786426150183,661.236,0.5730000138282776,-2.3525992598056535
661.965517,,0.010082310368006702,661.7,0.5460000038146973,-2.411264987511166
662.4310340000001,,0.00872138635814683,662.166,0.5429999828338623,-2.417620525471706
662.8965519999999,,0.008399366205826268,662.626,0.5619999766349792,-2.3760288970325467
663.362069,,0.008569856246648891,663.092,0.5529999732971191,-2.395428068337673
663.827586,,0.007558810785559218,663.56,0.5540000200271606,-2.3930354840163264
664.293103,,0.005076483381838708,664.025,0.5690000057220459,-2.3601430037083078
664.7586210000001,,0.0028633808242634943,664.489,0.5690000057220459,-2.3599370050150252
665.224138,,0.0025221113377969185,664.951,0.5379999876022339,-2.427282314408757
665.689655,,0.0035907732227499017,665.415,0.5540000200271606,-2.3922506504354364
666.155172,,0.0043210996437298855,665.884,0.5669999718666077,-2.363779514531486
666.62069,,0.0037051328664458693,666.345,0.5630000233650208,-2.372373145064882
667.086207,,0.002123382657431533,666.814,0.5419999957084656,-2.418035638197746
667.5517239999999,,0.0005088442796217211,667.28,0.5339999794960022,-2.43541077904853
668.017241,,0.0005863687718274661,667.742,0.5690000057220459,-2.359140429612559
668.482759,,0.0014832017429625413,668.208,0.47699999809265137,-2.5595959361442207
668.948276,,0.0032008167709275544,668.674,0.5419999957084656,-2.4180414942460717
669.413793,,0.006276838469219541,669.14,0.5830000042915344,-2.3288090175431355
669.87931,,0.009573050243889828,669.605,0.5540000200271606,-2.3921110205294043
670.3448279999999,,0.010868671072937909,670.071,0.5460000038146973,-2.4096870110815307
670.810345,,0.009029061504580266,670.531,0.5389999747276306,-2.425106235632475
671.275862,,0.0052448488110621114,670.996,0.5460000038146973,-2.4100410979081053
671.7413789999999,,0.001864164111709832,671.467,0.5669999718666077,-2.364485587729459
672.206897,,0.00040212776199558106,671.929,0.5460000038146973,-2.410437263396556
672.672414,,0.0009647099785285554,672.392,0.5540000200271606,-2.393206398876515
673.137931,,0.002853376964413476,672.855,0.5540000200271606,-2.3933971905748006
673.6034480000001,,0.004851733156069864,673.326,0.578000009059906,-2.3412866322549406
674.068966,,0.005457571802918668,673.788,0.5519999861717224,-2.398089235572247
674.5344829999999,,0.0040090698696917835,674.254,0.5400000214576721,-2.424367589984047
675.0,,0.001525545863841785,674.718,0.546999990940094,-2.409225819080845
675.465517,,0.000319788494733834,675.183,0.5099999904632568,-2.4899163679600353
675.931034,,0.0008476803357176841,675.648,0.5709999799728394,-2.3570691803563832
676.396552,,0.0004096175363289764,676.114,0.550000011920929,-2.4028386287208003
676.862069,,0.0007292247861933543,676.578,0.5540000200271606,-2.3941087563916668
677.327586,,0.002612750573551211,677.044,0.5460000038146973,-2.411490774804925
677.793103,,0.004760507325317056,677.511,0.5419999957084656,-2.4201282633575243
678.2586210000001,,0.0058949195036228945,677.976,0.46000000834465027,-2.5986748602964904
678.7241379999999,,0.004831898359896693,678.437,0.5540000200271606,-2.393758350167298
679.1896549999999,,0.0014740781984701676,678.907,0.546999990940094,-2.408866551455269
679.655172,,0.0029470382299171213,679.367,0.5410000085830688,-2.4217798849673895
680.12069,,0.0062853528797943625,679.837,0.5630000233650208,-2.373679521609241
680.5862070000001,,0.006548567897923632,680.295,0.5540000200271606,-2.393110209896126
681.051724,,0.0034784834720890286,680.761,0.5419999957084656,-2.4190750697518433
681.517241,,0.0008455920709844768,681.226,0.5540000200271606,-2.3927559893197574
681.9827590000001,,0.003732809022709069,681.693,0.5770000219345093,-2.3424799502445994
