Trial: ,25
Threshold: ,0.0
Maximum EMG: ,0.03931586731366142
Success: ,True

EMG Time,Raw EMG,Filtered EMG,Force Time,Raw Force (V),Filtered Force (N)
0.0,samples,4.371229810364004e-07,0.469,0.6060000061988831,-2.2821434013968145
0.46551699999999996,time,4.459877560879672e-07,0.931,0.6489999890327454,-2.1888039242713835
0.9310339999999999,value,4.5364579572287595e-07,1.397,0.5929999947547913,-2.311066174012386
1.396552,,4.60017689269508e-07,1.861,0.6079999804496765,-2.278552533960176
1.862069,,4.650251805658075e-07,2.326,0.6209999918937683,-2.250298997976078
2.327586,,4.6859149673930964e-07,2.791,0.6240000128746033,-2.243731404092098
2.793103,,4.706416858996597e-07,3.257,0.6259999871253967,-2.2392421846565385
3.258621,,4.7110296292493327e-07,3.724,0.6100000143051147,-2.273872007505499
3.724138,,4.6990506245886293e-07,4.19,0.5920000076293945,-2.3127702728933817
4.189654999999999,,4.669805981722438e-07,4.65,0.6169999837875366,-2.257907709333434
4.655172,,4.622654272785787e-07,5.115,0.6169999837875366,-2.2574437160878924
5.12069,,4.5569901923167794e-07,5.583,0.6039999723434448,-2.285248429935679
5.586207,,4.4722482747171566e-07,6.046,0.6330000162124634,-2.2215117407284146
6.051723999999999,,4.3679066302642606e-07,6.509,0.6119999885559082,-2.266686253230357
6.517241,,4.2434906871597235e-07,6.979,0.6060000061988831,-2.279177664596414
6.982759,,4.098576926538249e-07,7.439,0.6110000014305115,-2.2677192211650397
7.448276,,3.932796596820167e-07,7.909,0.6069999933242798,-2.2759014396637895
7.913793000000001,,3.7458393932770376e-07,8.375,0.5920000076293945,-2.3080985194546297
8.379309999999998,,3.537457088193255e-07,8.837,0.5929999947547913,-2.3055027848461234
8.844828000000001,,3.3074670965514626e-07,9.303,0.6460000276565552,-2.1896950868262515
9.310345,,3.055755961748415e-07,9.768,0.6060000061988831,-2.276589293074691
9.775862,,2.7822827454638624e-07,10.234,0.6060000061988831,-2.276433519315087
10.241379,,2.4870823054609293e-07,10.7,0.6060000061988831,-2.276379728434858
10.706897,,2.1702684447953155e-07,11.165,0.6539999842643738,-2.171853967644962
11.172414,,1.832036915655416e-07,11.624,0.6320000290870667,-2.2199341678894102
11.637931,,1.4726682608489668e-07,12.089,0.5929999947547913,-2.3051487256540426
12.103447999999998,,1.0925304757969694e-07,12.557,0.6200000047683716,-2.2466636978836148
12.568966000000001,,6.920814737951896e-08,13.019,0.6079999804496765,-2.2732273601409223
13.034483,,2.7187133726018372e-08,13.49,0.5889999866485596,-2.315110520837826
13.5,,1.6745566230683054e-08,13.953,0.6019999980926514,-2.2873318259767363
13.965517,,6.251592928263025e-08,14.421,0.6150000095367432,-2.2595911094498637
14.431034,,1.1004018556616421e-07,14.883,0.5839999914169312,-2.32773099877943
14.896552,,1.5922469619900209e-07,15.348,0.6420000195503235,-2.201972240831144
15.362069,,2.0996586080779146e-07,15.813,0.6050000190734863,-2.283166857465051
15.827586000000002,,2.621500565666268e-07,16.279,0.6119999885559082,-2.2684645694907584
16.293103,,3.1565361032468786e-07,16.739,0.5879999995231628,-2.321247640006787
16.758621,,3.703428053513817e-07,17.204,0.640999972820282,-2.20620628807973
17.224138,,4.2607392416999416e-07,17.675,0.6370000243186951,-2.215264235794358
17.689655,,4.826933288857599e-07,18.134,0.6449999809265137,-2.198083067983529
18.155172,,5.4003758034134e-07,18.601,0.6129999756813049,-2.267944595910979
18.62069,,5.979335973518772e-07,19.067,0.6140000224113464,-2.265803599478229
19.086207,,6.561988571830262e-07,19.535,0.6240000128746033,-2.243946755734057
19.551724,,7.146416383386007e-07,19.998,0.6150000095367432,-2.2633777122585217
20.017241000000002,,7.730613066197492e-07,20.461,0.6489999890327454,-2.1890249211559185
20.482758999999998,,8.312486453048834e-07,20.931,0.6039999723434448,-2.286691612361452
20.948276,,8.889862301790054e-07,21.389,0.6370000243186951,-2.2143414313817065
21.413793000000002,,9.460488500126969e-07,21.86,0.6269999742507935,-2.2356049818727697
21.87931,,1.0022039729549643e-06,22.319,0.6150000095367432,-2.261173277395886
22.344828,,1.0572122591605383e-06,22.784,0.5920000076293945,-2.310673238629431
22.810344999999998,,1.1108281198212832e-06,23.249,0.6370000243186951,-2.2120105212962624
23.275862,,1.1628003226133076e-06,23.716,0.6060000061988831,-2.27892936611129
23.741379,,1.2128726434064253e-06,24.182,0.625,-2.2369390600354184
24.206897,,1.2607845639111195e-06,24.646,0.597000002861023,-2.297387537409121
24.672414,,1.3062720147603891e-06,25.112,0.656000018119812,-2.1683526729064724
25.137931,,1.3490681633402198e-06,25.579,0.6150000095367432,-2.257256544631679
25.603448,,1.3889042454932936e-06,26.042,0.6420000195503235,-2.198099204827762
26.068966,,1.4255104400263655e-06,26.51,0.6290000081062317,-2.22618552105152
26.534483,,1.4586167847529843e-06,26.972,0.6069999933242798,-2.2739854133152253
27.0,,1.4879541326004234e-06,27.435,0.6039999723434448,-2.2805022801397197
27.465517,,1.5132551461033525e-06,27.905,0.5950000286102295,-2.300203851879825
27.931034,,1.534255328397519e-06,28.371,0.593999981880188,-2.3025872873383566
28.396552,,1.5506940886151354e-06,28.833,0.6349999904632568,-2.213571550571166
28.862069,,1.5623158393704291e-06,29.299,0.6129999756813049,-2.2619045354677465
29.327586,,1.5688711238096027e-06,29.764,0.628000020980835,-2.229708625328674
29.793103000000002,,1.5701177694850091e-06,30.23,0.609000027179718,-2.2716534981068817
30.258620999999998,,1.5658220660993833e-06,30.695,0.6240000128746033,-2.239574165549737
30.724138,,1.5557599639533262e-06,31.154,0.6010000109672546,-2.2903149784092776
31.189655000000002,,1.5397182897186713e-06,31.621,0.6269999742507935,-2.2343140636097196
31.655172000000004,,1.5174959759527473e-06,32.086,0.6060000061988831,-2.280701349433739
32.12069,,1.4889053005647514e-06,32.554,0.6019999980926514,-2.29002406305557
32.586207,,1.4537731322463535e-06,33.016,0.6460000276565552,-2.194724585387325
33.051724,,1.4119421776851637e-06,33.48,0.6190000176429749,-2.2540436379007
33.517241000000006,,1.3632722261927574e-06,33.95,0.6079999804496765,-2.2784234772600973
33.982759,,1.3076413871995037e-06,34.413,0.6060000061988831,-2.2831022654993753
34.448276,,1.2449473158974684e-06,34.875,0.6579999923706055,-2.17003002769219
34.913793,,1.175108422151111e-06,35.341,0.6060000061988831,-2.283425187057143
35.37931,,1.098065057644369e-06,35.806,0.6190000176429749,-2.255093238920091
35.844828,,1.0137806760929919e-06,36.271,0.6069999933242798,-2.2811133969147193
36.310345,,9.222429612236577e-07,36.739,0.6029999852180481,-2.2895939462998247
36.775862,,8.234649171074632e-07,37.205,0.593999981880188,-2.30886486090609
37.241378999999995,,7.174859153358127e-07,37.665,0.6100000143051147,-2.273576860433854
37.706897000000005,,6.043726934424905e-07,38.13,0.6079999804496765,-2.277424717415231
38.172414,,4.842202989077902e-07,38.603,0.6330000162124634,-2.222383756434911
38.637931,,3.571529730299086e-07,39.061,0.5920000076293945,-2.3110860718737865
39.103448,,2.233249689163249e-07,39.524,0.6060000061988831,-2.2799349340363473
39.568965999999996,,8.292129783448488e-08,39.994,0.6060000061988831,-2.279277437743856
40.034483,,6.384160183234012e-08,40.457,0.6060000061988831,-2.2786325502589766
40.5,,2.1671527875081018e-07,40.919,0.5929999947547913,-2.3063429543122873
40.965517,,3.7541877160274356e-07,41.385,0.6499999761581421,-2.181599179336118
41.431034,,5.396382064563831e-07,41.855,0.6119999885559082,-2.2638945695576966
41.896552,,7.090264940559272e-07,42.321,0.6200000047683716,-2.24605532667923
42.362069000000005,,8.832031324234847e-07,42.779,0.6140000224113464,-2.2588139166936867
42.827586000000004,,1.0617541200252216e-06,43.245,0.6010000109672546,-2.2869302251362855
43.293103,,1.2442319845862053e-06,43.712,0.6470000147819519,-2.1866198129926113
43.758621,,1.4301559324458473e-06,44.178,0.6060000061988831,-2.2759681054804415
44.224138,,1.6190121231274955e-06,44.642,0.6100000143051147,-2.267393666644755
44.689655,,1.8102540735512673e-06,45.108,0.5170000195503235,-2.4702632130330167
45.155172,,2.0033031960484364e-06,45.576,0.6000000238418579,-2.2897998416128393
45.620689999999996,,2.1975494740383746e-06,46.038,0.6060000061988831,-2.2771893504989205
46.086206999999995,,2.3923522789051433e-06,46.501,0.6290000081062317,-2.2276222837394855
46.551724,,2.5870413312603403e-06,46.964,0.597000002861023,-2.297944396519448
47.017241,,2.780917809401796e-06,47.435,0.6069999933242798,-2.276808606968884
47.482759,,2.9732556073744296e-06,47.897,0.625,-2.2382686930735054
47.948276,,3.1633027446102814e-06,48.362,0.6119999885559082,-2.2672704625772675
48.413793,,3.3502829286698818e-06,48.827,0.6209999918937683,-2.248324298703466
48.879310000000004,,3.5333972721271453e-06,49.293,0.6060000061988831,-2.281627656286193
49.344828,,3.711826164135639e-06,49.757,0.5950000286102295,-2.306159496043475
49.810345,,3.88473129668596e-06,50.222,0.6489999890327454,-2.189004298300914
50.275862,,4.0512578450130375e-06,50.687,0.625,-2.2416918321141055
50.741379,,4.21053680103939e-06,51.152,0.6169999837875366,-2.2594166651693426
51.206897,,4.3616874581468096e-06,51.616,0.6060000061988831,-2.2835645796285053
51.672414,,4.503820044955838e-06,52.082,0.6230000257492065,-2.246591908488369
52.137931,,4.636038505161099e-06,52.55,0.625,-2.242177982609073
52.603448,,4.757443419822483e-06,53.011,0.6309999823570251,-2.2289293983478284
53.068966,,4.867135067848981e-06,53.48,0.6269999742507935,-2.2373523604880545
53.534483,,4.964216619735301e-06,53.942,0.621999979019165,-2.2478480600204676
54.0,,5.047797458923129e-06,54.405,0.6190000176429749,-2.2538930572957705
54.465517,,5.1169966244609485e-06,54.875,0.6079999804496765,-2.277289660847563
54.931034,,5.1709463679308215e-06,55.341,0.5929999947547913,-2.309341346061774
55.396552,,5.208795816899543e-06,55.806,0.6060000061988831,-2.280351428546139
55.862069,,5.229714736437575e-06,56.264,0.593999981880188,-2.3058090720065096
56.327586,,5.232897379534387e-06,56.736,0.6520000100135803,-2.1787627671785565
56.793102999999995,,5.21756641652595e-06,57.194,0.6579999923706055,-2.165027091274077
57.258621000000005,,5.182976932941585e-06,57.66,0.6039999723434448,-2.282051492149092
57.724138,,5.128420484476066e-06,58.126,0.5109999775886536,-2.484107374325815
58.189655,,5.053229197101512e-06,58.599,0.6060000061988831,-2.2766615178288476
58.655172,,4.9567798996551e-06,59.057,0.6190000176429749,-2.247961979851807
59.120689999999996,,4.838498275575963e-06,59.52,0.6190000176429749,-2.2476913650213075
59.586207,,4.6978630198208225e-06,59.99,0.6150000095367432,-2.2562500478006977
60.051724,,4.534409986366136e-06,60.454,0.6190000176429749,-2.2474991244277187
60.517241,,4.3477363111078536e-06,60.916,0.6449999809265137,-2.190938261464294
60.982758999999994,,4.137504494401658e-06,61.381,0.5920000076293945,-2.3066082349892643
61.448276,,3.903446426949848e-06,61.844,0.597000002861023,-2.2960295898974428
61.913793,,3.645367342239309e-06,62.31,0.6470000147819519,-2.187514906483001
62.379310000000004,,3.363149678271407e-06,62.776,0.6150000095367432,-2.2577385186235386
62.84482800000001,,3.056756830902602e-06,63.242,0.6140000224113464,-2.2604977024718935
63.310345000000005,,2.7262367807372713e-06,63.709,0.6240000128746033,-2.2393481453300463
63.775862000000004,,2.371725575185037e-06,64.175,0.5709999799728394,-2.3554909428255697
64.241379,,1.993450647016998e-06,64.639,0.6169999837875366,-2.2559649477181964
64.706897,,1.5917339505318927e-06,65.104,0.597000002861023,-2.30022559858909
65.172414,,1.1669948962775339e-06,65.565,0.6119999885559082,-2.2682077341448608
65.637931,,7.197530651679236e-07,66.035,0.6359999775886536,-2.216534976478057
66.103448,,2.5063068279529067e-07,66.498,0.621999979019165,-2.2475837966973797
66.56896599999999,,2.3964516523823383e-07,66.96,0.6150000095367432,-2.2632981217047456
67.03448300000001,,7.50240596049648e-07,67.428,0.6209999918937683,-2.2505922081480727
67.5,,1.2802132891781398e-06,67.891,0.6209999918937683,-2.2508487513388107
67.965517,,1.8285111619338332e-06,68.357,0.628000020980835,-2.235737023624639
68.431034,,2.393971378745237e-06,68.82,0.6489999890327454,-2.1900016525515595
68.896552,,2.9753197124605886e-06,69.286,0.6110000014305115,-2.272683052199033
69.362069,,3.571170275079298e-06,69.75,0.5950000286102295,-2.307315333572544
69.827586,,4.180025634827716e-06,70.216,0.6150000095367432,-2.2634054571517055
70.293103,,4.800277335846939e-06,70.683,0.6460000276565552,-2.195428832178396
70.75862099999999,,5.430206836027927e-06,71.148,0.6029999852180481,-2.288583659038354
71.22413800000001,,6.067986877709781e-06,71.613,0.6190000176429749,-2.2531263219094857
71.689655,,6.711683305049776e-06,72.079,0.6100000143051147,-2.2720824947706397
72.15517200000001,,7.359257340878036e-06,72.542,0.5929999947547913,-2.308435604553046
72.62069,,8.008568334765448e-06,73.005,0.5960000157356262,-2.301205230976988
73.086207,,8.657376992860418e-06,73.476,0.6119999885559082,-2.2656634407897056
73.551724,,9.303349098788845e-06,73.938,0.5720000267028809,-2.3521579307180374
74.017241,,9.944059733562836e-06,74.402,0.5669999718666077,-2.3624532824932274
74.482759,,1.0576998001008306e-05,74.864,0.5649999976158142,-2.3662851775879337
74.94827599999999,,1.1199572263700947e-05,75.331,0.6050000190734863,-2.2787018810984048
75.41379300000001,,1.180911589279602e-05,75.798,0.6639999747276306,-2.14982309771043
75.87931,,1.2402893533452038e-05,76.264,0.6060000061988831,-2.2759531163616398
76.344828,,1.297810788578414e-05,76.727,0.6069999933242798,-2.273657925355472
76.810345,,1.3531906999442746e-05,77.193,0.6140000224113464,-2.2584101188337504
77.275862,,1.4061392078000237e-05,77.654,0.5989999771118164,-2.291211940351598
77.741379,,1.4563625787346444e-05,78.119,0.6370000243186951,-2.2086602265082376
78.206897,,1.5035641060246983e-05,78.587,0.6079999804496765,-2.272185360154209
78.67241399999999,,1.5474450387111166e-05,79.05,0.6209999918937683,-2.2443038181502457
79.137931,,1.587705558085346e-05,79.52,0.6190000176429749,-2.2491852990996772
79.603448,,1.6240458001519492e-05,79.983,0.6299999952316284,-2.225811381025977
80.068966,,1.6561669224090098e-05,80.446,0.652999997138977,-2.176341742047209
80.53448300000001,,1.6837722130581e-05,80.909,0.6039999723434448,-2.283763460825952
81.0,,1.7065682405228093e-05,81.375,0.5789999961853027,-2.338907681894512
81.465517,,1.724266040919555e-05,81.844,0.640999972820282,-2.2044998611717417
81.931034,,1.7365823408873875e-05,82.31,0.621999979019165,-2.2465311383928106
82.396552,,1.743240812945467e-05,82.769,0.6200000047683716,-2.2514741992592477
82.86206899999999,,1.7439733603086898e-05,83.235,0.6499999761581421,-2.1866316171198927
83.327586,,1.7385214278543887e-05,83.702,0.5770000219345093,-2.346105444844846
83.79310299999999,,1.72663733569701e-05,84.167,0.6629999876022339,-2.1590774626391176
84.258621,,1.7080856315940857e-05,84.631,0.5929999947547913,-2.311811293962641
84.72413800000001,,1.6826444581765927e-05,85.097,0.6600000262260437,-2.165955696400978
85.189655,,1.6501069307709213e-05,85.564,0.6290000081062317,-2.2334894632160265
85.65517200000001,,1.6102825213591453e-05,86.027,0.6179999709129333,-2.257332328158232
86.12069,,1.562998444010075e-05,86.494,0.6389999985694885,-2.2113448132384774
86.586207,,1.5081010369067733e-05,86.957,0.7300000190734863,-2.0127434693415416
87.051724,,1.4454571358978597e-05,87.42,0.6190000176429749,-2.254129897256315
87.517241,,1.3749554343110606e-05,87.89,0.6110000014305115,-2.2710324715682892
87.98275899999999,,1.2965078235892344e-05,88.356,0.6039999723434448,-2.285692261237888
88.448276,,1.2100507091425233e-05,88.819,0.5979999899864197,-2.2981278872206117
88.913793,,1.1155462956565284e-05,89.285,0.6000000238418579,-2.2931086991783034
89.37931,,1.0129838359565125e-05,89.744,0.6079999804496765,-2.2750122632370853
89.844828,,9.023808374027588e-06,90.21,0.625,-2.2373219071598753
90.310345,,7.837842196834061e-06,90.676,0.6039999723434448,-2.2824537118413954
90.775862,,6.572714177794339e-06,91.142,0.6169999837875366,-2.2535636006898176
91.241379,,5.229514238030708e-06,91.609,0.5809999704360962,-2.331497152060273
91.706897,,3.8096576135676645e-06,92.075,0.6420000195503235,-2.1981861240093217
92.17241399999999,,2.3148938602605213e-06,92.535,0.6039999723434448,-2.2806573568265534
92.63793100000001,,7.473150560710331e-07,93.006,0.6079999804496765,-2.271730385446266
93.103448,,8.906368632042724e-07,93.468,0.5709999799728394,-2.352240473584804
93.568966,,2.5961636983178174e-06,93.931,0.6489999890327454,-2.1823206824370853
94.03448300000001,,4.366105574061126e-06,94.402,0.6389999985694885,-2.204233815966013
94.5,,6.196936582036214e-06,94.864,0.5989999771118164,-2.2916136333626005
94.965517,,8.08476153980642e-06,95.329,0.5230000019073486,-2.4575274654449304
95.431034,,1.0025313926183996e-05,95.794,0.5920000076293945,-2.307631621167496
95.896552,,1.2013955050799882e-05,96.26,0.5989999771118164,-2.2928916993806214
96.36206899999999,,1.4045674514212414e-05,96.725,0.597000002861023,-2.297821608432854
96.827586,,1.6115092012640787e-05,97.191,0.6309999823570251,-2.224363861181227
97.293103,,1.8216460538951728e-05,97.65,0.6039999723434448,-2.2838275386879876
97.758621,,2.0343671028780103e-05,98.116,0.6209999918937683,-2.247434834302555
98.224138,,2.249025849762365e-05,98.579,0.6060000061988831,-2.280743656353817
98.689655,,2.4649409711416653e-05,99.049,0.609000027179718,-2.2748026270153896
99.155172,,2.6813972429456486e-05,99.509,0.6340000033378601,-2.220879035410498
99.62069,,2.8976466254630606e-05,99.979,0.5870000123977661,-2.323749407075964
100.086207,,3.1129095121670956e-05,100.439,0.6430000066757202,-2.2021364472553557
100.551724,,3.3263761449650305e-05,100.909,0.6480000019073486,-2.1915393711590467
101.017241,,3.537208198013422e-05,101.375,0.5960000157356262,-2.3050213554306858
101.482759,,3.7445405317317854e-05,101.837,0.5979999899864197,-2.3007491126654824
101.948276,,3.94748311811143e-05,102.303,0.6150000095367432,-2.263688485584472
102.413793,,4.145123137852808e-05,102.768,0.6359999775886536,-2.21780517925986
102.87931,,4.33652724927517e-05,103.234,0.5929999947547913,-2.3112515257559396
103.344828,,4.5207440283274915e-05,103.698,0.6240000128746033,-2.243382510607132
103.810345,,4.69680657839063e-05,104.164,0.6000000238418579,-2.2952546798894433
104.275862,,4.86373530789877e-05,104.628,0.593999981880188,-2.307840343804373
104.741379,,5.020540873124657e-05,105.094,0.6039999723434448,-2.2855123246628906
105.206897,,5.16622728276958e-05,105.557,0.6129999756813049,-2.265324041774072
105.672414,,5.299795160277052e-05,106.019,0.6190000176429749,-2.251649923177608
106.13793100000001,,5.420245159050484e-05,106.487,0.6660000085830688,-2.1486466930878247
106.603448,,5.5265815250018007e-05,106.949,0.6060000061988831,-2.2787719922812744
107.068966,,5.6178158000918355e-05,107.417,0.5989999771118164,-2.293461480801998
107.534483,,5.6929706597468e-05,107.879,0.6299999952316284,-2.2254124257018826
108.0,,5.75108387625034e-05,108.345,0.6230000257492065,-2.2402165952135085
108.46551699999999,,5.7912123994202124e-05,108.813,0.6240000128746033,-2.2376691137334936
108.931034,,5.8124365450848986e-05,109.278,0.6190000176429749,-2.2482819165677834
109.396552,,5.813864281081296e-05,109.743,0.6449999809265137,-2.1914528495234173
109.862069,,5.794635599702796e-05,110.209,0.6349999904632568,-2.213155638895391
110.32758600000001,,5.753926964740425e-05,110.675,0.6179999709129333,-2.2502118894458616
110.793103,,5.690955820481379e-05,111.141,0.6010000109672546,-2.287370958725049
111.258621,,5.604985149262371e-05,111.606,0.6060000061988831,-2.2766994777250926
111.724138,,5.495328063422876e-05,112.064,0.6340000033378601,-2.216011092212455
112.189655,,5.361352416769019e-05,112.532,0.6499999761581421,-2.1815471522278065
112.655172,,5.2024854199458036e-05,112.994,0.6240000128746033,-2.238653936385169
113.12069,,5.0182182434271596e-05,113.464,0.6480000019073486,-2.186881858103512
113.586207,,4.808110591173352e-05,113.927,0.597000002861023,-2.2985466381002966
114.051724,,4.5717952273772914e-05,114.393,0.6050000190734863,-2.2816936635835496
114.51724100000001,,4.308982438128776e-05,114.859,0.6359999775886536,-2.2147369959875327
114.982759,,4.0194644092723514e-05,115.324,0.6000000238418579,-2.29373646831946
115.448276,,3.703119501223911e-05,115.784,0.593999981880188,-2.307347187227158
115.913793,,3.359916401047138e-05,116.25,0.6470000147819519,-2.1923716351194047
116.37931,,2.989918131676985e-05,116.716,0.640999972820282,-2.205874184926007
116.84482799999999,,2.5932858978172843e-05,117.182,0.6119999885559082,-2.2694101227566392
117.310345,,2.1702827477368747e-05,117.646,0.5989999771118164,-2.2980032971495157
117.77586199999999,,1.7212770299468665e-05,118.112,0.6389999985694885,-2.2110359793047083
118.241379,,1.246745623564374e-05,118.58,0.6079999804496765,-2.2786551112580593
118.70689700000001,,7.472769210585987e-06,119.042,0.6050000190734863,-2.2851726126821803
119.172414,,2.235735420369108e-06,119.505,0.5960000157356262,-2.30466457799601
119.63793100000001,,3.2354524323528418e-06,119.975,0.6269999742507935,-2.2369168115894738
120.103448,,8.931414017734665e-06,120.439,0.6190000176429749,-2.254048160153192
120.568966,,1.4841563582702273e-05,120.901,0.6039999723434448,-2.286351530097532
121.034483,,2.0954095686700323e-05,121.367,0.6060000061988831,-2.281551298720208
121.5,,2.7255974672806663e-05,121.83,0.6499999761581421,-2.185194533318863
121.96551699999999,,3.3732928073281774e-05,122.295,0.6159999966621399,-2.258733019541869
122.431034,,4.036944414320383e-05,122.761,0.6069999933242798,-2.2777830031305717
122.896552,,4.714877370949827e-05,123.227,0.6039999723434448,-2.2837568051498467
123.362069,,5.40529365153874e-05,123.694,0.6230000257492065,-2.2418127915131625
123.827586,,6.106273223204631e-05,124.16,0.6039999723434448,-2.282686586224383
124.293103,,6.815775630004358e-05,124.624,0.6169999837875366,-2.2538881175065653
124.758621,,7.531642075296045e-05,125.09,0.6420000195503235,-2.1990040868762
125.22413800000001,,8.251598016441454e-05,125.553,0.6050000190734863,-2.2792666105177655
125.68965500000002,,8.973256284755983e-05,126.016,0.6190000176429749,-2.2484991868931132
126.15517200000001,,9.6941207422996e-05,126.479,0.5929999947547913,-2.304967398017708
126.62069000000001,,0.00010411590485689956,126.949,0.6660000085830688,-2.14584327457185
127.086207,,0.00011122964605609717,127.41,0.6190000176429749,-2.2482519291080263
127.55172400000001,,0.0001182544750907464,127.879,0.6330000162124634,-2.217857365256061
128.017241,,0.00012516154809828935,128.345,0.6029999852180481,-2.28341527228534
128.48275900000002,,0.00013192119790441805,128.81,0.6100000143051147,-2.2684494040479715
128.948276,,0.00013850300437796237,129.275,0.593999981880188,-2.30367078086584
129.413793,,0.00014487587051690805,129.735,0.6489999890327454,-2.1842744285613747
129.87931,,0.0001510081042422079,130.201,0.6119999885559082,-2.265366053286006
130.344828,,0.0001568675058546998,130.665,0.621999979019165,-2.2440988967756805
130.81034499999998,,0.00016242146108833054,131.131,0.6050000190734863,-2.2816777351304625
131.275862,,0.00016763703967005334,131.598,0.5979999899864197,-2.2974769608340484
131.741379,,0.00017248109927326562,132.063,0.6019999980926514,-2.289301586768572
132.206897,,0.00017692039472754138,132.524,0.6269999742507935,-2.2353484610013945
132.67241399999997,,0.0001809216923227438,132.993,0.5929999947547913,-2.3098934653570367
133.13793099999998,,0.00018445188902044689,133.454,0.5659999847412109,-2.369132999068669
133.60344800000001,,0.00018747813636001343,133.924,0.6399999856948853,-2.208261632845247
134.06896600000002,,0.0001899679688207494,134.39,0.6190000176429749,-2.2542821487717237
134.53448300000002,,0.0001918894363753522,134.853,0.6039999723434448,-2.28714277694439
135.0,,0.00019321124094347702,135.319,0.6449999809265137,-2.1979055492257067
135.465517,,0.00019390287642775015,135.784,0.6119999885559082,-2.269791803938625
135.931034,,0.0001939347719880432,136.249,0.6010000109672546,-2.293652274603637
136.396552,,0.00019327843818338738,136.709,0.6430000066757202,-2.201952504200918
136.862069,,0.00019190661558464529,137.175,0.6069999933242798,-2.2801009433600545
137.327586,,0.0001897934254350742,137.642,0.6460000276565552,-2.194772739600164
137.793103,,0.00018691452191030818,138.108,0.6150000095367432,-2.2618831999311744
138.258621,,0.00018324724550417118,138.57,0.5659999847412109,-2.3681570113141692
138.724138,,0.00017877077704220884,139.039,0.6129999756813049,-2.2652444060197294
139.189655,,0.0001734662918010192,139.502,0.6460000276565552,-2.192811026153821
139.655172,,0.00016731711318847497,139.964,0.6190000176429749,-2.2510898008366644
140.12069,,0.00016030886541788632,140.432,0.6190000176429749,-2.2505551000104274
140.586207,,0.00015242962458816964,140.894,0.6140000224113464,-2.260940615439634
141.05172399999998,,0.00014367006756228553,141.36,0.5960000157356262,-2.2996915622751257
141.51724099999998,,0.00013402361801770547,141.826,0.652999997138977,-2.1751006276231486
141.982759,,0.00012348658902559047,142.292,0.6209999918937683,-2.24447739883585
142.44827600000002,,0.00011205832149982838,142.757,0.6000000238418579,-2.289967725291184
142.913793,,9.974131784320836e-05,143.223,0.6359999775886536,-2.2113626036758105
143.37931,,8.654137010592864e-05,143.688,0.6620000004768372,-2.1546349948407815
143.844828,,7.246768196145524e-05,144.153,0.5960000157356262,-2.2984363600697564
144.310345,,5.753298379659592e-05,144.62,0.6499999761581421,-2.1808937999632403
144.77586200000002,,4.175364020663665e-05,145.086,0.6039999723434448,-2.2813068417174334
145.241379,,2.5149749182623107e-05,145.55,0.625,-2.2358354500297994
145.706897,,7.745232276465626e-06,146.011,0.6110000014305115,-2.266693773837005
146.172414,,1.0432084969392444e-05,146.48,0.6320000290870667,-2.221365100023669
146.637931,,2.9350403037373107e-05,146.942,0.6119999885559082,-2.265413926952137
147.103448,,4.897388959856504e-05,147.41,0.6129999756813049,-2.2637496214785977
147.568966,,6.92626325192144e-05,147.872,0.7440000176429749,-1.9788815581618753
148.034483,,9.017260539230109e-05,148.338,0.5960000157356262,-2.301859075507195
148.5,,0.00011165564626178619,148.806,0.593999981880188,-2.3067431116887263
148.965517,,0.00013365945018931565,149.264,0.5920000076293945,-2.3116032492547918
149.43103399999998,,0.00015612757629230768,149.731,0.6190000176429749,-2.2532432027508476
149.89655199999999,,0.00017899946985838473,150.197,0.5960000157356262,-2.3037616147082294
150.362069,,0.00020221050011398492,150.662,0.6060000061988831,-2.2823182519596696
150.82758600000003,,0.00022569201419466657,151.127,0.6060000061988831,-2.2825845099286837
151.293103,,0.0002493714078310751,151.59,0.6060000061988831,-2.2827654748613693
151.758621,,0.0002731722132277559,152.06,0.621999979019165,-2.24799681587048
152.224138,,0.00029701420457196306,152.52,0.6000000238418579,-2.2959222347480783
152.68965500000002,,0.00032081352156633784,152.984,0.6370000243186951,-2.2152127443915606
153.155172,,0.00034448281133283144,153.454,0.5799999833106995,-2.339204546840774
153.62069,,0.00036793138898554587,153.916,0.6610000133514404,-2.1624562768339097
154.086207,,0.00039106541711731346,154.382,0.6010000109672546,-2.2928186742021697
154.551724,,0.000413788104388883,154.845,0.6039999723434448,-2.2858586373809717
155.017241,,0.00043599992335059543,155.311,0.6430000066757202,-2.200412488907688
155.482759,,0.00045759884756450006,155.776,0.5929999947547913,-2.3088255047353083
155.948276,,0.0004784806080300729,156.242,0.6079999804496765,-2.2756021923591723
156.413793,,0.000498538968849174,156.709,0.6060000061988831,-2.279408595485673
156.87931,,0.0005176660219957371,157.175,0.6119999885559082,-2.265795072422623
157.34482799999998,,0.000535752500983067,157.639,0.6209999918937683,-2.245670847374925
157.81034499999998,,0.0005526881131466842,158.105,0.6140000224113464,-2.2604456674245434
158.275862,,0.0005683618901835705,158.568,0.5960000157356262,-2.299241407023143
158.741379,,0.0005826625565096251,159.031,0.5929999947547913,-2.305426883932801
159.20689700000003,,0.0005954789149163271,159.494,0.597000002861023,-2.2964423514055308
159.672414,,0.0006067002489252512,159.964,0.6629999876022339,-2.152469209790782
160.137931,,0.0006162167411554141,160.428,0.6169999837875366,-2.2525963524104786
160.60344800000001,,0.000623919906933692,160.89,0.5929999947547913,-2.304888674076798
161.06896600000002,,0.0006297030422930119,161.356,0.6499999761581421,-2.18080675832796
161.534483,,0.0006334616854169388,161.819,0.6079999804496765,-2.272503642266467
162.0,,0.0006350940905029641,162.285,0.6539999842643738,-2.172566012409807
162.465517,,0.0006345017129305385,162.75,0.6179999709129333,-2.2513558085648433
162.931034,,0.0006315897045340018,163.215,0.6389999985694885,-2.2060301995453155
163.396552,,0.0006262674176953708,163.679,0.6340000033378601,-2.217404595382988
163.862069,,0.0006184489168878028,164.145,0.6269999742507935,-2.2331770954467616
164.327586,,0.0006080534962177826,164.609,0.6150000095367432,-2.2598684987142725
164.793103,,0.0005950062014330736,165.074,0.6119999885559082,-2.266962280079141
165.258621,,0.0005792383547845761,165.542,0.5709999799728394,-2.356839198842643
165.72413799999998,,0.0005606880810538373,166.005,0.5460000038146973,-2.4118375571671478
166.189655,,0.0005393008329844416,166.473,0.5879999995231628,-2.3208310775362606
166.655172,,0.0005150299142852643,166.935,0.6150000095367432,-2.26245196135697
167.12069,,0.0004878369983069973,167.405,0.6169999837875366,-2.2584710857703163
167.58620699999997,,0.0004576926404308477,167.868,0.6190000176429749,-2.2544094886173927
168.051724,,0.0004245767821502833,168.333,0.6240000128746033,-2.243721725852242
168.517241,,0.00038847924477353586,168.798,0.6190000176429749,-2.2547232170104867
168.98275900000002,,0.00034940021062670757,169.263,0.6389999985694885,-2.2111571976448516
169.44827600000002,,0.00030735068959513774,169.727,0.593999981880188,-2.309101495539548
169.913793,,0.00026235296880458835,170.193,0.6309999823570251,-2.2282976512754793
170.37931,,0.0002144410432141727,170.658,0.6330000162124634,-2.2236524410630967
170.844828,,0.0001636610248701827,171.123,0.6000000238418579,-2.295174192442733
171.310345,,0.00011007152855446979,171.587,0.6290000081062317,-2.2315456088557517
171.775862,,5.374403155316642e-05,172.05,0.6240000128746033,-2.2419299034294418
172.241379,,5.2367947283812105e-06,172.52,0.6330000162124634,-2.221766740237302
172.706897,,6.677278357025111e-05,172.983,0.6110000014305115,-2.2691123604075454
173.172414,,0.00013075200441093793,173.446,0.6420000195503235,-2.200978013190841
173.637931,,0.00019704852921140887,173.909,0.6449999809265137,-2.1938519556535927
174.103448,,0.0002655222358975189,174.374,0.6159999966621399,-2.2564666116564034
174.568966,,0.0003360186510233179,174.844,0.6460000276565552,-2.1905830603300163
175.034483,,0.0004083688337435723,175.309,0.593999981880188,-2.303407859442813
175.5,,0.00048238930311952336,175.776,0.6039999723434448,-2.28123116574339
175.96551699999998,,0.0005578820107066917,176.234,0.6079999804496765,-2.2722141296641625
176.43103399999998,,0.0006346343602875943,176.699,0.5960000157356262,-2.2981528627878225
176.896552,,0.0007124192765170271,177.164,0.6340000033378601,-2.2152631003065095
177.36206900000002,,0.0007909953241435283,177.631,0.6169999837875366,-2.2523056095964886
177.827586,,0.0008701068793548772,178.097,0.5019999742507935,-2.5029646366963187
178.293103,,0.000949484354664598,178.565,0.5799999833106995,-2.33325326689567
178.758621,,0.0010288444786135632,179.027,0.6190000176429749,-2.2486099738046197
179.224138,,0.0011078906314154556,179.49,0.6190000176429749,-2.249022099138385
179.68965500000002,,0.0011863132375282523,179.96,0.6069999933242798,-2.275652951298922
180.155172,,0.001263790215967581,180.424,0.5929999947547913,-2.3067016611381828
180.62069,,0.0013399874889749176,180.887,0.5929999947547913,-2.3072937471475448
181.086207,,0.001414559549438961,181.353,0.6069999933242798,-2.277410863300769
181.551724,,0.0014871500872971077,181.816,0.6190000176429749,-2.251891366849604
182.01724099999998,,0.0015573926750092441,182.282,0.6100000143051147,-2.2721097067037435
182.482759,,0.0016249115119804168,182.747,0.6060000061988831,-2.281402079315507
182.948276,,0.0016893222274329085,183.212,0.5799999833106995,-2.33857476281986
183.413793,,0.001750232740871148,183.68,0.6309999823570251,-2.2279249219054154
183.87931,,0.0018072441792523774,184.145,0.6060000061988831,-2.2827703735681952
184.34482799999998,,0.0018599518501498241,184.606,0.6190000176429749,-2.254732897161211
184.81034499999998,,0.001907946269844584,185.072,0.6330000162124634,-2.224413136692904
185.27586200000002,,0.001950814244079046,185.535,0.6190000176429749,-2.25498551865431
185.74137900000002,,0.0019881399983865023,186.005,0.6579999923706055,-2.1699766446585955
186.206897,,0.0020195063561432016,186.468,0.6230000257492065,-2.246075397287379
186.672414,,0.002044495964554674,186.931,0.6190000176429749,-2.2545291992020933
187.137931,,0.002062692567296846,187.397,0.6119999885559082,-2.2694211150660197
187.60344800000001,,0.0020736823164840185,187.86,0.6320000290870667,-2.225402608770104
188.06896600000002,,0.002077055114263251,188.326,0.640999972820282,-2.2052758336757505
188.534483,,0.002072405984264663,188.791,0.6179999709129333,-2.254808059330362
189.0,,0.0020593364853242597,189.257,0.6060000061988831,-2.2803364151459635
189.465517,,0.0020374561685913657,189.724,0.628000020980835,-2.2317718844253926
189.931034,,0.002006384044455545,190.189,0.6190000176429749,-2.250746151401362
190.39655199999999,,0.001965750020721892,190.654,0.6039999723434448,-2.2828131553969477
190.862069,,0.0019151963401997727,191.119,0.6290000081062317,-2.2277742957444113
191.327586,,0.001854379108839565,191.58,0.6079999804496765,-2.27301146893169
191.793103,,0.0017829699180168489,192.049,0.5920000076293945,-2.3074301171692655
192.25862099999998,,0.001700657364741327,192.513,0.5929999947547913,-2.3049014622622037
192.72413799999998,,0.0016071482936777465,192.975,0.6079999804496765,-2.2719723322102827
193.189655,,0.0015021690113349328,193.439,0.609000027179718,-2.269651959685507
193.655172,,0.0013854670211944484,193.909,0.5870000123977661,-2.3175529321091486
194.12069000000002,,0.0012568131892807227,194.374,0.6579999923706055,-2.1629521336312787
194.586207,,0.0011160031257754954,194.837,0.5929999947547913,-2.304756458649077
195.051724,,0.00096285698595989,195.302,0.6129999756813049,-2.261479167070568
195.517241,,0.0007972195377202098,195.768,0.593999981880188,-2.303264163243178
195.98275900000002,,0.0006189635928582825,196.234,0.6430000066757202,-2.1969831004624494
196.448276,,0.00042799545979470966,196.698,0.6110000014305115,-2.2672390575663193
196.913793,,0.00022425496339215846,197.164,0.6060000061988831,-2.2787212645143513
197.37931,,7.706831299407777e-06,197.628,0.6060000061988831,-2.279342339485814
197.844828,,0.0002216637930757872,198.094,0.6079999804496765,-2.2756188402828164
198.310345,,0.00046383496565094575,198.557,0.6359999775886536,-2.215242587165956
198.775862,,0.0007187235795597314,199.019,0.6129999756813049,-2.2659493274788534
199.241379,,0.000986197758452613,199.487,0.6240000128746033,-2.2425351957710618
199.706897,,0.0012661351866881077,199.95,0.6119999885559082,-2.269166421916984
200.172414,,0.0015584427319835527,200.42,0.6039999723434448,-2.287004491124596
200.63793099999998,,0.0018629509736368946,200.882,0.6269999742507935,-2.237213184139566
201.103448,,0.0021792887885629412,201.348,0.6000000238418579,-2.2962529145035586
201.568966,,0.0025069995183023587,201.812,0.640999972820282,-2.207036480730803
202.034483,,0.002845891121910103,202.278,0.5929999947547913,-2.3116079738915905
202.5,,0.003196076507712788,202.743,0.6079999804496765,-2.278813870975769
202.965517,,0.0035572858801774998,203.209,0.6050000190734863,-2.285128589764171
203.431034,,0.003928235748248862,203.676,0.6129999756813049,-2.2673782274823338
203.896552,,0.004307540355010238,204.134,0.6169999837875366,-2.2582519801214036
204.36206900000002,,0.004695737276758568,204.599,0.6060000061988831,-2.281727864106212
204.827586,,0.005095030484331419,205.065,0.6190000176429749,-2.2528540190525836
205.293103,,0.005504921943186528,205.535,0.5989999771118164,-2.2958308860014514
205.758621,,0.005919257324833191,205.998,0.6060000061988831,-2.279958266174245
206.224138,,0.006332854246282701,206.461,0.6299999952316284,-2.227041993148125
206.689655,,0.006752866920853993,206.931,0.6169999837875366,-2.254747898664754
207.155172,,0.007194225188931648,207.389,0.6259999871253967,-2.2345547956196254
207.62069,,0.00765263086938743,207.86,0.6060000061988831,-2.277592399720022
208.086207,,0.008092399178148694,208.319,0.597000002861023,-2.2967323524454666
208.551724,,0.00849228995887582,208.784,0.6100000143051147,-2.268024563435259
209.01724099999998,,0.008907071802908863,209.249,0.5540000200271606,-2.3897389476179542
209.482759,,0.009422394722316024,209.716,0.5419999957084656,-2.4156993006382885
209.948276,,0.00999220599499666,210.182,0.6259999871253967,-2.2326212913899606
210.413793,,0.010401857647377534,210.646,0.6190000176429749,-2.2479115022254277
210.87930999999998,,0.010572996584349098,211.112,0.6039999723434448,-2.2807397899144704
211.344828,,0.010882617373358498,211.576,0.6000000238418579,-2.289707356993506
211.810345,,0.011790544793600631,212.045,0.6290000081062317,-2.2268760577631213
212.27586200000002,,0.012886059839959683,212.505,0.6079999804496765,-2.27306194337174
212.741379,,0.012893927199771128,212.976,0.6069999933242798,-2.27574601169899
213.206897,,0.011644439587224362,213.439,0.6010000109672546,-2.289379223288147
213.672414,,0.011647795206179154,213.901,0.6570000052452087,-2.167973728781238
214.137931,,0.015303030339248326,214.367,0.6000000238418579,-2.292773396869623
214.60344800000001,,0.01924112151128657,214.831,0.6370000243186951,-2.2127791095239795
215.068966,,0.014596615487142691,215.296,0.6230000257492065,-2.2438757931903788
215.534483,,0.002917736143463616,215.761,0.6499999761581421,-2.1856087351111846
216.0,,0.02498090605624893,216.226,0.5989999771118164,-2.297220054291273
216.465517,,0.03796577753942255,216.691,0.6110000014305115,-2.271506132735623
216.93103399999998,,0.03763064145712327,217.156,0.6079999804496765,-2.278389221435814
217.39655199999999,,0.031599827774651715,217.624,0.5889999866485596,-2.320037530709646
217.862069,,0.028123856139994984,218.089,0.5950000286102295,-2.307119430999064
218.327586,,0.0277922603085296,218.55,0.6190000176429749,-2.2548807671390234
218.793103,,0.026568326340795447,219.019,0.6000000238418579,-2.2962169849708705
219.25862099999998,,0.02221641561509489,219.48,0.6029999852180481,-2.2895181723461526
219.724138,,0.015867173626377698,219.949,0.6060000061988831,-2.282719742831451
220.18965500000002,,0.009738222838901769,220.413,0.6150000095367432,-2.2627578532118116
220.65517200000002,,0.0052840089588022865,220.875,0.5950000286102295,-2.305896166477175
221.12069,,0.002879126283979743,221.341,0.6060000061988831,-2.281429726377729
221.586207,,0.0019875993641282185,221.805,0.6140000224113464,-2.263447774263231
222.051724,,0.0014047613419228657,222.271,0.6069999933242798,-2.278110997980996
222.517241,,0.00011927514505893505,222.736,0.6200000047683716,-2.2491844977615467
222.98275900000002,,0.002976387124342832,223.201,0.6100000143051147,-2.270368758934952
223.448276,,0.006300025828034179,223.668,0.6460000276565552,-2.191355012405122
223.913793,,0.008635501996062287,224.134,0.6029999852180481,-2.2844921683266017
224.37931,,0.009148395521997447,224.599,0.6019999980926514,-2.286181223133105
224.844828,,0.008254337340471717,225.064,0.5960000157356262,-2.2988348844028366
225.31034499999998,,0.007199497387159507,225.527,0.6439999938011169,-2.1939251853218846
225.775862,,0.007015347291987524,225.99,0.6010000109672546,-2.2873655162211506
226.241379,,0.007628455693975807,226.458,0.5960000157356262,-2.2981184793212357
226.706897,,0.00785898070397469,226.92,0.6140000224113464,-2.2588687380010204
227.172414,,0.006471918677986233,227.386,0.640999972820282,-2.2001174221390514
227.63793099999998,,0.0034063686872101736,227.849,0.6060000061988831,-2.276545358467306
228.103448,,5.6983361380922874e-05,228.314,0.6150000095367432,-2.2572111748055
228.56896600000002,,0.0023705409654688923,228.779,0.6100000143051147,-2.268468407725576
229.03448300000002,,0.0029267493534392173,229.245,0.578000009059906,-2.3386288850420147
229.5,,0.002349605234728013,229.71,0.6140000224113464,-2.2607077477035236
229.965517,,0.0019005547815746273,230.175,0.6650000214576721,-2.1501559511694017
230.431034,,0.002648209991299575,230.642,0.625,-2.237891171396046
230.896552,,0.004870419765937162,231.108,0.6169999837875366,-2.2559220040802592
231.362069,,0.007900239018599516,231.576,0.6439999938011169,-2.1976944808366294
231.827586,,0.010550842368978372,232.038,0.6190000176429749,-2.252732407476797
232.293103,,0.011969833903495505,232.506,0.6079999804496765,-2.2772282061623086
232.758621,,0.01226009062461295,232.969,0.6060000061988831,-2.2820595272881765
233.224138,,0.012205943008934591,233.431,0.6179999709129333,-2.2563189378850415
233.689655,,0.012356950604804086,233.894,0.6190000176429749,-2.254459582323563
234.155172,,0.012523352667078736,234.36,0.609000027179718,-2.2764718702867897
234.62069,,0.012220322721166113,234.826,0.6570000052452087,-2.1720215499670874
235.086207,,0.011361544521292793,235.291,0.6190000176429749,-2.2548292900474842
235.55172399999998,,0.01028653217591318,235.757,0.6330000162124634,-2.224241365812185
236.01724099999998,,0.009264470138430464,236.223,0.578000009059906,-2.34387831708625
236.482759,,0.008232151949738482,236.688,0.5929999947547913,-2.3109153212229816
236.94827600000002,,0.0068601122169086644,237.153,0.6330000162124634,-2.223399971892558
237.413793,,0.004577475429960394,237.62,0.5929999947547913,-2.3101009262385026
237.87931,,0.000758305249055594,238.079,0.6039999723434448,-2.2856292295150302
238.344828,,0.004613339453466684,238.55,0.5960000157356262,-2.302506167702216
238.810345,,0.010461699880354771,239.012,0.6150000095367432,-2.2605307168749165
239.27586200000002,,0.01522043899060934,239.48,0.6169999837875366,-2.255580484930395
239.741379,,0.018054027578530765,239.942,0.6539999842643738,-2.1743825475335767
240.206897,,0.019276884284216585,240.41,0.6539999842643738,-2.1738162159175167
240.672414,,0.019557518202355035,240.872,0.6029999852180481,-2.2844001736307677
241.137931,,0.019025567127461868,241.338,0.6299999952316284,-2.2251062513659208
241.603448,,0.017337944346142515,241.802,0.5669999718666077,-2.3619632160700434
242.068966,,0.014421880376255736,242.268,0.6010000109672546,-2.2875769153512016
242.534483,,0.010911400653920204,242.734,0.5960000157356262,-2.2982534253551203
243.0,,0.007875315065358574,243.194,0.6100000143051147,-2.267636913418502
243.465517,,0.006198940095708362,243.661,0.6060000061988831,-2.27634050798426
243.93103399999998,,0.006118229269744844,244.127,0.6209999918937683,-2.243754039813183
244.39655199999999,,0.007178927610565834,244.599,0.6060000061988831,-2.276628090353213
244.862069,,0.008577704432706128,245.057,0.6190000176429749,-2.2485950697996113
245.327586,,0.009608285254743809,245.52,0.5879999995231628,-2.316509209985782
245.793103,,0.010005776872472918,245.99,0.6060000061988831,-2.2777449958014313
246.258621,,0.010041177891097177,246.45,0.6179999709129333,-2.2521140388685486
246.724138,,0.010198827577878423,246.92,0.6060000061988831,-2.2788154150484567
247.18965500000002,,0.010661440659951794,247.385,0.6169999837875366,-2.2554357422932507
247.655172,,0.01109875335035843,247.848,0.6129999756813049,-2.264745423612706
248.12069,,0.010811613363185065,248.314,0.6140000224113464,-2.2631530384391136
248.586207,,0.009076340175240102,248.779,0.6579999923706055,-2.167851437996515
249.051724,,0.005745327726198331,249.245,0.6039999723434448,-2.2860122320274137
249.517241,,0.0016970500555986523,249.71,0.5929999947547913,-2.310431566764768
249.982759,,0.00168930814745898,250.175,0.6100000143051147,-2.273776582665725
250.44827600000002,,0.003826306302864984,250.639,0.6060000061988831,-2.2827891886258675
250.913793,,0.005526695922414932,251.104,0.5960000157356262,-2.3047805292393946
251.37931000000003,,0.008047576438207865,251.565,0.6200000047683716,-2.252598520646198
251.844828,,0.01152385494295667,252.035,0.593999981880188,-2.3092462854709934
252.31034499999998,,0.01458190012855778,252.498,0.6179999709129333,-2.256858887055995
252.77586200000002,,0.015704393894185993,252.96,0.6119999885559082,-2.2697310245530544
253.241379,,0.014990228555597604,253.424,0.6060000061988831,-2.282509318915671
253.706897,,0.014472804435530867,253.894,0.625,-2.240736590769397
254.172414,,0.016494377846494282,254.359,0.6259999871253967,-2.238105718088359
254.63793099999998,,0.02137610619229499,254.826,0.6200000047683716,-2.2506650887763686
255.10344800000001,,0.02653268405000234,255.284,0.6039999723434448,-2.284967087476295
255.56896600000002,,0.02839767115391971,255.749,0.6119999885559082,-2.2669550953167215
256.03448299999997,,0.02577409265501013,256.215,0.6050000190734863,-2.2816145418796796
256.5,,0.020995734744749778,256.68,0.6209999918937683,-2.246174866192779
256.965517,,0.017238168011793033,257.145,0.6230000257492065,-2.2412631585470684
257.431034,,0.015012162750863369,257.613,0.6430000066757202,-2.197179152014062
257.896552,,0.012028566525532185,258.078,0.6179999709129333,-2.25119305894456
258.362069,,0.006282482726850485,258.539,0.6499999761581421,-2.181096437888456
258.827586,,0.0017435162987296537,259.009,0.6000000238418579,-2.289733489055302
259.29310300000003,,0.010126750865858214,259.472,0.6499999761581421,-2.180599875847515
259.758621,,0.017641600209882456,259.934,0.6309999823570251,-2.221892733597075
260.224138,,0.024042156529378036,260.402,0.6140000224113464,-2.2589313864483502
260.689655,,0.028978569870753743,260.865,0.6309999823570251,-2.2220001156865843
261.155172,,0.03181214959058715,261.331,0.6179999709129333,-2.2505291016474476
261.62068999999997,,0.03234992911104333,261.798,0.6079999804496765,-2.2726171266524773
262.086207,,0.03090243332311756,262.264,0.6169999837875366,-2.2533972034750454
262.551724,,0.0277540975312177,262.727,0.6150000095367432,-2.2582168337357302
263.017241,,0.02328521630397075,263.193,0.6240000128746033,-2.239131439724755
263.482759,,0.018397570579123182,263.661,0.5950000286102295,-2.3028789869973214
263.94827599999996,,0.014059077472961671,264.12,0.6060000061988831,-2.2795082329125638
264.413793,,0.010430051230784979,264.587,0.6330000162124634,-2.221287896300319
264.87931,,0.006959496142613149,265.05,0.6449999809265137,-2.195736173467253
265.34482799999995,,0.0033238438695309446,265.52,0.6039999723434448,-2.2856230654476857
265.810345,,0.00021056219673868748,265.984,0.6230000257492065,-2.2447446709728616
266.27586199999996,,0.0033709570796459304,266.446,0.5740000009536743,-2.3519533515297693
266.741379,,0.0062933831960965666,266.909,0.6470000147819519,-2.193291426127325
267.206897,,0.009240753527111114,267.374,0.6570000052452087,-2.171795228242191
267.672414,,0.01238345345263142,267.844,0.6660000085830688,-2.1523773723161854
268.137931,,0.015840365834186985,268.31,0.6010000109672546,-2.294073988396056
268.603448,,0.019309678552373,268.769,0.5799999833106995,-2.339804506867544
269.06896600000005,,0.021806079784302143,269.234,0.6190000176429749,-2.2547121727813644
269.53448299999997,,0.022710903249214754,269.699,0.597000002861023,-2.302416842376345
270.0,,0.023048580981855384,270.164,0.6039999723434448,-2.2868467566068245
270.465517,,0.02450632524861213,270.631,0.5960000157356262,-2.3038722393952917
270.931034,,0.026793305081605504,271.096,0.6119999885559082,-2.2685383719152687
271.396552,,0.02709690174617288,271.565,0.6179999709129333,-2.2549329129642057
271.86206899999996,,0.02298520128989009,272.027,0.6150000095367432,-2.2608928630449823
272.327586,,0.015109934107805895,272.491,0.6209999918937683,-2.2472202222170488
272.793103,,0.006098072865847734,272.961,0.6079999804496765,-2.2749354685524743
273.258621,,0.002584188749554129,273.424,0.5929999947547913,-2.3070207786788446
273.724138,,0.011279868541043011,273.887,0.6439999938011169,-2.195346181895889
274.18965499999996,,0.019838645623494536,274.353,0.6060000061988831,-2.277618655144153
274.655172,,0.026343195570479327,274.816,0.6399999856948853,-2.2030915330214236
275.12069,,0.02895960767105942,275.282,0.5960000157356262,-2.298576336394507
275.586207,,0.028158331024016565,275.747,0.6060000061988831,-2.2765041142200237
276.051724,,0.026112560936940147,276.213,0.5960000157356262,-2.2981044072735504
276.517241,,0.024154416302793972,276.68,0.6190000176429749,-2.2479145510392575
276.98275900000004,,0.021669913977141204,277.146,0.6010000109672546,-2.287156949414
277.448276,,0.01763339888728143,277.605,0.6259999871253967,-2.2328242513627017
277.913793,,0.012431863173137294,278.071,0.6060000061988831,-2.27663334722054
278.37931,,0.007525756846208495,278.539,0.5929999947547913,-2.305288119257118
278.844828,,0.0037844653143269853,279.001,0.6200000047683716,-2.24688337023009
279.31034500000004,,0.0010609013899920948,279.465,0.6190000176429749,-2.2495538352687947
279.77586199999996,,0.0008069474474696175,279.934,0.597000002861023,-2.298034008801055
280.241379,,0.0017310218009155118,280.402,0.5979999899864197,-2.2964473037368345
280.706897,,0.0023293928725797585,280.865,0.625,-2.238239475592926
281.172414,,0.003980779952691298,281.33,0.6019999980926514,-2.2889684431704733
281.637931,,0.007128008490341682,281.795,0.6119999885559082,-2.2677874099509574
282.10344799999996,,0.010165747340324787,282.26,0.6579999923706055,-2.1681409224703168
282.568966,,0.01090651895593741,282.72,0.6240000128746033,-2.242733392310305
283.034483,,0.008974180879562366,283.186,0.6159999966621399,-2.2606127051414746
283.5,,0.006043325489377753,283.654,0.6499999761581421,-2.1869068414237813
283.965517,,0.00378276072690675,284.119,0.5979999899864197,-2.3004713302811726
284.431034,,0.0023703046412622735,284.579,0.5649999976158142,-2.3725415476122755
284.89655200000004,,0.0013305058050254283,285.049,0.6039999723434448,-2.287645172005275
285.362069,,0.0010451228165458432,285.513,0.6370000243186951,-2.2157128059302202
285.827586,,0.002472548992036628,285.975,0.5920000076293945,-2.313607314855622
286.293103,,0.005395291543741922,286.439,0.6330000162124634,-2.224034550327936
286.758621,,0.00785971166586908,286.909,0.6119999885559082,-2.269441838379147
287.22413800000004,,0.007924006904207932,287.374,0.6100000143051147,-2.273368822674551
287.689655,,0.0055220326968044445,287.837,0.6179999709129333,-2.255436954400677
288.155172,,0.0021600529674893434,288.303,0.6069999933242798,-2.2788419753676745
288.62069,,0.000647777157765648,288.768,0.6299999952316284,-2.228132540401718
289.086207,,0.0020519435549794752,289.234,0.597000002861023,-2.299405303156932
289.55172400000004,,0.001726567233835776,289.698,0.6079999804496765,-2.274815047822384
290.01724099999996,,0.00014400619164778536,290.164,0.6480000019073486,-2.187059943798613
290.482759,,0.0012707030639484366,290.624,0.6060000061988831,-2.277987955758589
290.948276,,0.001278960279025196,291.089,0.6100000143051147,-2.26875039220936
291.413793,,0.00020891555929792528,291.557,0.5299999713897705,-2.442590050272195
291.87931,,0.000480270718894392,292.019,0.6579999923706055,-2.163355587714236
292.344828,,3.7746995520007815e-06,292.487,0.6169999837875366,-2.2524067668518493
292.81034500000004,,0.001036641267101409,292.949,0.6449999809265137,-2.191232081418674
293.275862,,0.0016925522199490164,293.417,0.6790000200271606,-2.1170908881685975
293.74137900000005,,0.0017162090950678462,293.88,0.6000000238418579,-2.2892446079233615
294.206897,,0.001624673130718729,294.346,0.6029999852180481,-2.282858024628106
294.672414,,0.002391747592236038,294.812,0.5920000076293945,-2.30707860113745
295.13793100000004,,0.004843652637619601,295.279,0.6039999723434448,-2.281289203109433
295.603448,,0.008514585354175515,295.739,0.5929999947547913,-2.3056968192727223
296.068966,,0.011343933028792717,296.205,0.6309999823570251,-2.2234250288596145
296.534483,,0.011507355213923449,296.672,0.5960000157356262,-2.3002526155767185
297.0,,0.009543893089811697,297.138,0.6060000061988831,-2.2790820610397216
297.46551700000003,,0.00795101678409488,297.602,0.6179999709129333,-2.253576473578917
297.931034,,0.008838867211910748,298.068,0.6209999918937683,-2.247680554702319
298.396552,,0.012686779734169429,298.535,0.609000027179718,-2.2744465054192187
298.862069,,0.019088485594894712,298.998,0.6169999837875366,-2.257602881967863
299.327586,,0.027512042923249495,299.461,0.6209999918937683,-2.2494187513232204
299.79310300000003,,0.03685214320959098,299.931,0.6079999804496765,-2.2782002208197745
300.258621,,0.045090689331024246,300.389,0.6370000243186951,-2.215392422407571
300.724138,,0.05038355318724966,300.86,0.6069999933242798,-2.281027276856478
301.189655,,0.05238193307584432,301.319,0.6470000147819519,-2.1940499252417394
301.65517200000005,,0.051753083783356635,301.79,0.6000000238418579,-2.296502997522927
302.12069,,0.04823284518601552,302.249,0.6190000176429749,-2.2550518848085557
302.586207,,0.039591127525730185,302.72,0.6309999823570251,-2.2287394981346016
303.05172400000004,,0.022883072145353588,303.185,0.6150000095367432,-2.263321750259193
303.517241,,0.0029734355646941204,303.65,0.5789999961853027,-2.3413790204197924
303.982759,,0.035349035141808254,304.116,0.6010000109672546,-2.2929890633728642
304.448276,,0.06825418949510689,304.579,0.6039999723434448,-2.2859217499672955
304.913793,,0.09477840991511428,305.042,0.6169999837875366,-2.2570113543981196
305.37931000000003,,0.11002138240619398,305.509,0.6150000095367432,-2.2607415192046023
305.844828,,0.11267009776213611,305.972,0.6050000190734863,-2.2818808575099165
306.310345,,0.10446289537509312,306.435,0.6190000176429749,-2.250732459188228
306.775862,,0.08832483042560367,306.905,0.6200000047683716,-2.2479257659017526
307.241379,,0.06685082185063046,307.371,0.5830000042915344,-2.3279465848586955
307.70689699999997,,0.04224239597036876,307.834,0.6079999804496765,-2.2729490529060423
308.172414,,0.017156224039847602,308.299,0.6499999761581421,-2.1809875963452527
308.637931,,0.00517316173647437,308.764,0.6349999904632568,-2.213294641129501
309.103448,,0.022409543029811366,309.23,0.5929999947547913,-2.3045229397483653
309.568966,,0.034832585886067295,309.695,0.6060000061988831,-2.2760335084973735
310.034483,,0.044680060593170076,310.16,0.6050000190734863,-2.278158869602428
310.5,,0.05279684631031579,310.62,0.6520000100135803,-2.175823649765337
310.96551700000003,,0.05631901264660954,311.086,0.6039999723434448,-2.280572289017363
311.431034,,0.05089167652845242,311.554,0.6050000190734863,-2.27867497332346
311.896552,,0.0353258408740802,312.016,0.5960000157356262,-2.298665044427743
312.362069,,0.013281909052662185,312.479,0.6179999709129333,-2.251206361052051
312.827586,,0.009524988393717166,312.949,0.6110000014305115,-2.267002906901082
313.29310300000003,,0.028854567971131895,313.413,0.6539999842643738,-2.173924190724437
313.758621,,0.042860352570611604,313.875,0.6330000162124634,-2.2203166473683487
314.224138,,0.051017109330399844,314.341,0.6010000109672546,-2.2906931997848528
314.689655,,0.05325374869457513,314.806,0.6060000061988831,-2.280460066197254
315.155172,,0.04985981712931516,315.271,0.6399999856948853,-2.2070261458260996
315.62068999999997,,0.041491820161863154,315.739,0.6069999933242798,-2.2795213647007473
316.086207,,0.0292618589097578,316.204,0.6499999761581421,-2.1863804221496568
316.551724,,0.015197286614863852,316.668,0.6200000047683716,-2.2522048662039214
317.017241,,0.0022544604877928025,317.134,0.6430000066757202,-2.2024706328198063
317.482759,,0.00706217733250932,317.599,0.628000020980835,-2.235423138762758
317.94827599999996,,0.012529124227981024,318.065,0.625,-2.2421217559947872
318.413793,,0.016361776987616313,318.528,0.6370000243186951,-2.216025426477733
318.87931000000003,,0.021115069114503074,318.99,0.6349999904632568,-2.220313250292286
319.344828,,0.027179983402515043,319.461,0.656000018119812,-2.1743763838331915
319.810345,,0.032321983843540236,319.923,0.6029999852180481,-2.2895498468401425
320.275862,,0.03381751506856477,320.39,0.6359999775886536,-2.21725945493638
320.741379,,0.031128605039397333,320.853,0.6010000109672546,-2.293029525283448
321.20689699999997,,0.02641270955132386,321.319,0.6209999918937683,-2.248901341690493
321.672414,,0.022381621088894757,321.784,0.6110000014305115,-2.2700768244100407
322.137931,,0.01975715193101354,322.25,0.6449999809265137,-2.1953539267826545
322.603448,,0.01691692852776658,322.709,0.7329999804496765,-2.002962992441373
323.068966,,0.012037507570604306,323.175,0.6060000061988831,-2.2789795079375086
323.53448299999997,,0.005393714518098337,323.642,0.6129999756813049,-2.263078645536546
324.0,,0.0007856281809299768,324.108,0.6290000081062317,-2.2276131171146583
324.465517,,0.004703311034657837,324.576,0.5540000200271606,-2.3904673783285166
324.931034,,0.006636890891190063,325.038,0.6600000262260437,-2.159066060383605
325.396552,,0.007825608969164906,325.501,0.6290000081062317,-2.2262319284986534
325.86206899999996,,0.008294094719343519,325.964,0.6039999723434448,-2.2804292104308037
326.327586,,0.006771350775276718,326.435,0.6060000061988831,-2.275915857239271
326.793103,,0.002931010499874333,326.897,0.6579999923706055,-2.1625874352294145
327.258621,,0.0012610028046235895,327.363,0.6060000061988831,-2.2759559825635387
327.724138,,0.0033563239443068953,327.827,0.6100000143051147,-2.267436243459369
328.189655,,0.00332810440671896,328.293,0.6039999723434448,-2.280814193973647
328.655172,,0.003780472276258271,328.757,0.5989999771118164,-2.2921153859128363
329.12068999999997,,0.007059105196061399,329.223,0.6060000061988831,-2.277362390293488
329.586207,,0.012700085071060145,329.687,0.6039999723434448,-2.282291603331553
330.051724,,0.018044871720589405,330.153,0.625,-2.2371679178378616
330.517241,,0.021075924828931246,330.617,0.5960000157356262,-2.301013323736567
330.982759,,0.022212778383300828,331.083,0.609000027179718,-2.2733720250416396
331.44827599999996,,0.023209882414061044,331.546,0.625,-2.239190143928214
331.913793,,0.02471477494076078,332.015,0.597000002861023,-2.300842827341734
332.37931,,0.02557246346505308,332.479,0.6039999723434448,-2.2861974325018526
332.844828,,0.02461572705354526,332.942,0.5789999961853027,-2.341205265151149
333.310345,,0.022436076898596332,333.405,0.6050000190734863,-2.2850220586720633
333.77586199999996,,0.020762487668796438,333.875,0.6710000038146973,-2.141596898485306
334.241379,,0.020246555996266492,334.334,0.6819999814033508,-2.1178868096153938
334.706897,,0.019461320979947953,334.802,0.6190000176429749,-2.255277603139
335.17241399999995,,0.01629753053657564,335.267,0.6069999933242798,-2.2814366300853326
335.637931,,0.009913726753616256,335.732,0.6269999742507935,-2.2377589830094307
336.103448,,0.0010543435042722638,336.198,0.6069999933242798,-2.2811105408853694
336.56896600000005,,0.008917364143996985,336.665,0.6039999723434448,-2.2873158562453564
337.034483,,0.018616288166524702,337.131,0.6060000061988831,-2.2825292809988293
337.5,,0.026703210415213178,337.59,0.6069999933242798,-2.2798362262684457
337.965517,,0.032266298336500576,338.06,0.6190000176429749,-2.253108351801452
338.431034,,0.03521752857643733,338.52,0.6520000100135803,-2.1805762918382863
338.89655200000004,,0.035873513132846,338.991,0.6110000014305115,-2.269230658103323
339.36206899999996,,0.03428767155062322,339.454,0.6129999756813049,-2.264191160965478
339.827586,,0.030544904193083738,339.916,0.6079999804496765,-2.274412073244576
340.293103,,0.025604186851727023,340.382,0.6119999885559082,-2.26505594315819
340.758621,,0.02102011911208355,340.845,0.597000002861023,-2.2971449919314355
341.224138,,0.017424872809064296,341.31,0.6169999837875366,-2.2530505810892945
341.68965499999996,,0.013823342582069199,341.775,0.6330000162124634,-2.2177551326926213
342.155172,,0.008903434719969952,342.241,0.6150000095367432,-2.2566311206366665
342.62069,,0.002748673449392962,342.705,0.6159999966621399,-2.254220859671101
343.086207,,0.0031302166731677207,343.171,0.6439999938011169,-2.193102004971623
343.551724,,0.00716971419338557,343.639,0.6209999918937683,-2.2432121532109184
344.01724099999996,,0.008806663065168996,344.105,0.6079999804496765,-2.271654263816553
344.48275900000004,,0.008479817079612364,344.568,0.5920000076293945,-2.3067482034531435
344.948276,,0.007072160908927424,345.031,0.6129999756813049,-2.261341379068811
345.413793,,0.0053227814201193884,345.494,0.593999981880188,-2.3031787493472926
345.87931,,0.003482276616354932,345.964,0.5920000076293945,-2.3080639451321674
346.344828,,0.001417832722500389,346.427,0.6209999918937683,-2.2454794786689933
346.81034500000004,,0.0009636389822008043,346.89,0.6460000276565552,-2.191657795828374
347.275862,,0.0034521815326891084,347.356,0.5929999947547913,-2.307798677038036
347.741379,,0.005672363789644384,347.819,0.6549999713897705,-2.1734021396795598
348.206897,,0.007381188631977085,348.284,0.6119999885559082,-2.2677493643931648
348.672414,,0.00860755395431925,348.749,0.6179999709129333,-2.25530829166571
349.13793100000004,,0.00954770600652838,349.215,0.6179999709129333,-2.2558856170476806
349.60344799999996,,0.010274987933933012,349.68,0.6129999756813049,-2.267284890265372
350.068966,,0.010465554549182531,350.145,0.625,-2.241560163827062
350.534483,,0.009538634998984769,350.609,0.6200000047683716,-2.252772439242638
351.0,,0.007283846950797456,351.075,0.6209999918937683,-2.250802937654187
351.465517,,0.004301922438067344,351.546,0.6039999723434448,-2.2879332171270366
351.93103399999995,,0.0016894937454198498,352.008,0.6179999709129333,-2.257406977430255
352.396552,,0.00033976571179624744,352.472,0.6539999842643738,-2.178832051334202
352.862069,,0.00044930568906752764,352.934,0.6190000176429749,-2.2548263854028736
353.32758600000005,,0.0013542593824077227,353.405,0.5419999957084656,-2.4222195015462678
353.793103,,0.0018830551190814405,353.868,0.6430000066757202,-2.201721337329483
354.258621,,0.0013689870140048608,354.333,0.6859999895095825,-2.107504187138656
354.72413800000004,,0.00044058796529890655,354.799,0.6150000095367432,-2.2615866854616336
355.189655,,0.00033851183703872495,355.264,0.6110000014305115,-2.2696540931722784
355.655172,,0.0011929619672381303,355.724,0.6700000166893005,-2.1404414076329457
356.12069,,0.0014238093500311016,356.189,0.6309999823570251,-2.224730837187282
356.586207,,0.0005494839245176443,356.654,0.6100000143051147,-2.269820700051833
357.05172400000004,,0.0040508402865252445,357.119,0.6190000176429749,-2.249589403199366
357.517241,,0.00632359001271637,357.59,0.6100000143051147,-2.2686317212407823
357.982759,,0.005502062473979104,358.053,0.6060000061988831,-2.2768565627841006
358.448276,,0.0031078572843791126,358.521,0.593999981880188,-2.302602141819486
358.913793,,0.0029430336855273166,358.983,0.5049999952316284,-2.49620962837601
359.37931000000003,,0.007318283978934873,359.446,0.6010000109672546,-2.286883647040025
359.844828,,0.01453957641243375,359.909,0.6060000061988831,-2.275934528140588
360.310345,,0.020222200923001976,360.374,0.6140000224113464,-2.2585683166095056
360.775862,,0.02126665984333136,360.844,0.6060000061988831,-2.276176799435379
361.241379,,0.018820794188664117,361.31,0.5920000076293945,-2.3069677556013692
361.706897,,0.017275106010039624,361.769,0.6079999804496765,-2.2725008252497694
362.172414,,0.01996384803943612,362.234,0.6100000143051147,-2.2686233990534994
362.63793100000004,,0.025673358035341584,362.699,0.6370000243186951,-2.2103521388647596
363.103448,,0.02956981121397543,363.164,0.5879999995231628,-2.3177130074464176
363.568966,,0.027722783940979025,363.631,0.6060000061988831,-2.2791408884840147
364.034483,,0.020527375499003308,364.097,0.6190000176429749,-2.2514783914560597
364.5,,0.011555144038080122,364.565,0.6190000176429749,-2.2521332893858075
364.96551700000003,,0.0036264418666872343,365.027,0.6060000061988831,-2.281085198867026
365.431034,,0.003178668748314129,365.495,0.6190000176429749,-2.25334746996086
365.896552,,0.009865011934156726,365.957,0.6110000014305115,-2.271298611050031
366.362069,,0.016103848362330583,366.42,0.640999972820282,-2.206381792998846
366.827586,,0.020195894237714666,366.89,0.6060000061988831,-2.2829839759778636
367.29310300000003,,0.021124110444780082,367.356,0.6359999775886536,-2.2178707651547023
367.758621,,0.020056674047812223,367.819,0.6209999918937683,-2.250685993453748
368.224138,,0.019526605422926894,368.285,0.6290000081062317,-2.2332777862238253
368.689655,,0.02102636234206785,368.744,0.6330000162124634,-2.2244695427117276
369.155172,,0.023441249827045547,369.21,0.6209999918937683,-2.250408570839842
369.62068999999997,,0.024054707641175278,369.675,0.628000020980835,-2.234849214368747
370.086207,,0.021305743181240157,370.141,0.6579999923706055,-2.169086754499414
370.55172400000004,,0.016530344166168828,370.606,0.6439999938011169,-2.199102664174254
371.017241,,0.01272192802287806,371.072,0.609000027179718,-2.2748043290481
371.482759,,0.011453329178775451,371.535,0.6079999804496765,-2.276385586310309
371.948276,,0.011339156748423477,372.005,0.6209999918937683,-2.2474386276483735
372.413793,,0.009834856858915667,372.468,0.6039999723434448,-2.283843835616813
372.87931000000003,,0.0062068193147131676,372.931,0.6190000176429749,-2.250544726109696
373.344828,,0.002166751681486301,373.397,0.609000027179718,-2.27174379869189
373.810345,,0.00023333124754708088,373.86,0.6079999804496765,-2.2733853306298317
374.275862,,0.0005727684085957687,374.326,0.6209999918937683,-2.2445922978501818
374.741379,,0.00018435505789973327,374.791,0.5960000157356262,-2.298668841312195
375.20689699999997,,0.0010788880288237208,375.257,0.6579999923706055,-2.1632951089788826
375.672414,,0.0016760372689611043,375.724,0.6209999918937683,-2.2437072289445625
376.137931,,0.0017059834479956737,376.19,0.6209999918937683,-2.2436147143107372
376.603448,,0.0011044503056891009,376.654,0.6140000224113464,-2.2588811146661523
377.068966,,0.00042038339443796176,377.12,0.6060000061988831,-2.2764339329416274
377.53448299999997,,0.0004526853655673908,377.583,0.6269999742507935,-2.230909105559539
378.0,,0.0012471267294014003,378.045,0.6320000290870667,-2.220337126321544
378.465517,,0.0018705832071270814,378.509,0.6000000238418579,-2.2904592889233286
378.931034,,0.001377286154435808,378.979,0.6579999923706055,-2.1645738501044463
379.396552,,0.0002474762182378369,379.439,0.6209999918937683,-2.2457145559196006
379.862069,,0.0022485253342606195,379.909,0.6290000081062317,-2.2288537520786678
380.327586,,0.0039206713781464704,380.375,0.6050000190734863,-2.281730326231325
380.79310300000003,,0.004929271036196715,380.837,0.6110000014305115,-2.269250187888003
381.258621,,0.005116962219412632,381.303,0.6079999804496765,-2.276362369805499
381.724138,,0.004789648983987589,381.769,0.5789999961853027,-2.3400864218774986
382.189655,,0.005338385414471005,382.234,0.6330000162124634,-2.222932934143065
382.655172,,0.008814708813502155,382.699,0.6129999756813049,-2.2669336440205026
383.12068999999997,,0.016304162424432857,383.164,0.6029999852180481,-2.2890686127996083
383.586207,,0.02668667684528706,383.624,0.6079999804496765,-2.278434851569542
384.051724,,0.036998514828887344,384.09,0.625,-2.2415602012943805
384.517241,,0.044211690619935955,384.557,0.6060000061988831,-2.283014906418956
384.982759,,0.0473557854847062,385.02,0.6190000176429749,-2.254649530529919
385.44827599999996,,0.04833914565997666,385.487,0.6169999837875366,-2.2588624587546793
385.913793,,0.050187639917459274,385.949,0.6150000095367432,-2.2629786308485706
386.37931,,0.053592917377902324,386.417,0.6060000061988831,-2.2822571199866695
386.84482799999995,,0.05499782499754402,386.879,0.5929999947547913,-2.3101733375413116
387.310345,,0.04884791678926733,387.345,0.6330000162124634,-2.222557228496302
387.775862,,0.032571474708199676,387.81,0.656000018119812,-2.171927737110077
388.241379,,0.009399250886712169,388.275,0.6029999852180481,-2.2868411964393847
388.70689699999997,,0.013924221777650016,388.742,0.6060000061988831,-2.279734873166452
389.172414,,0.03188478966433741,389.207,0.6499999761581421,-2.1833068634693586
389.637931,,0.04260566139282576,389.672,0.628000020980835,-2.2306889785746193
390.103448,,0.04666760712184472,390.138,0.597000002861023,-2.2977163388155217
390.56896600000005,,0.044941913211283976,390.602,0.6000000238418579,-2.290724331335501
391.03448299999997,,0.038066939728020575,391.068,0.6079999804496765,-2.272908516806439
391.5,,0.027759274185326543,391.531,0.652999997138977,-2.174562559117234
391.965517,,0.017879959239211565,391.994,0.7080000042915344,-2.054516611390344
392.431034,,0.013020539917144528,392.464,0.6050000190734863,-2.2787893755280635
392.896552,,0.01513389643343135,392.927,0.6290000081062317,-2.2264720682225527
393.36206899999996,,0.021558660190473086,393.393,0.5540000200271606,-2.389942457707651
393.827586,,0.026737409147499128,393.859,0.6179999709129333,-2.250680835993099
394.293103,,0.026217105480300498,394.325,0.6190000176429749,-2.2487672378864727
394.75862099999995,,0.019660335680112644,394.79,0.625,-2.2360437782776654
395.224138,,0.010840854079172414,395.256,0.6200000047683716,-2.247357150978746
395.68965499999996,,0.00495019735417278,395.72,0.6169999837875366,-2.2543715612651294
396.155172,,0.00530334642017379,396.186,0.640999972820282,-2.2026050636287904
396.62069,,0.011807732287182836,396.651,0.6200000047683716,-2.248903194211598
397.086207,,0.022006423330730517,397.109,0.6190000176429749,-2.2516368169935164
397.551724,,0.03321439554661451,397.579,0.6119999885559082,-2.2674337939232077
398.017241,,0.04353672588870569,398.042,0.652999997138977,-2.1786291024694378
398.48275900000004,,0.05133903483568088,398.509,0.6579999923706055,-2.1682114914916775
398.94827599999996,,0.05474875521147195,398.972,0.6060000061988831,-2.2819176441168474
399.413793,,0.05230828728776122,399.435,0.6330000162124634,-2.223439727137687
399.87931,,0.04394971061546367,399.905,0.6100000143051147,-2.2738132637862116
400.344828,,0.03101624367484007,400.37,0.6209999918937683,-2.250023841796126
400.810345,,0.015500637769420124,400.833,0.6539999842643738,-2.1782093629346044
401.27586199999996,,0.00041179129267591736,401.299,0.6029999852180481,-2.2893039791232845
401.741379,,0.014397298505435887,401.76,0.6190000176429749,-2.254333505416265
402.206897,,0.02465680162813896,402.226,0.6190000176429749,-2.254130240429886
402.672414,,0.031127101179893417,402.69,0.5979999899864197,-2.2995942817521287
403.137931,,0.035407083149228406,403.157,0.6230000257492065,-2.2447656380766485
403.60344799999996,,0.03876955548632281,403.624,0.628000020980835,-2.2334464368336464
404.068966,,0.04075190314272409,404.089,0.6119999885559082,-2.2678285894341093
404.534483,,0.04039694630301825,404.55,0.6079999804496765,-2.2760323253143566
405.0,,0.03809815616814153,405.02,0.6370000243186951,-2.212322073111295
405.465517,,0.03503446109928933,405.48,0.6010000109672546,-2.290222095081548
405.931034,,0.03137138169974679,405.949,0.6119999885559082,-2.2657409139565607
406.39655200000004,,0.026560792243454288,406.413,0.6079999804496765,-2.273971260455476
406.862069,,0.021269893735370565,406.875,0.6470000147819519,-2.1885657476020715
407.327586,,0.01729950110838118,407.341,0.6269999742507935,-2.2317594563222127
407.793103,,0.015019161837608142,407.806,0.6190000176429749,-2.2488798586959957
408.258621,,0.012265619687774,408.272,0.6169999837875366,-2.2530094185114486
408.72413800000004,,0.006923444556359118,408.739,0.593999981880188,-2.302979015241386
409.18965499999996,,5.1576245894916234e-05,409.204,0.625,-2.2353944101525203
409.655172,,0.005277081190559758,409.668,0.5929999947547913,-2.305158674549797
410.12069,,0.006458731028586647,410.134,0.6159999966621399,-2.2551894815382343
410.586207,,0.004510325980362369,410.599,0.6169999837875366,-2.2532378270245252
411.05172400000004,,0.00221582782640237,411.065,0.6579999923706055,-2.1642186365102276
411.51724099999996,,0.001388650207841839,411.528,0.5630000233650208,-2.3715644586937508
411.982759,,0.0015349156006059254,411.99,0.6119999885559082,-2.265243506780833
412.448276,,0.000989464522705821,412.454,0.5979999899864197,-2.2962222537942614
412.913793,,0.0010228788910318577,412.923,0.6060000061988831,-2.2792997062364724
413.37931,,0.0036068610350733455,413.389,0.6150000095367432,-2.260211149088954
413.844828,,0.005277444885042612,413.853,0.609000027179718,-2.2737979736244016
414.31034500000004,,0.005505777652548021,414.319,0.640999972820282,-2.2045750429222966
414.775862,,0.005079522348420004,414.783,0.6119999885559082,-2.2682121489927125
415.241379,,0.005067334460285319,415.248,0.652999997138977,-2.179291767717704
415.706897,,0.005715936217334096,415.712,0.6309999823570251,-2.227561080563883
416.172414,,0.006539872123289139,416.178,0.6290000081062317,-2.2321816976204727
416.63793100000004,,0.007184124319448656,416.643,0.6079999804496765,-2.278114046599579
417.103448,,0.0077421623063049436,417.108,0.6150000095367432,-2.2629567608314836
417.568966,,0.008375792628058746,417.572,0.6460000276565552,-2.19542161894224
418.034483,,0.009067652888176373,418.035,0.6200000047683716,-2.2519788324652783
418.5,,0.009636760525587514,418.505,0.6060000061988831,-2.282305375775406
418.96551700000003,,0.009674655568923846,418.968,0.6050000190734863,-2.2842296592061193
419.43103399999995,,0.008735854629757765,419.431,0.6579999923706055,-2.1684349691994798
419.896552,,0.0069908123519461934,419.894,0.5929999947547913,-2.309658802056257
420.362069,,0.005345916229307685,420.359,0.6209999918937683,-2.24821981390335
420.827586,,0.004250204097480903,420.826,0.6140000224113464,-2.2629994457099527
421.293103,,0.002484099956274958,421.292,0.6330000162124634,-2.2211147500223642
421.758621,,0.0020013473386508293,421.757,0.5929999947547913,-2.30776669934344
422.22413800000004,,0.009612095014338459,422.223,0.6370000243186951,-2.2114243297697773
422.689655,,0.01803740449960796,422.69,0.5210000276565552,-2.463694716416493
423.15517200000005,,0.024084612851663762,423.156,0.6589999794960022,-2.1626322499017934
423.62069,,0.02617352426640124,423.621,0.6320000290870667,-2.221100805521718
424.086207,,0.0249228178456761,424.079,0.6570000052452087,-2.16634271204498
424.55172400000004,,0.022148356969275657,424.547,0.6430000066757202,-2.196623554605536
425.017241,,0.019649588827571673,425.009,0.6190000176429749,-2.2487696853724315
425.482759,,0.018096271391202446,425.479,0.6600000262260437,-2.1593869955855185
425.948276,,0.016471694897410124,425.942,0.6159999966621399,-2.2552742321295955
426.413793,,0.01309273040236,426.405,0.6000000238418579,-2.2902438969068553
426.87931000000003,,0.007612781430540189,426.875,0.6190000176429749,-2.2490429263650795
427.344828,,0.0016063980756730984,427.334,0.6019999980926514,-2.2863488875173665
427.810345,,0.003197616255540057,427.806,0.6069999933242798,-2.275791459276694
428.275862,,0.0067990375064151285,428.264,0.597000002861023,-2.297970067100634
428.741379,,0.010461355460581948,428.731,0.5879999995231628,-2.318014125526876
429.20689699999997,,0.014698561933179108,429.196,0.6119999885559082,-2.2661928103988234
429.672414,,0.01858046026035447,429.661,0.6190000176429749,-2.2514225533836485
430.137931,,0.021054630620821396,430.127,0.6060000061988831,-2.280223523792177
430.603448,,0.022039832155311658,430.598,0.6359999775886536,-2.2153251830156195
431.068966,,0.021875147958308864,431.056,0.6079999804496765,-2.2767558759312956
431.534483,,0.02047231522425762,431.524,0.5960000157356262,-2.3032826035259197
432.0,,0.017545033022057385,431.987,0.6480000019073486,-2.190318215517113
432.46551700000003,,0.013214935697930742,432.45,0.6060000061988831,-2.2820779310745936
432.931034,,0.007941640361916332,432.92,0.640999972820282,-2.206004778742683
433.396552,,0.002058180278308225,433.385,0.6179999709129333,-2.2562106623194773
433.862069,,0.004391214155676007,433.849,0.6169999837875366,-2.2584010955262936
434.327586,,0.011484469058358052,434.314,0.6230000257492065,-2.245256091842942
434.79310300000003,,0.01918679794518955,434.779,0.6169999837875366,-2.2581728209616028
435.258621,,0.027071466284539714,435.245,0.6110000014305115,-2.27101272348922
435.724138,,0.03404300599517817,435.71,0.6340000033378601,-2.2206028082665856
436.189655,,0.03845009508835701,436.176,0.6549999713897705,-2.1744900628807455
436.655172,,0.03892369042963518,436.636,0.5989999771118164,-2.2960847508574105
437.12068999999997,,0.03553910419227695,437.101,0.597000002861023,-2.299999044714088
437.586207,,0.03023997308395883,437.564,0.6119999885559082,-2.2668583968953744
438.051724,,0.025799120187859275,438.034,0.6079999804496765,-2.27510858154896
438.517241,,0.02383581743672469,438.498,0.6269999742507935,-2.233260838478619
438.982759,,0.023479714787406056,438.96,0.593999981880188,-2.304728380333062
439.448276,,0.02202961251070857,439.424,0.6240000128746033,-2.238980521421284
439.913793,,0.017287513936479728,439.894,0.6039999723434448,-2.282217042597319
440.37931000000003,,0.009568636270078248,440.36,0.5820000171661377,-2.329873652951214
440.844828,,0.0015405633003072556,440.819,0.5889999866485596,-2.3144221624734644
441.310345,,0.0039199022382517944,441.284,0.6290000081062317,-2.2271531994413873
441.775862,,0.005901157266947499,441.751,0.6190000176429749,-2.2488968807669836
442.241379,,0.005955162859712893,442.216,0.6079999804496765,-2.272900243187025
442.70689699999997,,0.006785597756141794,442.683,0.6729999780654907,-2.131404851703212
443.172414,,0.01021466487204171,443.149,0.6039999723434448,-2.281922057278414
443.637931,,0.01577660209741368,443.609,0.6140000224113464,-2.2603941901994364
444.103448,,0.020928905165040056,444.075,0.6060000061988831,-2.2781429823821893
444.568966,,0.022996450784238565,444.543,0.6069999933242798,-2.2763343453922547
445.03448299999997,,0.02149037269594105,445.005,0.6150000095367432,-2.259313393351171
445.5,,0.018543461999197278,445.476,0.6079999804496765,-2.274997099335781
445.965517,,0.016711752163665848,445.939,0.5759999752044678,-2.34515847483952
446.431034,,0.016420565062074014,446.402,0.6290000081062317,-2.230132026492145
446.896552,,0.016015076481470086,446.864,0.6039999723434448,-2.2850226175813053
447.36206899999996,,0.014214829967616475,447.33,0.6320000290870667,-2.224412603168542
447.827586,,0.01173783586783962,447.794,0.6200000047683716,-2.2509038106256107
448.29310300000003,,0.010200978188220728,448.26,0.6159999966621399,-2.259909802866331
448.758621,,0.010182139870345906,448.728,0.6110000014305115,-2.271029699937158
449.224138,,0.011089222494133457,449.193,0.6449999809265137,-2.1971101726814557
449.689655,,0.012584804808075565,449.658,0.6330000162124634,-2.2233305786213675
450.155172,,0.015436475095117015,450.124,0.5789999961853027,-2.340975253574379
450.62068999999997,,0.02088266828246754,450.587,0.6119999885559082,-2.2690003695190604
451.086207,,0.029216756343827737,451.05,0.6119999885559082,-2.2688465248670497
451.551724,,0.03873780821600615,451.52,0.628000020980835,-2.233764207126594
452.017241,,0.046344135840834313,451.983,0.6209999918937683,-2.2487279849783692
452.482759,,0.05002997894012146,452.451,0.6190000176429749,-2.252744957024846
452.94827599999996,,0.05080679095622555,452.912,0.597000002861023,-2.3002934142477414
453.413793,,0.05093966119968789,453.378,0.6010000109672546,-2.2911686732732797
453.87931,,0.049774119959459705,453.841,0.6079999804496765,-2.2754933099501153
454.344828,,0.04265434290602939,454.307,0.6119999885559082,-2.266352419765323
454.810345,,0.025370083585399463,454.772,0.5950000286102295,-2.3029754989571978
455.27586199999996,,0.0007891258723682986,455.237,0.6380000114440918,-2.2089052041709376
455.741379,,0.029450487366281856,455.702,0.6110000014305115,-2.267377430046005
456.206897,,0.054070485932772076,456.168,0.6100000143051147,-2.269253232332849
456.672414,,0.07139803757418868,456.632,0.6060000061988831,-2.2777237494484197
457.137931,,0.08101490562133849,457.098,0.6489999890327454,-2.183863524670241
457.603448,,0.08357265783942222,457.561,0.6190000176429749,-2.2491149063671316
458.06896600000005,,0.08001903553207215,458.031,0.640999972820282,-2.201150187181947
458.53448299999997,,0.07157262037863996,458.491,0.597000002861023,-2.2970511524490904
459.0,,0.05993883679131934,458.954,0.6439999938011169,-2.194769012415964
459.465517,,0.04749203513525717,459.424,0.5699999928474426,-2.356173916769156
459.931034,,0.03659292713990415,459.886,0.6579999923706055,-2.16470228578562
460.39655200000004,,0.028111087035986727,460.352,0.6060000061988831,-2.2782970367358653
460.86206899999996,,0.020936621770804995,460.816,0.6589999794960022,-2.163178584895777
461.327586,,0.013448549418971927,461.281,0.6340000033378601,-2.2180276549662867
461.793103,,0.005327979338033399,461.747,0.6039999723434448,-2.2837912431005756
462.258621,,0.002257631396870185,462.212,0.6330000162124634,-2.221023586991571
462.724138,,0.007842868179670774,462.68,0.6200000047683716,-2.249755012265367
463.18965499999996,,0.010695412653116475,463.146,0.6069999933242798,-2.2784692275268186
463.655172,,0.011174325111231297,463.606,0.6159999966621399,-2.259223955655739
464.12069,,0.010646140869732775,464.071,0.6330000162124634,-2.2225082850074473
464.58620699999994,,0.010676819576530818,464.539,0.6320000290870667,-2.224956102716333
465.051724,,0.011716736994767402,465.001,0.6079999804496765,-2.2774523848323316
465.517241,,0.012815432863932366,465.464,0.6449999809265137,-2.1969839844126433
465.98275900000004,,0.012935024042751934,465.935,0.6079999804496765,-2.2776639795758697
466.448276,,0.012108371603548976,466.405,0.5929999947547913,-2.310340854539439
466.913793,,0.011083206748049032,466.86,0.6209999918937683,-2.249263964349469
467.37931,,0.010407649153335466,467.326,0.6449999809265137,-2.196831046807108
467.844828,,0.010134933631181372,467.791,0.6499999761581421,-2.185725011272725
468.31034500000004,,0.009959099863067243,468.257,0.515999972820282,-2.477392550158233
468.77586199999996,,0.009503487853509657,468.724,0.6430000066757202,-2.200385194663652
469.241379,,0.008897047918582146,469.19,0.6169999837875366,-2.2566723717794517
469.706897,,0.009136587635799196,469.654,0.6019999980926514,-2.2889656779939687
470.172414,,0.011480447497117564,470.12,0.6119999885559082,-2.266777319923894
470.63793100000004,,0.016257980671623103,470.583,0.628000020980835,-2.2315138709119124
471.10344799999996,,0.02236512945505471,471.045,0.6150000095367432,-2.2594405595302844
471.568966,,0.028029823982844832,471.513,0.6620000004768372,-2.1566693839957347
472.034483,,0.03207312365058958,471.975,0.5669999718666077,-2.3632997258319643
472.5,,0.034542808961529614,472.443,0.6119999885559082,-2.2649650735574776
472.965517,,0.0364485010686095,472.905,0.6399999856948853,-2.2037224603750283
473.43103399999995,,0.03895068870308296,473.37,0.6129999756813049,-2.262366772190814
473.89655200000004,,0.04224731452539948,473.841,0.6079999804496765,-2.2731482438107182
474.362069,,0.04466463382942468,474.299,0.6330000162124634,-2.218641424202144
474.827586,,0.043061161573297625,474.764,0.6230000257492065,-2.240459272463046
475.293103,,0.03500504631182532,475.23,0.5989999771118164,-2.2928495961346074
475.758621,,0.021286289954240364,475.698,0.597000002861023,-2.297378610326652
476.22413800000004,,0.00635697729264795,476.164,0.6370000243186951,-2.2104678097206323
476.689655,,0.004328026588365332,476.629,0.6539999842643738,-2.1737202413556043
477.155172,,0.0082771856748378,477.094,0.6060000061988831,-2.278629221304705
477.62069,,0.007795489284551878,477.557,0.5929999947547913,-2.307321180917795
478.086207,,0.008062830189395671,478.02,0.6370000243186951,-2.2118545254160575
478.55172400000004,,0.013507006933202087,478.49,0.628000020980835,-2.231867087765124
479.01724099999996,,0.02546108552154885,478.953,0.6010000109672546,-2.291093259428363
479.482759,,0.04180149218896351,479.414,0.6190000176429749,-2.2522661525780614
479.948276,,0.05792136006785636,479.883,0.6119999885559082,-2.2678789427972026
480.413793,,0.06891733912992277,480.349,0.6000000238418579,-2.294347047896763
480.87931000000003,,0.07226047713646054,480.809,0.6539999842643738,-2.1769758947729443
481.344828,,0.06884249545218658,481.274,0.6620000004768372,-2.1597631552563024
481.810345,,0.061351975360806256,481.739,0.6209999918937683,-2.249237525415921
482.275862,,0.05182395356988201,482.205,0.6190000176429749,-2.2536744582584682
482.74137900000005,,0.0409579684837284,482.672,0.6190000176429749,-2.253682488277109
483.206897,,0.029303879655756447,483.138,0.5989999771118164,-2.297192153087338
483.672414,,0.018158257120826957,483.602,0.5989999771118164,-2.2970601122293224
484.13793100000004,,0.009025898722338213,484.068,0.6159999966621399,-2.259826610484678
484.603448,,0.002708533123790585,484.535,0.5799999833106995,-2.3380034404732046
485.068966,,0.0010179028778460931,484.998,0.6499999761581421,-2.1851930047699746
485.534483,,0.003376486113934755,485.461,0.6079999804496765,-2.2763492341876588
486.0,,0.0061057051447355225,485.931,0.652999997138977,-2.177931254378359
486.46551700000003,,0.0101464558757121,486.389,0.6100000143051147,-2.2712145515885602
486.931034,,0.01460434738647202,486.86,0.6309999823570251,-2.225057522706046
487.396552,,0.01757190228469408,487.319,0.6370000243186951,-2.2115859390752686
487.862069,,0.01820699508023725,487.784,0.6060000061988831,-2.2787430238231328
488.327586,,0.017697870819424547,488.25,0.6190000176429749,-2.250070923155638
488.79310300000003,,0.018002808913999527,488.716,0.6190000176429749,-2.2497639628626938
489.258621,,0.019830498918946646,489.182,0.6019999980926514,-2.2865466177422427
489.724138,,0.022060961496939077,489.646,0.6269999742507935,-2.2318868360589668
490.189655,,0.023012753274034927,490.112,0.609000027179718,-2.2709755298914027
490.655172,,0.021999941332333548,490.575,0.6349999904632568,-2.2142743662181896
491.12069,,0.019688808015093217,491.045,0.5960000157356262,-2.29925771418061
491.586207,,0.017213019593234586,491.509,0.6060000061988831,-2.277560100171198
492.05172400000004,,0.015105087097773206,491.972,0.6050000190734863,-2.279897943092296
492.517241,,0.013150642655061568,492.435,0.6029999852180481,-2.284479740868477
492.982759,,0.011197943058443648,492.905,0.6110000014305115,-2.267332938235929
493.448276,,0.009749008579590625,493.371,0.6179999709129333,-2.2524134815311765
493.913793,,0.009548107015260876,493.834,0.5929999947547913,-2.3072487613313823
494.37931000000003,,0.010844948460487462,494.299,0.6129999756813049,-2.2640716321142924
494.844828,,0.013241494226252927,494.765,0.6660000085830688,-2.1490117416126004
495.310345,,0.016008159593717958,495.23,0.5690000057220459,-2.3607484905037435
495.775862,,0.01837348025106345,495.69,0.5950000286102295,-2.3044996444358232
496.241379,,0.019755858610571633,496.156,0.6330000162124634,-2.2220828699035797
496.70689699999997,,0.020011939638854028,496.621,0.6330000162124634,-2.2224166968259227
497.172414,,0.019438614683404666,497.086,0.6150000095367432,-2.261917116474111
497.637931,,0.018332774944388574,497.55,0.5960000157356262,-2.3035389801855595
498.103448,,0.016533002395663837,498.019,0.6119999885559082,-2.2688444926878604
498.568966,,0.013625237597968033,498.48,0.6499999761581421,-2.18614978026625
499.03448299999997,,0.009663095121636904,498.95,0.6340000033378601,-2.221027693687877
499.5,,0.005374000455504571,499.413,0.6570000052452087,-2.1708628555516034
499.96551700000003,,0.0014358732792929896,499.875,0.6039999723434448,-2.2862022517123215
500.431034,,0.002300070204010148,500.341,0.6060000061988831,-2.2816483791177515
500.89655200000004,,0.006704507691393711,500.806,0.6060000061988831,-2.281391787246044
501.362069,,0.012493473267513582,501.271,0.6579999923706055,-2.167792664944099
501.827586,,0.019505868427101863,501.738,0.6110000014305115,-2.269835884532978
502.293103,,0.026925166950739005,502.204,0.6449999809265137,-2.1953762531804157
502.758621,,0.034125825828240586,502.668,0.5799999833106995,-2.3365837963702587
503.224138,,0.040920392718293404,503.134,0.6389999985694885,-2.207633501357446
503.68965499999996,,0.04678162321366959,503.599,0.6430000066757202,-2.1985157550501593
504.15517200000005,,0.05025690113675979,504.065,0.5979999899864197,-2.2961712614255507
504.62068999999997,,0.04983554624497828,504.527,0.6069999933242798,-2.2762128457199067
505.08620699999994,,0.04558322978967188,504.99,0.6209999918937683,-2.2454058788063693
505.55172400000004,,0.039397011195058194,505.458,0.6290000081062317,-2.227724403804295
506.017241,,0.033143676573099606,505.92,0.6309999823570251,-2.223176009645729
506.48275899999993,,0.026900766332848835,506.385,0.6060000061988831,-2.2775184752241375
506.948276,,0.019679308865153466,506.849,0.6079999804496765,-2.273109754566878
507.413793,,0.011526251681986234,507.315,0.656000018119812,-2.168556361294949
507.87931,,0.003966651078382245,507.78,0.6359999775886536,-2.2122224023814496
508.344828,,0.0016187113869773765,508.245,0.6209999918937683,-2.2450633196746765
508.810345,,0.005276546699762707,508.713,0.6190000176429749,-2.249645823579445
509.27586199999996,,0.00803253493540049,509.178,0.6079999804496765,-2.2738937090643483
509.74137900000005,,0.010678423792955147,509.646,0.6200000047683716,-2.2480810893349683
510.20689699999997,,0.013208262178419585,510.104,0.6240000128746033,-2.239735301319881
510.67241399999995,,0.015230640712065887,510.572,0.6110000014305115,-2.2684522053304597
511.13793100000004,,0.01657772887971799,511.035,0.6060000061988831,-2.2797533066892397
511.603448,,0.017298682625991452,511.502,0.625,-2.23876720872635
512.0689659999999,,0.01736597588009441,511.964,0.6019999980926514,-2.289271362855419
512.534483,,0.016884734376682996,512.435,0.574999988079071,-2.3484653526172226
513.0,,0.016395355457792457,512.898,0.6399999856948853,-2.207187010962238
513.465517,,0.016331979890898057,513.364,0.6079999804496765,-2.277188838197257
513.931034,,0.016322587004295327,513.827,0.656000018119812,-2.172839561893908
514.396552,,0.015900647829226663,514.293,0.6290000081062317,-2.2318218988254364
514.862069,,0.015995445994145624,514.757,0.656000018119812,-2.1730843421453825
515.327586,,0.01864967386299675,515.222,0.625,-2.2406329706842536
515.793103,,0.02473493567037905,515.687,0.6060000061988831,-2.2819629030380493
516.258621,,0.03281149606018794,516.153,0.6060000061988831,-2.2818270566445333
516.724138,,0.04086134074941184,516.62,0.6019999980926514,-2.2903391949545187
517.189655,,0.04832519094262164,517.086,0.6330000162124634,-2.2225380127611474
517.655172,,0.05563103135462111,517.549,0.6190000176429749,-2.252723178600526
518.1206900000001,,0.06224806832923787,518.012,0.6039999723434448,-2.285044588428918
518.5862070000001,,0.06588716954009974,518.48,0.6100000143051147,-2.2715839254225063
519.051724,,0.06336312831448754,518.942,0.6330000162124634,-2.221068203198547
519.517241,,0.05212414060572815,519.405,0.6209999918937683,-2.2467995019998184
519.982759,,0.03176829384405603,519.875,0.5839999914169312,-2.327005233532511
520.448276,,0.004834991036017146,520.341,0.6370000243186951,-2.211154372573455
520.9137929999999,,0.023971841719596716,520.806,0.6370000243186951,-2.2108049416584183
521.37931,,0.04981660396386617,521.264,0.6579999923706055,-2.1647468029835153
521.844828,,0.06951858561997816,521.736,0.6269999742507935,-2.2320310186750065
522.310345,,0.08199119813503883,522.194,0.6230000257492065,-2.240553363659471
522.7758620000001,,0.0875363424787544,522.66,0.6140000224113464,-2.2600381771714324
523.241379,,0.08695264943506734,523.126,0.6290000081062317,-2.2273088477813623
523.7068969999999,,0.08115369461864866,523.598,0.5950000286102295,-2.301408729147179
524.172414,,0.07128086857702462,524.056,0.6330000162124634,-2.218721062945143
524.637931,,0.058940760697958304,524.524,0.6150000095367432,-2.2581093448233265
525.103448,,0.04614492546140962,524.986,0.6190000176429749,-2.2496334010192514
525.568966,,0.03456905496084688,525.45,0.6240000128746033,-2.2390374665759123
526.034483,,0.02450125739035854,525.92,0.625,-2.237205027309558
526.5,,0.014834975613994262,526.385,0.6359999775886536,-2.21362359129786
526.9655170000001,,0.004629955345661836,526.847,0.6190000176429749,-2.251069264562216
527.4310340000001,,0.005461487859257927,527.312,0.640999972820282,-2.2035597653125105
527.8965519999999,,0.013740514690814574,527.779,0.6340000033378601,-2.2192289899763304
528.362069,,0.01922263644456762,528.245,0.671999990940094,-2.1368428146759495
528.827586,,0.02242037596802416,528.705,0.621999979019165,-2.2461481935163397
529.293103,,0.024615070562748403,529.171,0.6259999871253967,-2.23776599921111
529.7586210000001,,0.026830519523562604,529.635,0.6290000081062317,-2.2315119967870367
530.224138,,0.029233419246944694,530.101,0.6430000066757202,-2.2012329255810763
530.689655,,0.030867915427834437,530.568,0.6140000224113464,-2.26456852808414
531.155172,,0.030127970562771618,531.031,0.6690000295639038,-2.144825150274504
531.62069,,0.02629299626845625,531.494,0.6449999809265137,-2.197118923869131
532.086207,,0.020709437035945032,531.964,0.6959999799728394,-2.0859362984722662
532.5517239999999,,0.015776506265548586,532.428,0.6290000081062317,-2.2317587009803295
533.017241,,0.012613872156462558,532.89,0.6869999766349792,-2.105179803896801
533.482759,,0.010394208322106295,533.356,0.6800000071525574,-2.120148998497314
533.9482760000001,,0.008179486867559496,533.82,0.6970000267028809,-2.082774732699363
534.413793,,0.006620816971879334,534.286,0.6600000262260437,-2.163002955505564
534.87931,,0.0072010374280599525,534.75,0.6499999761581421,-2.184377013488987
535.344828,,0.010191398119236656,535.216,0.6480000019073486,-2.188305717856051
535.810345,,0.014006524247040618,535.683,0.5820000171661377,-2.33166765341017
536.275862,,0.016466966626111006,536.149,0.6449999809265137,-2.193999045132332
536.7413789999999,,0.016307502193534284,536.614,0.640999972820282,-2.202327452341976
537.206897,,0.013761397132565176,537.079,0.7099999785423279,-2.051652262885226
537.672414,,0.010265684277340524,537.542,0.6499999761581421,-2.182070622900689
538.137931,,0.007390928680034911,538.005,0.6460000276565552,-2.190543133574182
538.6034480000001,,0.005434698151506829,538.476,0.7020000219345093,-2.0683635893119354
539.0689659999999,,0.003215008883339625,538.938,0.6909999847412109,-2.0922243381930965
539.5344829999999,,0.00021509259865085402,539.406,0.6190000176429749,-2.249057487551029
540.0,,0.004051771162905741,539.868,0.6859999895095825,-2.1031362272911935
540.465517,,0.00682763598529193,540.333,0.6949999928474426,-2.083651497816157
540.931034,,0.008724694859250133,540.799,0.6830000281333923,-2.10998805953944
541.396552,,0.011390386825950604,541.264,0.7269999980926514,-2.014383519099366
541.862069,,0.014868441176302498,541.724,0.6959999799728394,-2.082231852716601
542.327586,,0.01598772874117328,542.189,0.7049999833106995,-2.062978790349343
542.7931030000001,,0.011404996960856464,542.661,0.6880000233650208,-2.1004045609189714
543.258621,,0.0020161933152960617,543.119,0.6729999780654907,-2.133495773920827
543.7241379999999,,0.007336458736267516,543.587,0.6710000038146973,-2.138274898121845
544.189655,,0.013077710657704345,544.05,0.6970000267028809,-2.082048875973668
544.655172,,0.016477559116235045,544.52,0.671999990940094,-2.136917345643262
545.12069,,0.021119050930869455,544.983,0.7080000042915344,-2.0588583198040817
545.5862070000001,,0.027672290758308776,545.446,0.6660000085830688,-2.1506921756878596
546.051724,,0.032260459437533785,545.909,0.6779999732971191,-2.124827350224775
546.517241,,0.029868024611893088,546.374,0.6679999828338623,-2.1468325190226967
546.982759,,0.01888666277644183,546.845,0.7070000171661377,-2.0620159019008297
547.448276,,0.0027221506364699796,547.311,0.7080000042915344,-2.0599138256825005
547.9137929999999,,0.01220364386654396,547.769,0.6830000281333923,-2.114379359036037
548.3793099999999,,0.020166715536640643,548.234,0.7649999856948853,-1.9356515806602617
548.844828,,0.019429282062143144,548.702,0.6060000061988831,-2.281902861564339
549.310345,,0.0134528388423906,549.167,0.7289999723434448,-2.0137067919965768
549.775862,,0.009035181077716952,549.631,0.7099999785423279,-2.0548161113968426
550.241379,,0.012092199319177538,550.097,0.7429999709129333,-1.9825797398587826
550.706897,,0.02381811182443402,550.565,0.7239999771118164,-2.0235874429518925
551.172414,,0.0400497362900415,551.027,0.6589999794960022,-2.164781057281075
551.637931,,0.05436655024884724,551.491,0.6830000281333923,-2.1120586311472063
552.103448,,0.06240962187489936,551.96,0.6740000247955322,-2.131230054509351
552.568966,,0.063712854014777,552.42,0.7149999737739563,-2.0414805712959616
553.034483,,0.059913753904159525,552.89,0.6710000038146973,-2.136940660450872
553.5,,0.05219394972127347,553.356,0.4959999918937683,-2.5178454790734097
553.965517,,0.041032751580469935,553.82,0.6759999990463257,-2.1253868049598963
554.4310340000001,,0.027645489732610832,554.285,0.7059999704360962,-2.059788021049714
554.896552,,0.014363191149684014,554.75,0.7229999899864197,-2.022576523543458
555.3620689999999,,0.0033200639983672906,555.215,0.6700000166893005,-2.1379404986317616
555.827586,,0.004596582912871657,555.679,0.6949999928474426,-2.0834443052263087
556.293103,,0.009329125730153721,556.145,0.6959999799728394,-2.0813108612249076
556.758621,,0.011042885964658411,556.609,0.671999990940094,-2.133717166789057
557.224138,,0.010586819880238057,557.075,0.7490000128746033,-1.9661490210945545
557.689655,,0.009837470126317319,557.535,0.6660000085830688,-2.1472270733543204
558.155172,,0.010448190017030283,558.005,0.6700000166893005,-2.1388185600646747
558.6206900000001,,0.01225040717614603,558.468,0.6690000295639038,-2.1413509984742998
559.0862070000001,,0.013537351541621565,558.931,0.7239999771118164,-2.021914701943894
559.5517239999999,,0.013019326107574976,559.402,0.7300000190734863,-2.009253065466538
560.017241,,0.01130662013576486,559.864,0.671999990940094,-2.1360331437963276
560.482759,,0.010475926302319572,560.33,0.6600000262260437,-2.1625924520848123
560.948276,,0.012025492584269973,560.794,0.6620000004768372,-2.15863656558263
561.413793,,0.015099762271063098,561.26,0.6190000176429749,-2.2526939522378084
561.87931,,0.017108783732935236,561.72,0.7350000143051147,-2.0003078836203807
562.344828,,0.016451156162139807,562.185,0.7409999966621399,-1.9875206744855731
562.8103450000001,,0.014213654159856575,562.65,0.6190000176429749,-2.253538807479296
563.275862,,0.012719744501566713,563.116,0.6740000247955322,-2.1338708088884952
563.7413789999999,,0.012883511220416876,563.583,0.6290000081062317,-2.231998623187758
564.206897,,0.013835770208430097,564.045,0.7070000171661377,-2.062079676996167
564.672414,,0.014947275983103426,564.509,0.6629999876022339,-2.1578812785973733
565.137931,,0.016949898702858582,564.979,0.675000011920929,-2.1316053179416983
565.603448,,0.020376646363331044,565.442,0.6600000262260437,-2.1640844596761433
566.068966,,0.02376627881037564,565.905,0.6579999923706055,-2.1681793095750215
566.534483,,0.024648462054399082,566.37,0.6399999856948853,-2.207079264135448
567.0,,0.022316403757449508,566.84,0.675000011920929,-2.1304672476128492
567.465517,,0.018727192781400344,567.299,0.6610000133514404,-2.160575913146063
567.931034,,0.016403222576402816,567.764,0.6370000243186951,-2.212450237819833
568.396552,,0.016110230550414766,568.23,0.6919999718666077,-2.092203436419268
568.862069,,0.01682084742865038,568.695,0.7020000219345093,-2.069998824641715
569.327586,,0.01709583933626639,569.16,0.6439999938011169,-2.195958338534831
569.793103,,0.015877364126841334,569.628,0.652999997138977,-2.175978412666926
570.2586210000001,,0.01262703602738446,570.093,0.6349999904632568,-2.2148648450204136
570.724138,,0.007694071931809579,570.554,0.6949999928474426,-2.083869065271525
571.189655,,0.0024853255684752764,571.024,0.6700000166893005,-2.1381180700424816
571.655172,,0.001466575435402187,571.487,0.6740000247955322,-2.129252495889665
572.12069,,0.0038109844129627945,571.949,0.6299999952316284,-2.2250343464579814
572.586207,,0.00541602625235009,572.417,0.6570000052452087,-2.166207858239403
573.051724,,0.0070975505914246595,572.879,0.6439999938011169,-2.194603510345935
573.517241,,0.008741452748732541,573.345,0.6460000276565552,-2.1903932271141153
573.982759,,0.009718777851348897,573.812,0.6489999890327454,-2.1840739763767605
574.4482760000001,,0.009592148565632272,574.278,0.6949999928474426,-2.084134549531123
574.913793,,0.008103255705529727,574.742,0.6499999761581421,-2.1825045399732046
575.37931,,0.0049393292463154855,575.208,0.6470000147819519,-2.189414097909649
575.844828,,0.00011669463754775186,575.673,0.6980000138282776,-2.0787080854761264
576.310345,,0.005409818080217218,576.138,0.6349999904632568,-2.216386327572057
576.775862,,0.00996228079715249,576.606,0.675000011920929,-2.129669351256693
577.241379,,0.012328963704581123,577.065,0.6449999809265137,-2.19545064314115
577.706897,,0.012933520306059338,577.535,0.6449999809265137,-2.195852389467179
578.172414,,0.013795762319000263,577.998,0.621999979019165,-2.2463315655116287
578.6379310000001,,0.016855351804236775,578.461,0.6140000224113464,-2.264088824492791
579.1034480000001,,0.021804674392877994,578.931,0.6140000224113464,-2.264365266036611
579.5689659999999,,0.025797340357833234,579.389,0.6060000061988831,-2.2820106481313522
580.034483,,0.025893822703891286,579.86,0.6209999918937683,-2.2494797165483225
580.5,,0.02176105988561837,580.319,0.7490000128746033,-1.9706860570283706
580.965517,,0.01571762410049385,580.784,0.621999979019165,-2.2473673254627577
581.431034,,0.010577109560003357,581.249,0.640999972820282,-2.2058868215321357
581.896552,,0.007768214611479772,581.716,0.628000020980835,-2.2340482810208213
582.362069,,0.006620922620684854,582.182,0.652999997138977,-2.179350846152519
582.827586,,0.0042982117012325205,582.647,0.628000020980835,-2.2335220222780854
583.2931030000001,,0.0032287693570486305,583.112,0.6520000100135803,-2.180884608893164
583.758621,,0.018515998397778035,583.575,0.6129999756813049,-2.2654582205420932
584.2241379999999,,0.03997581254621818,584.045,0.6460000276565552,-2.1931373995981325
584.689655,,0.062282517352253174,584.505,0.640999972820282,-2.203586628422413
585.155172,,0.07993052784050508,584.975,0.6579999923706055,-2.166099511514365
585.6206900000001,,0.09018312731797473,585.436,0.6190000176429749,-2.2506249918754633
586.0862070000001,,0.09290578731369835,585.905,0.6650000214576721,-2.149987655245498
586.551724,,0.08902423076846036,586.37,0.6190000176429749,-2.2498214213356835
587.017241,,0.07987415342678525,586.834,0.6340000033378601,-2.216805677586732
587.482759,,0.06703845143941198,587.299,0.6449999809265137,-2.192563402181349
587.948276,,0.05181327260082077,587.764,0.6320000290870667,-2.220675858854277
588.4137929999999,,0.035032778148522105,588.23,0.6290000081062317,-2.2270764620063743
588.87931,,0.017852021108843322,588.695,0.6240000128746033,-2.237913799349678
589.344828,,0.0024628789790396774,589.161,0.6200000047683716,-2.246654408592569
589.810345,,0.008676099238326141,589.621,0.6129999756813049,-2.2620127950064974
590.2758620000001,,0.014893322369679461,590.086,0.6439999938011169,-2.1946608824232587
590.741379,,0.01839851860552724,590.55,0.6669999957084656,-2.144809670462706
591.2068969999999,,0.02251475774855885,591.019,0.640999972820282,-2.201775067820634
591.672414,,0.02842313005499548,591.48,0.6100000143051147,-2.269687718457779
592.137931,,0.033972168960464004,591.949,0.597000002861023,-2.2984294040110558
592.603448,,0.035931710289932375,592.413,0.6330000162124634,-2.2204493179018745
593.068966,,0.03331470766681621,592.875,0.6119999885559082,-2.2666697064509065
593.534483,,0.028432705771740157,593.341,0.6740000247955322,-2.1320637683807315
594.0,,0.02469696508586866,593.806,0.6499999761581421,-2.1848073335013285
594.4655170000001,,0.02341143669387429,594.271,0.6620000004768372,-2.1590900681540535
594.9310340000001,,0.022893200715095624,594.738,0.6259999871253967,-2.2379060444170027
595.3965519999999,,0.020748075954797676,595.204,0.6570000052452087,-2.1706989137076533
595.862069,,0.016641170160701286,595.668,0.6579999923706055,-2.168786853744772
596.327586,,0.01252944246177981,596.134,0.6190000176429749,-2.2539478912417885
596.793103,,0.01028548362653295,596.599,0.6340000033378601,-2.221384159357995
597.2586210000001,,0.009532365131229533,597.064,0.6330000162124634,-2.2235973699357934
597.724138,,0.00829284841385406,597.528,0.6700000166893005,-2.1429383413749106
598.189655,,0.005704291975473146,597.99,0.6169999837875366,-2.2582751738809765
598.655172,,0.0032978510041522893,598.458,0.6449999809265137,-2.197063388557874
599.12069,,0.003056239903849237,598.919,0.6439999938011169,-2.198960736542374
599.586207,,0.00479502593913144,599.386,0.640999972820282,-2.205151946121115
600.0517239999999,,0.006397466263970926,599.849,0.6290000081062317,-2.230898300510484
600.517241,,0.006510508725834287,600.315,0.6330000162124634,-2.2217464162380858
600.982759,,0.005986706902163584,600.779,0.6050000190734863,-2.2822854957966
601.448276,,0.0063838534410379085,601.245,0.6290000081062317,-2.2295238353308586
601.913793,,0.008004695744600259,601.709,0.621999979019165,-2.244303708456333
602.37931,,0.009983602686233745,602.175,0.6460000276565552,-2.1915625327406967
602.844828,,0.011461627637094131,602.64,0.625,-2.236891610875593
603.310345,,0.011900530059470938,603.105,0.6140000224113464,-2.260478574347706
603.775862,,0.010845243357999036,603.575,0.6060000061988831,-2.2775868251139357
604.2413789999999,,0.008275263721031292,604.038,0.6660000085830688,-2.146613354534458
604.706897,,0.005131879716040138,604.506,0.6710000038146973,-2.1355377745998854
605.172414,,0.0029642436382688333,604.968,0.628000020980835,-2.2291146940427784
605.637931,,0.0026941221112347165,605.431,0.6050000190734863,-2.279201403957099
606.1034480000001,,0.0035601667482765857,605.894,0.6679999828338623,-2.1420084453603714
606.5689659999999,,0.00354899406503644,606.359,0.6129999756813049,-2.261977501704273
607.0344829999999,,0.0014315828157132108,606.826,0.6430000066757202,-2.1968388488176167
607.5,,0.0016846196226143382,607.292,0.6190000176429749,-2.249418592177605
607.965517,,0.003442519604260446,607.76,0.6029999852180481,-2.284632327251531
608.431034,,0.0028491626739045343,608.219,0.6349999904632568,-2.2153235296870997
608.896552,,0.001100129271879109,608.69,0.6209999918937683,-2.2462721716068836
609.362069,,0.0002887953039159609,609.149,0.628000020980835,-2.231494702852558
609.827586,,0.0012550550096626836,609.614,0.6119999885559082,-2.266837576179472
610.293103,,0.0024659722280277133,610.079,0.5929999947547913,-2.3087134061648507
610.758621,,0.0035361866801107388,610.55,0.6169999837875366,-2.2568900231508975
611.2241379999999,,0.003163787932219662,611.012,0.6209999918937683,-2.2486070981036286
611.689655,,0.0010637325396311245,611.48,0.6039999723434448,-2.286029506626368
612.155172,,0.0013371988171497883,611.942,0.6200000047683716,-2.2514980672676996
612.62069,,0.002644772441322804,612.405,0.5669999718666077,-2.3672255118758643
613.0862070000001,,0.003177912261332841,612.875,0.628000020980835,-2.2345108409238374
613.551724,,0.004133787796609667,613.341,0.6169999837875366,-2.2585759738175044
614.017241,,0.00544882386457375,613.805,0.6159999966621399,-2.2607670974621383
614.4827590000001,,0.005554190798291937,614.271,0.6060000061988831,-2.2824782449451066
614.948276,,0.003587579261565651,614.735,0.6179999709129333,-2.2561734370316278
615.4137929999999,,0.0008920980728964774,615.201,0.6169999837875366,-2.2581095223821404
615.8793099999999,,0.0005846566215413995,615.666,0.593999981880188,-2.3079018614411764
616.344828,,0.0007838585522810997,616.124,0.6079999804496765,-2.277020212231807
616.810345,,0.001251360797243317,616.598,0.6119999885559082,-2.267872404574968
617.275862,,0.0025531577993289345,617.057,0.6050000190734863,-2.2826499683620054
617.741379,,0.0032557054966972816,617.52,0.6340000033378601,-2.2189706744630975
618.206897,,0.001892264903695603,617.99,0.6259999871253967,-2.235890385119255
618.672414,,0.000997930695501564,618.454,0.5879999995231628,-2.318174783076065
619.137931,,0.0036230924981444142,618.916,0.5950000286102295,-2.302442397631479
619.603448,,0.005359709136738473,619.382,0.6169999837875366,-2.2540680572041802
620.068966,,0.007445189740058554,619.845,0.6060000061988831,-2.2776398686685413
620.534483,,0.010969926951842717,620.31,0.6050000190734863,-2.279488582842291
621.0,,0.014942061989136828,620.776,0.5839999914169312,-2.324984949329882
621.465517,,0.0171486197174021,621.241,0.6150000095367432,-2.257274542123557
621.9310340000001,,0.016740820771005933,621.705,0.5929999947547913,-2.305121062650923
622.396552,,0.015112747085184725,622.171,0.5899999737739563,-2.311664984431597
622.862069,,0.01394895088561937,622.635,0.5950000286102295,-2.300871819790829
623.327586,,0.013170991274786223,623.101,0.5889999866485596,-2.3141334831916134
623.793103,,0.0115926536281476,623.564,0.5860000252723694,-2.3209430848784804
624.258621,,0.009164932984786768,624.035,0.593999981880188,-2.3038635909080085
624.724138,,0.007352875661667433,624.495,0.6100000143051147,-2.2694193720343807
625.189655,,0.006992846009015066,624.965,0.593999981880188,-2.304743500563112
625.655172,,0.006809290761395614,625.428,0.6190000176429749,-2.250779724376279
626.1206900000001,,0.004891433007607907,625.89,0.578000009059906,-2.3406282985732294
626.5862070000001,,0.001210994002092081,626.356,0.5929999947547913,-2.3084784121994906
627.0517239999999,,0.0021964441962398643,626.819,0.5950000286102295,-2.3046403549851173
627.5172409999999,,0.0035630702193228,627.285,0.6169999837875366,-2.2572019072886125
627.982759,,0.003119431665652117,627.749,0.578000009059906,-2.3426177052953236
628.448276,,0.002289441174072433,628.215,0.5920000076293945,-2.312508537328165
628.913793,,0.0020898449152955047,628.68,0.574999988079071,-2.3498689552807024
629.37931,,0.002918490378449331,629.146,0.593999981880188,-2.3087189930052765
629.844828,,0.004973885146639716,629.613,0.5789999961853027,-2.3415559557890364
630.3103450000001,,0.007835720513774144,630.079,0.6050000190734863,-2.284975555043886
630.7758620000001,,0.010172411208947296,630.539,0.5910000205039978,-2.3154455421617604
631.2413789999999,,0.010875768524590613,631.009,0.621999979019165,-2.2477807504857066
631.706897,,0.010253367656577373,631.472,0.5899999737739563,-2.317278356343905
632.172414,,0.00935395166023497,631.934,0.6010000109672546,-2.2930084047987944
632.637931,,0.008350724712732427,632.402,0.5929999947547913,-2.310056883291712
633.103448,,0.0064529213404341205,632.864,0.6050000190734863,-2.2834677521352895
633.568966,,0.0035592913885087456,633.33,0.6980000138282776,-2.080355223760825
634.034483,,0.00119823351786478,633.795,0.550000011920929,-2.4022588274924725
634.5,,0.0011451509208563,634.261,0.5889999866485596,-2.3167366440852257
634.9655170000001,,0.0033369616081005203,634.727,0.5820000171661377,-2.3314326926888405
635.431034,,0.005765555105038744,635.193,0.6209999918937683,-2.245927784134387
635.8965519999999,,0.006511049699745363,635.658,0.593999981880188,-2.304246677900062
636.362069,,0.005541747379780003,636.124,0.5860000252723694,-2.321220596235659
636.827586,,0.004428379748203098,636.587,0.5669999718666077,-2.3622250665834947
637.293103,,0.0044999417368312995,637.05,0.5770000219345093,-2.340126891082367
637.7586210000001,,0.005405013652925243,637.52,0.5910000205039978,-2.3094024220711495
638.224138,,0.005455193222684642,637.983,0.5770000219345093,-2.3397751525087025
638.689655,,0.0033797710019522376,638.446,0.5709999799728394,-2.352818477484884
639.155172,,0.00018688538006442164,638.909,0.5680000185966492,-2.359427053123905
639.62069,,0.002998212736550274,639.374,0.6069999933242798,-2.2746312793193053
640.086207,,0.0032394004046443245,639.844,0.6060000061988831,-2.277073560431961
640.551724,,0.0014167157193957908,640.309,0.5929999947547913,-2.305743279287923
641.017241,,7.648719371131157e-05,640.769,0.6110000014305115,-2.266947848589663
641.482759,,0.000543751694718966,641.235,0.6060000061988831,-2.278320993472873
641.9482760000001,,0.0026967480594209245,641.702,0.6209999918937683,-2.2461654920651632
642.413793,,0.004331225026012797,642.167,0.5809999704360962,-2.333863995198814
642.87931,,0.004227735563263762,642.632,0.5879999995231628,-2.319178046979212
643.344828,,0.0031681631502673106,643.098,0.5910000205039978,-2.3132017000397718
643.810345,,0.002889029767762023,643.561,0.628000020980835,-2.2331278598987985
644.275862,,0.003934734022110661,644.031,0.6050000190734863,-2.2837316918314317
644.7413789999999,,0.004756498844635412,644.494,0.550000011920929,-2.4039966895119287
645.206897,,0.003361119492884247,644.957,0.6010000109672546,-2.2932569379601913
645.672414,,0.0001825544929261587,645.42,0.6259999871253967,-2.2390810773274117
646.1379310000001,,0.0034672892529627104,645.89,0.6200000047683716,-2.2523511611194316
646.6034480000001,,0.004197524295210656,646.355,0.6010000109672546,-2.2938453523613282
647.0689659999999,,0.002520160419371819,646.819,0.5910000205039978,-2.315631065725912
647.534483,,0.0006690304475796023,647.285,0.5920000076293945,-2.3133516371192004
648.0,,0.0005440562454957919,647.744,0.6179999709129333,-2.2565086263312004
648.465517,,0.001933274465950696,648.21,0.6100000143051147,-2.273647298878955
648.931034,,0.0030544428629352247,648.679,0.5929999947547913,-2.3103108046826613
649.396552,,0.0025021173456168406,649.145,0.6230000257492065,-2.244506331633999
649.862069,,0.0004939622326495941,649.604,0.6190000176429749,-2.252717763439263
650.327586,,0.0015262250371520746,650.07,0.5899999737739563,-2.315353081285714
650.7931030000001,,0.0022249707900316505,650.534,0.6110000014305115,-2.2690312006508435
651.258621,,0.0014477664625254982,651.004,0.5960000157356262,-2.3011340517778764
651.7241379999999,,0.0001859200745634872,651.465,0.6190000176429749,-2.2504594358050363
652.189655,,0.0005212042925890429,651.934,0.5889999866485596,-2.3152822497863563
652.655172,,0.0006616175460350551,652.402,0.5960000157356262,-2.2995413346220213
653.12069,,0.0011941134387699363,652.864,0.6150000095367432,-2.2577185473344445
653.5862070000001,,0.0029915890259747144,653.33,0.5759999752044678,-2.3423327559230125
654.051724,,0.0058138789100005694,653.795,0.5630000233650208,-2.3703897282414332
654.517241,,0.008134576383818667,654.26,0.6449999809265137,-2.1915711464935326
654.982759,,0.008110519316245948,654.72,0.6209999918937683,-2.2437882152376676
655.448276,,0.005231974471861078,655.186,0.609000027179718,-2.2699623107972764
655.9137929999999,,0.0011593713960164984,655.651,0.5929999947547913,-2.3049524401092643
656.37931,,0.0015701880091605431,656.116,0.6460000276565552,-2.189712814882555
656.844828,,0.0020165605219543913,656.579,0.6159999966621399,-2.2553903117537892
657.310345,,0.0017101237575781018,657.049,0.6069999933242798,-2.275395784934917
657.7758620000001,,0.0027730799868859062,657.513,0.6039999723434448,-2.282397823833087
658.241379,,0.005554635576521071,657.975,0.6439999938011169,-2.1957714519091995
658.7068969999999,,0.008541269284547869,658.439,0.625,-2.237721889276175
659.172414,,0.010235145366623196,658.908,0.6290000081062317,-2.229582575200506
659.637931,,0.010488748106200669,659.374,0.5960000157356262,-2.3020555245716423
660.103448,,0.010033039868597588,659.837,0.5989999771118164,-2.2960826846524256
660.568966,,0.009268830934515523,660.303,0.6589999794960022,-2.165894148981036
661.034483,,0.007922545734085944,660.768,0.6100000143051147,-2.2731278328427886
661.5,,0.005841799166066372,661.234,0.6110000014305115,-2.2713644414235215
661.965517,,0.0037107339810479177,661.695,0.6060000061988831,-2.282596217284069
662.4310340000001,,0.002539039421823261,662.16,0.6060000061988831,-2.2828476254907764
662.8965519999999,,0.002479972170116106,662.628,0.5879999995231628,-2.3222200750781443
663.362069,,0.002544003058596575,663.093,0.6000000238418579,-2.29613369019673
663.827586,,0.0016085633296273878,663.554,0.6060000061988831,-2.283017715826094
664.293103,,0.0004101108645819774,664.023,0.6060000061988831,-2.2828726130449932
664.7586210000001,,0.002361484389871425,664.487,0.6000000238418579,-2.2957025266941504
665.224138,,0.002833097715560745,664.949,0.6039999723434448,-2.2866565409461796
665.689655,,0.0015138149169332713,665.42,0.6150000095367432,-2.2622799211144606
666.155172,,0.0003700116403522032,665.882,0.5989999771118164,-2.2966592931776417
666.62069,,0.0011710623489731306,666.348,0.6520000100135803,-2.180657961504167
667.086207,,0.0005167625421571978,666.813,0.6240000128746033,-2.2410886107178793
667.5517239999999,,0.00011972537546159183,667.278,0.6290000081062317,-2.2296026901476647
668.017241,,0.0012860321053319225,667.742,0.6499999761581421,-2.1832555375696567
668.482759,,0.005207720496067875,668.208,0.6169999837875366,-2.2545707109799356
668.948276,,0.009763365224168066,668.673,0.5929999947547913,-2.3063128361567133
669.413793,,0.012286932022769082,669.139,0.6150000095367432,-2.257890150649366
669.87931,,0.01184329533823694,669.599,0.6010000109672546,-2.287967369427932
670.3448279999999,,0.009975635802591218,670.065,0.6060000061988831,-2.2767322474115033
670.810345,,0.00881686798100435,670.535,0.5979999899864197,-2.293912735563757
671.275862,,0.008810562171056071,670.997,0.5910000205039978,-2.3090160110264946
671.7413789999999,,0.008705631380141073,671.465,0.6079999804496765,-2.2719383845255554
672.206897,,0.007468370486007413,671.928,0.5789999961853027,-2.335186628495427
672.672414,,0.005458763094753835,672.394,0.5879999995231628,-2.315753125376965
673.137931,,0.0037285619063898837,672.859,0.6430000066757202,-2.196202620364498
673.6034480000001,,0.0028514742875978237,673.324,0.6019999980926514,-2.2858935152008404
674.068966,,0.002601389759271748,673.784,0.6039999723434448,-2.281982827405667
674.5344829999999,,0.0022788194499483495,674.25,0.6330000162124634,-2.219315182050361
675.0,,0.0012030867967988688,674.716,0.6119999885559082,-2.2656303250312377
675.465517,,0.0007747258235525931,675.182,0.6309999823570251,-2.224832113668678
675.931034,,0.0031100029897748356,675.647,0.6330000162124634,-2.2210847353052228
676.396552,,0.0050647979818841315,676.113,0.597000002861023,-2.300121394854478
676.862069,,0.00637145812427164,676.575,0.6209999918937683,-2.248416485621213
677.327586,,0.00720008639733561,677.045,0.640999972820282,-2.2053849111904076
677.793103,,0.007508263716945008,677.505,0.5789999961853027,-2.3409443443386473
678.2586210000001,,0.006939889592304086,677.975,0.5889999866485596,-2.3195696764611737
678.7241379999999,,0.005660662317657994,678.435,0.6909999847412109,-2.0976738114189706
679.1896549999999,,0.004674309359721366,678.905,0.6039999723434448,-2.2874445627317646
679.655172,,0.004745577175699948,679.37,0.6150000095367432,-2.2636033912251357
680.12069,,0.005658352622540338,679.833,0.6420000195503235,-2.2047964334463868
680.5862070000001,,0.007249562430822447,680.299,0.6150000095367432,-2.2635277568004204
681.051724,,0.010363769326879314,680.76,0.6439999938011169,-2.2001486108613055
