Trial: ,34
Threshold: ,0.0
Maximum EMG: ,1.9454159271887874
Success: ,True

EMG Time,Raw EMG,Filtered EMG,Force Time,Raw Force (V),Filtered Force (N)
0.0,samples,5.964166248541256e-10,0.466,0.5450000166893005,-2.4116124917908968
0.46551699999999996,time,6.007114832543337e-10,0.931,0.5329999923706055,-2.4375328403481755
0.9310339999999999,value,6.030507782896135e-10,1.396,0.5370000004768372,-2.4286327438673116
1.396552,,6.033417162193571e-10,1.862,0.5419999957084656,-2.4175977263880135
1.862069,,6.014947964928272e-10,2.329,0.5379999876022339,-2.4262184470504673
2.327586,,5.97424272970748e-10,2.795,0.5389999747276306,-2.423996776084625
2.793103,,5.910486216845185e-10,3.258,0.5370000004768372,-2.4283632588353457
3.258621,,5.82291013748212e-10,3.721,0.550000011920929,-2.400101913433145
3.724138,,5.710797919603501e-10,4.192,0.5320000052452087,-2.4394286973783768
4.189654999999999,,5.573489495561055e-10,4.654,0.5239999890327454,-2.4570162278093037
4.655172,,5.410386094964461e-10,5.122,0.5540000200271606,-2.3918574980158955
5.12069,,5.220955026091288e-10,5.584,0.5320000052452087,-2.4400244874972503
5.586207,,5.004734428277778e-10,6.049,0.5680000185966492,-2.3618580167074277
6.051723999999999,,4.761337977098781e-10,6.514,0.5440000295639038,-2.4144302315876263
6.517241,,4.490459523527769e-10,6.98,0.5329999923706055,-2.4386916406184613
6.982759,,4.1918776476908814e-10,7.444,0.550000011920929,-2.401953846535143
7.448276,,3.865460107296066e-10,7.91,0.5260000228881836,-2.4545347299768796
7.913793000000001,,3.511168160333571e-10,8.377,0.5490000247955322,-2.4047043973954527
8.379309999999998,,3.1290607412109537e-10,8.835,0.550000011920929,-2.402780747154037
8.844828000000001,,2.71929846910828e-10,9.306,0.5419999957084656,-2.4204332269847555
9.310345,,2.282147467020974e-10,9.768,0.5329999923706055,-2.4402262531040337
9.775862,,1.817982969702602e-10,10.236,0.5450000166893005,-2.414224116998395
10.241379,,1.327292698531296e-10,10.699,0.5490000247955322,-2.4056030381769045
10.706897,,8.10679981205169e-11,11.166,0.5289999842643738,-2.449218584750735
11.172414,,2.688665941273137e-11,11.629,0.550000011920929,-2.403457239699869
11.637931,,2.9730469462676e-11,12.094,0.5210000276565552,-2.466576620738646
12.103447999999998,,8.868679037539878e-11,12.557,0.5640000104904175,-2.3727832474556334
12.568966000000001,,1.498731960379971e-10,13.022,0.49799999594688416,-2.5164160302750687
13.034483,,2.1316791864437946e-10,13.491,0.5440000295639038,-2.415998905297996
13.5,,2.7843641709579963e-10,13.957,0.5320000052452087,-2.4419081458306904
13.965517,,3.4553130488281655e-10,14.421,0.5669999718666077,-2.3653914029236316
14.431034,,4.1429232063609374e-10,14.887,0.5540000200271606,-2.393427222618399
14.896552,,4.845463432937641e-10,15.352,0.5370000004768372,-2.430164147549289
15.362069,,5.561074537581831e-10,15.81,0.5529999732971191,-2.3950016987645633
15.827586000000002,,6.287770448300775e-10,16.28,0.5540000200271606,-2.392523809875239
16.293103,,7.023439811132475e-10,16.743,0.5360000133514404,-2.4314544891686882
16.758621,,7.765848104780009e-10,17.207,0.593999981880188,-2.3048303112187827
17.224138,,8.512640285563212e-10,17.676,0.5270000100135803,-2.4505671218985237
17.689655,,9.261343976163704e-10,18.14,0.5540000200271606,-2.39154908481656
18.155172,,1.000937321028312e-09,18.602,0.5379999876022339,-2.426257873257516
18.62069,,1.0754032743876415e-09,19.068,0.5419999957084656,-2.4174432012862477
19.086207,,1.1492522942063218e-09,19.532,0.527999997138977,-2.4478975217126484
19.551724,,1.2221945249161502e-09,19.998,0.5460000038146973,-2.408690086551773
20.017241000000002,,1.2939308247531014e-09,20.463,0.5320000052452087,-2.439254245215776
20.482758999999998,,1.3641534309060854e-09,20.928,0.5630000233650208,-2.3718317941244
20.948276,,1.432546684118899e-09,21.395,0.5410000085830688,-2.419926584744735
21.413793000000002,,1.4987878127303883e-09,21.861,0.5429999828338623,-2.4157778909378584
21.87931,,1.5625477759253503e-09,22.325,0.5230000019073486,-2.45959790997096
22.344828,,1.6234921657478393e-09,22.791,0.5540000200271606,-2.3923380046135323
22.810344999999998,,1.6812821671997372e-09,23.254,0.5210000276565552,-2.464534216145969
23.275862,,1.7355755755111852e-09,23.717,0.5669999718666077,-2.3646304069822945
23.741379,,1.7860278694262474e-09,24.18,0.5329999923706055,-2.4390213897961326
24.206897,,1.8322933390975762e-09,24.65,0.5379999876022339,-2.4284386837385545
24.672414,,1.8740262669284866e-09,25.118,0.5519999861717224,-2.3982322968571914
25.137931,,1.9108821594403648e-09,25.58,0.5199999809265137,-2.4682187921846874
25.603448,,1.9425190279784666e-09,26.046,0.5540000200271606,-2.3943812420914847
26.068966,,1.968598715800645e-09,26.51,0.546999990940094,-2.409827392128118
26.534483,,1.9887882688221834e-09,26.975,0.5299999713897705,-2.4470127082044315
27.0,,2.002761347016543e-09,27.44,0.5379999876022339,-2.4296802860691824
27.465517,,2.0101996731973553e-09,27.905,0.5440000295639038,-2.416650401583556
27.931034,,2.0107945156323434e-09,28.369,0.5659999847412109,-2.3687053151280835
28.396552,,2.0042482006659758e-09,28.835,0.5170000195503235,-2.47538738160436
28.862069,,1.990275651255586e-09,29.295,0.5299999713897705,-2.44693980126842
29.327586,,1.9686059470564652e-09,29.765,0.5379999876022339,-2.429335690990721
29.793103000000002,,1.938983901426145e-09,30.228,0.5669999718666077,-2.3659344740708654
30.258620999999998,,1.901171650457827e-09,30.691,0.5320000052452087,-2.441927185209629
30.724138,,1.8549502488988708e-09,31.159,0.5260000228881836,-2.4547083339354274
31.189655000000002,,1.8001212675635203e-09,31.621,0.5289999842643738,-2.4478606600268717
31.655172000000004,,1.7365083866109408e-09,32.086,0.5419999957084656,-2.419214542800251
32.12069,,1.66395897883124e-09,32.556,0.531000018119812,-2.4428536902242675
32.586207,,1.5823456768648285e-09,33.015,0.5299999713897705,-2.444714374217234
33.051724,,1.4915679180753752e-09,33.483,0.531000018119812,-2.4422354269742788
33.517241000000006,,1.391553460605049e-09,33.949,0.5460000038146973,-2.409282335176289
33.982759,,1.2822598639639815e-09,34.414,0.5540000200271606,-2.391614250165948
34.448276,,1.1636759273451677e-09,34.879,0.515999972820282,-2.4742062599752983
34.913793,,1.0358230787126463e-09,35.344,0.5289999842643738,-2.445736330306699
35.37931,,8.987567075860107e-10,35.809,0.527999997138977,-2.447821703848567
35.844828,,7.525674343393328e-10,36.27,0.5529999732971191,-2.3933188284051092
36.310345,,5.97382308748696e-10,36.739,0.5389999747276306,-2.423840396914164
36.775862,,4.333659304609064e-10,37.207,0.5370000004768372,-2.4282749443791842
37.241378999999995,,2.607214840177886e-10,37.67,0.5249999761581421,-2.4545512995083048
37.706897000000005,,7.969168105690612e-11,38.132,0.5339999794960022,-2.435127607336734
38.172414,,1.0944039767829577e-10,38.595,0.5450000166893005,-2.4113923899385905
38.637931,,3.0635056784699826e-10,39.061,0.5339999794960022,-2.4356261844886054
39.103448,,5.106729217995013e-10,39.525,0.5419999957084656,-2.4184960477598816
39.568965999999996,,7.21999330811539e-10,39.99,0.5109999775886536,-2.4863552554892596
40.034483,,9.398790763050943e-10,40.455,0.527999997138977,-2.4496520912083577
40.5,,1.1638186169407243e-09,40.921,0.527999997138977,-2.4499886029355973
40.965517,,1.393281498279487e-09,41.385,0.5529999732971191,-2.3958503884213136
41.431034,,1.627688411493684e-09,41.851,0.5320000052452087,-2.441910695952426
41.896552,,1.8664174073542253e-09,42.318,0.5529999732971191,-2.396439018494638
42.362069000000005,,2.1088042714379433e-09,42.783,0.5460000038146973,-2.411931579492691
42.827586000000004,,2.354143066180254e-09,43.251,0.5440000295639038,-2.4164854792324864
43.293103,,2.6016868450468315e-09,43.713,0.5529999732971191,-2.3970228980101993
43.758621,,2.8506485437122517e-09,44.177,0.5410000085830688,-2.4232556156789284
44.224138,,3.1002020527137934e-09,44.64,0.531000018119812,-2.445072611744371
44.689655,,3.34948347559473e-09,45.105,0.5540000200271606,-2.3949348718232852
45.155172,,3.5975925760636846e-09,45.576,0.5149999856948853,-2.4798149920269306
45.620689999999996,,3.843594417175268e-09,46.035,0.5210000276565552,-2.4666007637293847
46.086206999999995,,4.086521194982572e-09,46.506,0.5419999957084656,-2.420656353007583
46.551724,,4.325374268524825e-09,46.972,0.5540000200271606,-2.394273714063451
47.017241,,4.559126387394181e-09,47.436,0.5249999761581421,-2.457176790823754
47.482759,,4.786724117475147e-09,47.902,0.5519999861717224,-2.398045113618689
47.948276,,5.007090464769448e-09,48.367,0.5389999747276306,-2.426038314011
48.413793,,5.2191276965093835e-09,48.825,0.5360000133514404,-2.432233851606546
48.879310000000004,,5.421720358025108e-09,49.295,0.5529999732971191,-2.3948559594586367
49.344828,,5.613738483067267e-09,49.758,0.5299999713897705,-2.444633643231775
49.810345,,5.794040994497709e-09,50.221,0.5419999957084656,-2.4181787443903398
50.275862,,5.961479291449078e-09,50.691,0.5690000057220459,-2.3590734090723915
50.741379,,6.1149010182211556e-09,51.152,0.5440000295639038,-2.4132950457080034
51.206897,,6.253154009329649e-09,51.621,0.5419999957084656,-2.4174532350219464
51.672414,,6.3750904042541195e-09,52.086,0.5220000147819519,-2.4608795686829272
52.137931,,6.479570924548248e-09,52.549,0.5659999847412109,-2.3649296885821505
52.603448,,6.565469305080046e-09,53.015,0.5270000100135803,-2.449867205050719
53.068966,,6.63167687026474e-09,53.481,0.5410000085830688,-2.419397497042242
53.534483,,6.677107245241656e-09,53.946,0.5199999809265137,-2.4652415360448536
54.0,,6.700701191031505e-09,54.411,0.5669999718666077,-2.3629953414434866
54.465517,,6.70143155179509e-09,54.877,0.5419999957084656,-2.4176644205773417
54.931034,,6.678308301401852e-09,55.336,0.5460000038146973,-2.409199212190558
55.396552,,6.630383675610303e-09,55.802,0.5630000233650208,-2.3724505363644632
55.862069,,6.556757375265653e-09,56.27,0.5540000200271606,-2.392376531834556
56.327586,,6.456581825036548e-09,56.733,0.5460000038146973,-2.4101441884459343
56.793102999999995,,6.329067471346379e-09,57.195,0.550000011920929,-2.401778417934582
57.258621000000005,,6.173488102309068e-09,57.665,0.5460000038146973,-2.4108417668538253
57.724138,,5.989186171658419e-09,58.129,0.5220000147819519,-2.4634678432864976
58.189655,,5.775578107868017e-09,58.591,0.5440000295639038,-2.4158560268537372
58.655172,,5.532159588899402e-09,59.057,0.5299999713897705,-2.4466457944461295
59.120689999999996,,5.258510762293879e-09,59.522,0.5370000004768372,-2.4316448121075704
59.586207,,4.954301389642131e-09,59.987,0.5490000247955322,-2.405703619996578
60.051724,,4.619295893829837e-09,60.452,0.5419999957084656,-2.4211030278477517
60.517241,,4.253358286871088e-09,60.917,0.531000018119812,-2.445158505382468
60.982758999999994,,3.856456955608772e-09,61.384,0.5490000247955322,-2.405971938591951
61.448276,,3.42866928208641e-09,61.849,0.527999997138977,-2.4516902544920502
61.913793,,2.970186074983435e-09,62.314,0.5460000038146973,-2.4123794913435734
62.379310000000004,,2.4813157881597307e-09,62.78,0.5630000233650208,-2.3751876696335277
62.84482800000001,,1.9624885020795245e-09,63.24,0.5540000200271606,-2.394584748284848
63.310345000000005,,1.4142596436834236e-09,63.71,0.5410000085830688,-2.4226468973126067
63.775862000000004,,8.373134201544809e-10,64.173,0.527999997138977,-2.4506681948284124
64.241379,,2.324659419834865e-10,64.636,0.5329999923706055,-2.439442657086753
64.706897,,3.9933198921612325e-10,65.101,0.5419999957084656,-2.4194813145624003
65.172414,,1.0569924525586874e-09,65.572,0.5320000052452087,-2.440903593471551
65.637931,,1.7392883635895226e-09,66.03,0.5649999976158142,-2.3686439791186773
66.103448,,2.4448518377048362e-09,66.498,0.5260000228881836,-2.453257857809986
66.56896599999999,,3.172172984729728e-09,66.964,0.5419999957084656,-2.418068384176499
67.03448300000001,,3.919599157571313e-09,67.429,0.5189999938011169,-2.467879221045963
67.5,,4.685334677235302e-09,67.895,0.531000018119812,-2.441479915351441
67.965517,,5.467441055759124e-09,68.362,0.5270000100135803,-2.4499897236624735
68.431034,,6.263837737770822e-09,68.82,0.5339999794960022,-2.4345913049169483
68.896552,,7.072303380428877e-09,69.288,0.5519999861717224,-2.3952886879232893
69.362069,,7.890477690432374e-09,69.75,0.5419999957084656,-2.4170514828557446
69.827586,,8.715863835612575e-09,70.218,0.5669999718666077,-2.3626253639031702
70.293103,,9.545831447325345e-09,70.68,0.5339999794960022,-2.434623451809007
70.75862099999999,,1.0377620228458577e-08,71.148,0.5189999938011169,-2.467466634181603
71.22413800000001,,1.1208344180350085e-08,71.61,0.5339999794960022,-2.435007356931782
71.689655,,1.2034996460279658e-08,72.075,0.5230000019073486,-2.4592432404574542
72.15517200000001,,1.2854454879455236e-08,72.542,0.5540000200271606,-2.392017670368081
72.62069,,1.3663488049558777e-08,73.008,0.5540000200271606,-2.392361693859129
73.086207,,1.4458762183954095e-08,73.473,0.5669999718666077,-2.364403587029839
73.551724,,1.5236848557589167e-08,73.939,0.5460000038146973,-2.4105284770847284
74.017241,,1.5994231627451843e-08,74.404,0.5289999842643738,-2.447937549655682
74.482759,,1.672731781316383e-08,74.869,0.5370000004768372,-2.4308685840717112
74.94827599999999,,1.743244493492707e-08,75.336,0.5210000276565552,-2.466064793369626
75.41379300000001,,1.8105892303573384e-08,75.802,0.5419999957084656,-2.4206184285813337
75.87931,,1.8743891454917233e-08,76.262,0.5429999828338623,-2.4187023983414835
76.344828,,1.9342637517978332e-08,76.732,0.5299999713897705,-2.4472364865509424
76.810345,,1.9898301203930978e-08,77.192,0.5419999957084656,-2.421246884793124
77.275862,,2.0407041399856886e-08,77.662,0.5419999957084656,-2.4213385960961618
77.741379,,2.0865018348535063e-08,78.122,0.5419999957084656,-2.4213644900976616
78.206897,,2.1268407392602977e-08,78.591,0.5429999828338623,-2.419144861170148
78.67241399999999,,2.1613413258476093e-08,79.057,0.5419999957084656,-2.4212165276285122
79.137931,,2.1896284852426156e-08,79.515,0.5419999957084656,-2.4210466372054698
79.603448,,2.2113330538201072e-08,79.98,0.5630000233650208,-2.3750666719602687
80.068966,,2.226093386253071e-08,80.448,0.531000018119812,-2.4445033648424492
80.53448300000001,,2.2335569691813115e-08,80.913,0.5329999923706055,-2.4398233420224638
81.0,,2.2333820720224845e-08,81.378,0.5419999957084656,-2.419860083537833
81.465517,,2.225239430645838e-08,81.843,0.5139999985694885,-2.4804850927468856
81.931034,,2.2088139593269887e-08,82.306,0.5389999747276306,-2.425631815558104
82.396552,,2.1838064861034035e-08,82.776,0.550000011920929,-2.401280671349725
82.86206899999999,,2.149935506356069e-08,83.236,0.5120000243186951,-2.483696129208659
83.327586,,2.106938949154404e-08,83.706,0.5440000295639038,-2.413630887356695
83.79310299999999,,2.054575950620045e-08,84.167,0.550000011920929,-2.400245360830516
84.258621,,1.9926286282920348e-08,84.636,0.5299999713897705,-2.4435487339418045
84.72413800000001,,1.920903850212491e-08,85.102,0.550000011920929,-2.3997585365077843
85.189655,,1.8392349921993946e-08,85.565,0.5379999876022339,-2.42574446668951
85.65517200000001,,1.7474836765330773e-08,86.03,0.5239999890327454,-2.456152206626971
86.12069,,1.6455414850567136e-08,86.495,0.5210000276565552,-2.462663170873013
86.586207,,1.533331639480003e-08,86.961,0.5320000052452087,-2.438742778214558
87.051724,,1.4108106414807164e-08,87.426,0.5329999923706055,-2.436676927949938
87.517241,,1.2779698650222419e-08,87.891,0.5360000133514404,-2.430318233313341
87.98275899999999,,1.1348370931481373e-08,88.351,0.5339999794960022,-2.4349121166016356
88.448276,,9.814779913783658e-09,88.817,0.5540000200271606,-2.3916273716659804
88.913793,,8.17997509717734e-09,89.285,0.5339999794960022,-2.4355316256166004
89.37931,,6.445412051964447e-09,89.747,0.546999990940094,-2.4075733866802858
89.844828,,4.612964767969556e-09,90.21,0.5299999713897705,-2.444996984895871
90.310345,,2.6849370458181515e-09,90.68,0.5230000019073486,-2.4606451352760144
90.775862,,6.640728482507874e-10,91.143,0.5339999794960022,-2.4370771964170466
91.241379,,1.4464344703344982e-09,91.606,0.5460000038146973,-2.411317397725857
91.706897,,3.64293413745393e-09,92.072,0.5419999957084656,-2.4203906394980637
92.17241399999999,,5.921311219791182e-09,92.536,0.5329999923706055,-2.440320810313387
92.63793100000001,,8.276981243603518e-09,93.001,0.5669999718666077,-2.3665226683839915
93.103448,,1.0704886256326072e-08,93.466,0.5460000038146973,-2.4124944735863543
93.568966,,1.3199492405653297e-08,93.932,0.5389999747276306,-2.4279031526318713
94.03448300000001,,1.575478911026234e-08,94.396,0.5120000243186951,-2.4868187234906656
94.5,,1.8364289893873165e-08,94.862,0.5249999761581421,-2.458520580062368
94.965517,,2.102103495150827e-08,95.329,0.5419999957084656,-2.42143851965256
95.431034,,2.3717595513614843e-08,95.795,0.5379999876022339,-2.4300393291911515
95.896552,,2.644608007014017e-08,96.255,0.5669999718666077,-2.3666784350313326
96.36206899999999,,2.9198142512703335e-08,96.726,0.531000018119812,-2.4448682519172062
96.827586,,3.1964992248681024e-08,97.188,0.5199999809265137,-2.468538854730164
97.293103,,3.473740633632107e-08,97.651,0.5289999842643738,-2.448592946784913
97.758621,,3.750574368491532e-08,98.121,0.515999972820282,-2.4765441539618087
98.224138,,4.02599613586046e-08,98.584,0.574999988079071,-2.347609702308539
98.689655,,4.29896330165568e-08,99.05,0.5649999976158142,-2.3689892789880793
99.155172,,4.5683969516058616e-08,99.51,0.5299999713897705,-2.4448346240655314
99.62069,,4.833184169849873e-08,99.975,0.5299999713897705,-2.4444405581651507
100.086207,,5.092180537130264e-08,100.44,0.5299999713897705,-2.444072566082496
100.551724,,5.344212849161679e-08,100.906,0.5379999876022339,-2.4263125464068
101.017241,,5.5880820549942505e-08,101.373,0.5339999794960022,-2.434743514457824
101.482759,,5.822566414400158e-08,101.838,0.527999997138977,-2.4475877372809816
101.948276,,6.046424872488892e-08,102.307,0.5130000114440918,-2.480103471235835
102.413793,,6.258400648905075e-08,102.769,0.5339999794960022,-2.4342570031428603
102.87931,,6.457225038083529e-08,103.236,0.5429999828338623,-2.4146256585855133
103.344828,,6.641621416131884e-08,103.699,0.5419999957084656,-2.4168523251653506
103.810345,,6.810309448983151e-08,104.162,0.5400000214576721,-2.4213277392521615
104.275862,,6.96200949551198e-08,104.625,0.5509999990463257,-2.397547395699003
104.741379,,7.095447198341105e-08,105.09,0.5460000038146973,-2.408686231143961
105.206897,,7.209358254081357e-08,105.561,0.5260000228881836,-2.452558697896502
105.672414,,7.30249335375253e-08,106.026,0.5199999809265137,-2.465976162578042
106.13793100000001,,7.373623283126208e-08,106.492,0.5339999794960022,-2.435856490725118
106.603448,,7.421544171718637e-08,106.95,0.5529999732971191,-2.3948672581284205
107.068966,,7.445082878145057e-08,107.415,0.5429999828338623,-2.4170694632265066
107.534483,,7.443102498530224e-08,107.88,0.5460000038146973,-2.4109472291323404
108.0,,7.414507983656636e-08,108.347,0.546999990940094,-2.409167917581672
108.46551699999999,,7.35825184952599e-08,108.813,0.515999972820282,-2.4770793217427576
108.931034,,7.273339965014673e-08,109.281,0.5339999794960022,-2.4382002451475007
109.396552,,7.158837399324494e-08,109.743,0.5519999861717224,-2.3992738383996217
109.862069,,7.013874310969668e-08,110.211,0.5460000038146973,-2.4125778746462365
110.32758600000001,,6.837651859104444e-08,110.673,0.5249999761581421,-2.458497748372095
110.793103,,6.629448117087154e-08,111.136,0.5540000200271606,-2.395416123157722
111.258621,,6.388623967300211e-08,111.606,0.5360000133514404,-2.43465872110818
111.724138,,6.114628955406307e-08,112.065,0.546999990940094,-2.410647076491205
112.189655,,5.8070070814233025e-08,112.536,0.5419999957084656,-2.421421588225036
112.655172,,5.465402504248689e-08,113.001,0.5419999957084656,-2.4212341282737087
113.12069,,5.089565135563721e-08,113.465,0.5270000100135803,-2.4536635655870738
113.586207,,4.6793560984020734e-08,113.931,0.5299999713897705,-2.4468225890190185
114.051724,,4.234753025082862e-08,114.395,0.5659999847412109,-2.3680398499313666
114.51724100000001,,3.755855168687727e-08,114.861,0.5299999713897705,-2.4460835010758526
114.982759,,3.242888301811161e-08,115.325,0.5540000200271606,-2.393383557731272
115.448276,,2.6962093759368432e-08,115.792,0.5460000038146973,-2.410388416105956
115.913793,,2.1163109144951224e-08,116.254,0.5640000104904175,-2.370748617855195
116.37931,,1.5038251124422922e-08,116.717,0.5239999890327454,-2.4574839554776116
116.84482799999999,,8.595276150753862e-09,117.18,0.5239999890327454,-2.4571004145862254
117.310345,,1.8434094876104935e-09,117.651,0.527999997138977,-2.4480418176427916
117.77586199999999,,5.206624236822694e-09,118.11,0.5249999761581421,-2.45428382962397
118.241379,,1.2542574500490667e-08,118.575,0.4909999966621399,-2.5281235543377014
118.70689700000001,,2.0150642650947478e-08,119.04,0.5540000200271606,-2.390701279919922
119.172414,,2.8015464226320184e-08,119.506,0.5299999713897705,-2.442892443738434
119.63793100000001,,3.6120096093595155e-08,119.972,0.5189999938011169,-2.466834666657983
120.103448,,4.444600865811678e-08,120.437,0.5360000133514404,-2.429849606914698
120.568966,,5.297308339107888e-08,120.903,0.5519999861717224,-2.3951158661367464
121.034483,,6.167961591349244e-08,121.369,0.5289999842643738,-2.4454176825028826
121.5,,7.054232486560885e-08,121.835,0.5249999761581421,-2.454388259839547
121.96551699999999,,7.953636678004612e-08,122.295,0.5210000276565552,-2.463414686315325
122.431034,,8.863535716489273e-08,122.765,0.531000018119812,-2.4419866972891566
122.896552,,9.781139798983893e-08,123.226,0.5189999938011169,-2.4685245807249165
123.362069,,1.070351117539012e-07,123.696,0.5360000133514404,-2.431905034905401
123.827586,,1.1627568229755922e-07,124.159,0.5339999794960022,-2.4366903266365325
124.293103,,1.255009025051183e-07,124.621,0.5249999761581421,-2.456723354100728
124.758621,,1.3467722902484897e-07,125.087,0.5410000085830688,-2.4222744357109516
125.22413800000001,,1.4376984411495226e-07,125.55,0.5210000276565552,-2.4662287318924556
125.68965500000002,,1.5274272470266662e-07,126.015,0.5460000038146973,-2.4121040651893986
126.15517200000001,,1.615587187218957e-07,126.48,0.5299999713897705,-2.4472535141191525
126.62069000000001,,1.701796287716166e-07,126.946,0.531000018119812,-2.445306471940402
127.086207,,1.7856630311306193e-07,127.411,0.5289999842643738,-2.4498295097668352
127.55172400000001,,1.8667873399828816e-07,127.877,0.5210000276565552,-2.46735338486894
128.017241,,1.9447616329629348e-07,128.343,0.5099999904632568,-2.4913401319173136
128.48275900000002,,2.019171953553779e-07,128.809,0.5509999990463257,-2.4019628655188345
128.948276,,2.0895991701199875e-07,129.27,0.5379999876022339,-2.430159010207584
129.413793,,2.1556202462702793e-07,129.74,0.5339999794960022,-2.438677212774103
129.87931,,2.2168095800012604e-07,130.203,0.515999972820282,-2.4776331012455453
130.344828,,2.2727404098198675e-07,130.665,0.5199999809265137,-2.468603843599303
130.81034499999998,,2.3229862857254772e-07,131.136,0.5540000200271606,-2.3941693148165775
131.275862,,2.3671226026099608e-07,131.598,0.5360000133514404,-2.4329888555534067
131.741379,,2.4047281933060436e-07,132.064,0.5170000195503235,-2.4739636819171014
132.206897,,2.4353869781821086e-07,132.529,0.5379999876022339,-2.4277827323071044
132.67241399999997,,2.4586896678460855e-07,132.995,0.5019999742507935,-2.505788195207628
133.13793099999998,,2.474235515183324e-07,133.462,0.43299999833106995,-2.6557076651295306
133.60344800000001,,2.4816341126144737e-07,133.92,0.515999972820282,-2.4745052534001943
134.06896600000002,,2.4805072301205585e-07,134.392,0.5419999957084656,-2.417527355321352
134.53448300000002,,2.470490689244813e-07,134.85,0.5669999718666077,-2.362776731957323
135.0,,2.4512362679457396e-07,135.317,0.5270000100135803,-2.4496944928900226
135.465517,,2.4224136308445204e-07,135.784,0.5040000081062317,-2.4996399056919945
135.931034,,2.383712279083742e-07,136.247,0.5320000052452087,-2.4385447900007153
136.396552,,2.3348435136947368e-07,136.71,0.5270000100135803,-2.4494178949540215
136.862069,,2.2755424060591456e-07,137.18,0.5360000133514404,-2.4298627835000968
137.327586,,2.2055697687479842e-07,137.643,0.5370000004768372,-2.4278078931005562
137.793103,,2.12471411973008e-07,138.11,0.5329999923706055,-2.436713370727425
138.258621,,2.0327936326627126e-07,138.574,0.5640000104904175,-2.3694270317248693
138.724138,,1.9296580657121794e-07,139.041,0.5210000276565552,-2.463413908323517
139.189655,,1.8151906611023731e-07,139.506,0.5400000214576721,-2.4223693576121725
139.655172,,1.6893100073568397e-07,139.965,0.5339999794960022,-2.4358257041741997
140.12069,,1.551971855985753e-07,140.436,0.5210000276565552,-2.464555678971638
140.586207,,1.4031708841753867e-07,140.902,0.5339999794960022,-2.4366524996691825
141.05172399999998,,1.2429423948655053e-07,141.367,0.5260000228881836,-2.4544997001522924
141.51724099999998,,1.0713639454512158e-07,141.825,0.527999997138977,-2.450547061534484
141.982759,,8.885568962217472e-08,142.295,0.5299999713897705,-2.4465688875501304
142.44827600000002,,6.946878695508626e-08,142.757,0.5540000200271606,-2.394622841717449
142.913793,,4.8997011078365614e-08,143.221,0.5299999713897705,-2.447204043823289
143.37931,,2.7466474172378462e-08,143.691,0.5180000066757202,-2.4735850502964234
143.844828,,4.908189761514218e-09,144.151,0.5170000195503235,-2.4759385603637756
144.310345,,1.864182614660272e-08,144.621,0.5299999713897705,-2.4477234601687465
144.77586200000002,,4.31424673837282e-08,145.086,0.550000011920929,-2.4041858439007227
145.241379,,6.854746429932237e-08,145.55,0.527999997138977,-2.4520781102427365
145.706897,,9.480532567590292e-08,146.015,0.5419999957084656,-2.4214667139292003
146.172414,,1.218592967465027e-07,146.481,0.5419999957084656,-2.4212872570918638
146.637931,,1.4964733415927609e-07,146.946,0.5270000100135803,-2.4537236862640714
147.103448,,1.7810209871039163e-07,147.411,0.5180000066757202,-2.4730323937081127
147.568966,,2.071509666384817e-07,147.877,0.5170000195503235,-2.47486553454064
148.034483,,2.3671606024202182e-07,148.336,0.5730000138282776,-2.3524787878020885
148.5,,2.667142985450244e-07,148.802,0.5199999809265137,-2.467538228148719
148.965517,,2.9705746869630377e-07,149.269,0.5509999990463257,-2.399576938839441
149.43103399999998,,3.276523187432643e-07,149.731,0.5230000019073486,-2.4601549151940496
149.89655199999999,,3.5840067237266356e-07,150.199,0.5199999809265137,-2.4662788716144455
150.362069,,3.8919956615809185e-07,150.662,0.5249999761581421,-2.4549986498983154
150.82758600000003,,4.1994140979700466e-07,151.125,0.5429999828338623,-2.4154321385507087
151.293103,,4.5051416975905636e-07,151.595,0.5270000100135803,-2.44998587733901
151.758621,,4.808015767022551e-07,152.061,0.5419999957084656,-2.4170569288932007
152.224138,,5.106833569441444e-07,152.525,0.5260000228881836,-2.4517289113172644
152.68965500000002,,5.400354882018824e-07,152.991,0.5460000038146973,-2.4080381038240586
153.155172,,5.687304797378294e-07,153.451,0.5339999794960022,-2.43413595124335
153.62069,,5.966376769661672e-07,153.917,0.531000018119812,-2.440699296631664
154.086207,,6.236235904912867e-07,154.382,0.5379999876022339,-2.425549278087362
154.551724,,6.495522494603418e-07,154.848,0.5249999761581421,-2.4540423317897857
155.017241,,6.74285579020623e-07,155.314,0.5529999732971191,-2.3932757228647668
155.482759,,6.97683801577452e-07,155.78,0.5339999794960022,-2.4349632043854053
155.948276,,7.196058614503236e-07,156.24,0.5419999957084656,-2.4178761224789618
156.413793,,7.399098724242573e-07,156.71,0.5249999761581421,-2.4552946023671662
156.87931,,7.584535875899899e-07,157.173,0.5210000276565552,-2.464419004576417
157.34482799999998,,7.750948907610145e-07,157.636,0.5400000214576721,-2.423451046071888
157.81034499999998,,7.896923086478136e-07,158.101,0.531000018119812,-2.4434885233697043
158.275862,,8.021055428602527e-07,158.565,0.5379999876022339,-2.4286579432316477
158.741379,,8.121960206983122e-07,159.031,0.5299999713897705,-2.4464848203253418
159.20689700000003,,8.198274635794575e-07,159.495,0.5080000162124634,-2.4947790427383105
159.672414,,8.248664718383518e-07,159.961,0.5210000276565552,-2.466776752625667
160.137931,,8.271831245216541e-07,160.428,0.5440000295639038,-2.4169338944717365
160.60344800000001,,8.26651592687729e-07,160.894,0.5180000066757202,-2.473782033225324
161.06896600000002,,8.231507646085939e-07,161.359,0.527999997138977,-2.452129957342315
161.534483,,8.165648811597962e-07,161.824,0.5460000038146973,-2.4129753519620665
162.0,,8.067841795735659e-07,162.292,0.5210000276565552,-2.467426853647556
162.465517,,7.937055436219769e-07,162.754,0.5419999957084656,-2.421585240027547
162.931034,,7.772331581904385e-07,163.218,0.5130000114440918,-2.4846032979214465
163.396552,,7.572791660981015e-07,163.68,0.550000011920929,-2.4037625007393113
163.862069,,7.337643249211903e-07,164.151,0.5299999713897705,-2.4470429968226886
164.327586,,7.066186614783415e-07,164.613,0.5230000019073486,-2.461947873019692
164.793103,,6.757821215442727e-07,165.079,0.5440000295639038,-2.4158080115434095
165.258621,,6.412052122700039e-07,165.543,0.527999997138977,-2.450246910796677
165.72413799999998,,6.028496347049377e-07,166.008,0.5180000066757202,-2.471595340527806
166.189655,,5.606889037388959e-07,166.473,0.5270000100135803,-2.4515445802422167
166.655172,,5.147089527112201e-07,166.939,0.5210000276565552,-2.464181904307635
167.12069,,4.6490871986980396e-07,167.406,0.5400000214576721,-2.422374185886013
167.58620699999997,,4.113007138059528e-07,167.865,0.5529999732971191,-2.3936712118995813
168.051724,,3.539115549417692e-07,168.337,0.5230000019073486,-2.4586940044657277
168.517241,,2.9278249010587026e-07,168.795,0.5210000276565552,-2.462769839806809
168.98275900000002,,2.2796987720114176e-07,169.263,0.5210000276565552,-2.4625529434593423
169.44827600000002,,1.5954563694543077e-07,169.725,0.5299999713897705,-2.4427994397323167
169.913793,,8.759766865304815e-08,170.195,0.5289999842643738,-2.4449076775368255
170.37931,,1.2230227022167091e-08,170.658,0.5339999794960022,-2.4340215828788847
170.844828,,6.643574309888375e-08,171.125,0.5130000114440918,-2.479858065916236
171.310345,,1.482623169743919e-07,171.588,0.5410000085830688,-2.4190164453099383
171.775862,,2.3309434825047167e-07,172.054,0.5210000276565552,-2.4628206918253484
172.241379,,3.2075927816556926e-07,172.517,0.5389999747276306,-2.4239003201851816
172.706897,,4.1106699858230445e-07,172.983,0.5389999747276306,-2.4242504346218543
173.172414,,5.03809771653241e-07,173.448,0.5130000114440918,-2.481290064806391
173.637931,,5.987622088527953e-07,173.914,0.5260000228881836,-2.4533961535303503
174.103448,,6.956813120138968e-07,174.381,0.531000018119812,-2.44295231534147
174.568966,,7.943065789009731e-07,174.84,0.527999997138977,-2.4499447093888533
175.034483,,8.943601757301479e-07,175.314,0.5339999794960022,-2.4373224392722026
175.5,,9.955471789130444e-07,175.772,0.5260000228881836,-2.4551807317197705
175.96551699999998,,1.0975558881521732e-06,176.24,0.531000018119812,-2.44468339881942
176.43103399999998,,1.200058212853476e-06,176.702,0.5270000100135803,-2.453748632479156
176.896552,,1.3027101336451749e-06,177.166,0.5329999923706055,-2.4409713453429944
177.36206900000002,,1.4051522406016423e-06,177.635,0.5529999732971191,-2.397627343103171
177.827586,,1.5070103495666704e-06,178.101,0.531000018119812,-2.4457132975604945
178.293103,,1.607896197752367e-06,178.564,0.531000018119812,-2.44579145510436
178.758621,,1.7074082195581579e-06,179.03,0.5460000038146973,-2.413109872425766
179.224138,,1.8051324033092502e-06,179.491,0.5149999856948853,-2.4805660064540325
179.68965500000002,,1.9006432293556912e-06,179.956,0.527999997138977,-2.4520842635680253
180.155172,,1.9935046897022306e-06,180.421,0.5379999876022339,-2.430065769183927
180.62069,,2.083271389055953e-06,180.887,0.5299999713897705,-2.4471965506101956
181.086207,,2.1694897268835824e-06,181.351,0.5519999861717224,-2.39890987256498
181.551724,,2.2516991597639873e-06,181.817,0.5260000228881836,-2.4551507989238774
182.01724099999998,,2.3294335430043973e-06,182.28,0.527999997138977,-2.4503547625594875
182.482759,,2.402222550161752e-06,182.75,0.5379999876022339,-2.4281079566067314
182.948276,,2.4695931687742925e-06,183.21,0.5419999957084656,-2.418924818206989
183.413793,,2.5310712702636585e-06,183.68,0.5170000195503235,-2.4729285442081825
183.87931,,2.5861832516153028e-06,184.143,0.5270000100135803,-2.4507003518682984
184.34482799999998,,2.6344577460859135e-06,184.606,0.48899999260902405,-2.53308226099965
184.81034499999998,,2.675427399821673e-06,185.072,0.5049999952316284,-2.497865250098934
185.27586200000002,,2.7086307109016687e-06,185.535,0.5490000247955322,-2.4017043171829835
185.74137900000002,,2.7336139269477683e-06,186.001,0.5049999952316284,-2.4973309122031386
186.206897,,2.7499329970668566e-06,186.465,0.5210000276565552,-2.462312298779485
186.672414,,2.7571555735148462e-06,186.931,0.5419999957084656,-2.416479161721586
187.137931,,2.7548630580955048e-06,187.395,0.5049999952316284,-2.497088310931182
187.60344800000001,,2.7426526879323436e-06,187.861,0.5529999732971191,-2.392593208203373
188.06896600000002,,2.7201396548799187e-06,188.325,0.5180000066757202,-2.4690039803256174
188.534483,,2.686959252473373e-06,188.791,0.531000018119812,-2.440913253194246
189.0,,2.642769043953395e-06,189.255,0.5009999871253967,-2.5065720160665643
189.465517,,2.5872510445495423e-06,189.724,0.5230000019073486,-2.458999957288789
189.931034,,2.520113910859663e-06,190.188,0.5519999861717224,-2.396224940327967
190.39655199999999,,2.441095129828502e-06,190.65,0.5299999713897705,-2.444595314644657
190.862069,,2.349963199506265e-06,191.122,0.515999972820282,-2.475558116320285
191.327586,,2.24651979345951e-06,191.584,0.5379999876022339,-2.4280978788838037
191.793103,,2.1306019004139692e-06,192.05,0.5090000033378601,-2.4917430091917323
192.25862099999998,,2.002083930433564e-06,192.51,0.5149999856948853,-2.4791163749826546
192.72413799999998,,1.8608797786835524e-06,192.975,0.5199999809265137,-2.468636076085721
193.189655,,1.7069448375903513e-06,193.44,0.5339999794960022,-2.4385026109066814
193.655172,,1.540277947997686e-06,193.906,0.5419999957084656,-2.4213837871167043
194.12069000000002,,1.3609232797301865e-06,194.37,0.5299999713897705,-2.44777106893461
194.586207,,1.16897213181303e-06,194.836,0.5419999957084656,-2.421796378923384
195.051724,,9.645646424614463e-07,195.306,0.5529999732971191,-2.39792058030696
195.517241,,7.478913988485438e-07,195.768,0.5460000038146973,-2.413177270247903
195.98275900000002,,5.191949365856111e-07,196.236,0.5440000295639038,-2.4174575566974847
196.448276,,2.7877111880741545e-07,196.699,0.5329999923706055,-2.441265427646475
196.913793,,2.697038474761107e-08,197.166,0.5400000214576721,-2.4257821935836517
197.37931,,2.3580114228230633e-07,197.628,0.5379999876022339,-2.4298387280541482
197.844828,,5.090806975315638e-07,198.094,0.5460000038146973,-2.4120493880896094
198.310345,,7.923480779832148e-07,198.556,0.5059999823570251,-2.4987874466924382
198.775862,,1.085025015834921e-06,199.022,0.5389999747276306,-2.4264493381450833
199.241379,,1.3864747318756187e-06,199.488,0.5630000233650208,-2.3736966686740377
199.706897,,1.6960016781191878e-06,199.953,0.5540000200271606,-2.3928299756024822
200.172414,,2.012851478785978e-06,200.418,0.5199999809265137,-2.466434940140209
200.63793099999998,,2.3362110784087158e-06,200.884,0.5410000085830688,-2.4202346910354033
201.103448,,2.6652091054801027e-06,201.351,0.515999972820282,-2.474287011474411
201.568966,,2.9989164596547356e-06,201.817,0.5509999990463257,-2.397667237547363
202.034483,,3.3363471300672114e-06,202.277,0.5410000085830688,-2.4191441566299923
202.5,,3.676459251831134e-06,202.747,0.550000011920929,-2.399293108807711
202.965517,,4.018156407239917e-06,203.21,0.5149999856948853,-2.4753769196152313
203.431034,,4.360289177599732e-06,203.673,0.5419999957084656,-2.416464383561785
203.896552,,4.701656950987793e-06,204.136,0.5419999957084656,-2.4164577124072277
204.36206900000002,,5.0410099905455745e-06,204.606,0.5339999794960022,-2.4339624137942435
204.827586,,5.377051767187054e-06,205.072,0.5419999957084656,-2.416688650587867
205.293103,,5.708441559827213e-06,205.535,0.5529999732971191,-2.392953943186824
205.758621,,6.033797325416655e-06,206.001,0.5189999938011169,-2.4673263748324503
206.224138,,6.351698840205275e-06,206.466,0.5440000295639038,-2.4132180541785617
206.689655,,6.660691112752665e-06,206.931,0.5419999957084656,-2.417981897883688
207.155172,,6.959288068256708e-06,207.396,0.527999997138977,-2.448925496318983
207.62069,,7.245976502786312e-06,207.862,0.5270000100135803,-2.4515698464777493
208.086207,,7.519220304981175e-06,208.321,0.515999972820282,-2.476010396235006
208.551724,,7.77746494172291e-06,208.787,0.5239999890327454,-2.4590519266932866
209.01724099999998,,8.019142203190057e-06,209.255,0.5400000214576721,-2.4246449218113955
209.482759,,8.242675201586836e-06,209.717,0.5170000195503235,-2.47517190052759
209.948276,,8.446483616684827e-06,210.185,0.515999972820282,-2.477723070557202
210.413793,,8.62898918014074e-06,210.647,0.5339999794960022,-2.438822860791579
210.87930999999998,,8.788621389355288e-06,211.113,0.5210000276565552,-2.4673936106107757
211.344828,,8.923823440421251e-06,211.576,0.49399998784065247,-2.526391501544317
211.810345,,9.033058368476501e-06,212.042,0.5460000038146973,-2.413196626683947
212.27586200000002,,9.114815382533962e-06,212.507,0.5519999861717224,-2.400135671460632
212.741379,,9.167616380608951e-06,212.972,0.5669999718666077,-2.3673808321158454
213.206897,,9.190022629709411e-06,213.44,0.550000011920929,-2.40425840729881
213.672414,,9.180641594000311e-06,213.906,0.5220000147819519,-2.465022632585882
214.137931,,9.138133893204639e-06,214.366,0.5389999747276306,-2.4276774519253865
214.60344800000001,,9.061220372064521e-06,214.831,0.5400000214576721,-2.4251294670573063
215.068966,,8.94868926046207e-06,215.299,0.5249999761581421,-2.4573902917572163
215.534483,,8.799403402595274e-06,215.762,0.5289999842643738,-2.448220197346911
216.0,,8.612307532425152e-06,216.225,0.5329999923706055,-2.4390276617544937
216.465517,,8.386435571461427e-06,216.695,0.5239999890327454,-2.4581497574667943
216.93103399999998,,8.120917923840794e-06,217.155,0.515999972820282,-2.4751007190759653
217.39655199999999,,7.814988742579881e-06,217.625,0.5270000100135803,-2.4506796524859813
217.862069,,7.467993139859655e-06,218.091,0.5419999957084656,-2.417579958861415
218.327586,,7.079394313225367e-06,218.553,0.5540000200271606,-2.3910638774996396
218.793103,,6.648780558671512e-06,219.019,0.5490000247955322,-2.4016434401433053
219.25862099999998,,6.175872140730687e-06,219.485,0.5339999794960022,-2.434078118103838
219.724138,,5.660527988904423e-06,219.95,0.5189999938011169,-2.4665897620062722
220.18965500000002,,5.1027521890687755e-06,220.415,0.5299999713897705,-2.442539632274923
220.65517200000002,,4.5027002378635315e-06,220.88,0.5210000276565552,-2.4621481181359983
221.12069,,3.860685027537075e-06,221.34,0.5139999985694885,-2.477485644436351
221.586207,,3.1771825282748194e-06,221.805,0.5529999732971191,-2.392688570951318
222.051724,,2.452837134693383e-06,222.273,0.5350000262260437,-2.432151461658757
222.517241,,1.6884666429407312e-06,222.736,0.4909999966621399,-2.5283297877800535
222.98275900000002,,8.850668247097125e-07,223.203,0.5339999794960022,-2.4350274581815916
223.448276,,4.381556445402269e-08,223.665,0.5249999761581421,-2.4550644488087765
223.913793,,8.339234738034492e-07,224.136,0.5419999957084656,-2.4184921068539387
224.37931,,1.7465976834548557e-06,224.599,0.5299999713897705,-2.445121728302678
224.844828,,2.6924628891153735e-06,225.064,0.5130000114440918,-2.482650977622626
225.31034499999998,,3.669581289799302e-06,225.529,0.5210000276565552,-2.465706095665047
225.775862,,4.6758200033848215e-06,225.994,0.5419999957084656,-2.420415577853859
226.241379,,5.708850243523418e-06,226.458,0.515999972820282,-2.4774835232253793
226.706897,,6.766147159241366e-06,226.924,0.5419999957084656,-2.4212105492114944
227.172414,,7.844990366425053e-06,227.389,0.5329999923706055,-2.4411274208258624
227.63793099999998,,8.94246519917662e-06,227.854,0.5320000052452087,-2.4435423801803813
228.103448,,1.0055464707669334e-05,228.321,0.5419999957084656,-2.4219122124782593
228.56896600000002,,1.1180692427621459e-05,228.78,0.546999990940094,-2.4110899052572474
229.03448300000002,,1.2314665944842068e-05,229.247,0.5419999957084656,-2.42196617774111
229.5,,1.3453721276481346e-05,229.71,0.5260000228881836,-2.4567205499379745
229.965517,,1.459401808864126e-05,230.18,0.5210000276565552,-2.4674268316789174
230.431034,,1.5731545767870434e-05,230.643,0.5170000195503235,-2.4758778241299657
230.896552,,1.686213036178051e-05,231.109,0.5270000100135803,-2.453759234134453
231.362069,,1.79814424015816e-05,231.575,0.546999990940094,-2.409795213742984
231.827586,,1.908500561674381e-05,232.04,0.5419999957084656,-2.420249603588692
232.293103,,2.0168206549252935e-05,232.5,0.5170000195503235,-2.474242978727831
232.758621,,2.122630507204462e-05,232.966,0.527999997138977,-2.4497865440375928
233.224138,,2.225444581317662e-05,233.433,0.5239999890327454,-2.458006576507928
233.689655,,2.3247670484137896e-05,233.899,0.5460000038146973,-2.40959323199527
234.155172,,2.4200931107401618e-05,234.366,0.5249999761581421,-2.454888005714836
234.62069,,2.510910413491288e-05,234.825,0.5490000247955322,-2.40218355363659
235.086207,,2.5967005445667426e-05,235.292,0.5339999794960022,-2.434499462005703
235.55172399999998,,2.676940620689306e-05,235.761,0.5419999957084656,-2.4167704010018105
236.01724099999998,,2.751104957959848e-05,236.225,0.5009999871253967,-2.505869395925342
236.482759,,2.818666824541399e-05,236.687,0.5270000100135803,-2.4490809648213925
236.94827600000002,,2.8791002727724777e-05,237.151,0.5379999876022339,-2.42505859517965
237.413793,,2.93188204761004e-05,237.621,0.5299999713897705,-2.442517839184745
237.87931,,2.976493567896496e-05,238.087,0.5379999876022339,-2.425204982293751
238.344828,,3.012422976534276e-05,238.55,0.5329999923706055,-2.4362973516397006
238.810345,,3.039167255236693e-05,239.016,0.5120000243186951,-2.4823251479210273
239.27586200000002,,3.0562343991066415e-05,239.48,0.527999997138977,-2.447812244437268
239.741379,,3.063145645876332e-05,239.946,0.5210000276565552,-2.4634666166282235
240.206897,,3.059437754223324e-05,240.41,0.5139999985694885,-2.4791671969503475
240.672414,,3.0446653251619857e-05,240.875,0.5429999828338623,-2.4164683664956694
241.137931,,3.0184031600968506e-05,241.342,0.5320000052452087,-2.440931715321015
241.603448,,2.9802486487166425e-05,241.8,0.5339999794960022,-2.4370733968910243
242.068966,,2.9298241795068305e-05,242.27,0.5299999713897705,-2.446272335559732
242.534483,,2.8667795652660295e-05,242.732,0.5460000038146973,-2.411868393061423
243.0,,2.790794475629233e-05,243.195,0.5210000276565552,-2.46674513000712
243.465517,,2.7015808682305142e-05,243.665,0.5379999876022339,-2.430062370964043
243.93103399999998,,2.598885409781318e-05,244.126,0.5389999747276306,-2.428170403091754
244.39655199999999,,2.482491877999646e-05,244.595,0.5450000166893005,-2.415308176357344
244.862069,,2.3522235350022026e-05,245.061,0.5419999957084656,-2.4219703585275147
245.327586,,2.2079454624678455e-05,245.526,0.5370000004768372,-2.4329024233195846
245.793103,,2.0495668485983676e-05,245.991,0.5210000276565552,-2.4677116038316167
246.258621,,1.8770432166436953e-05,246.451,0.5419999957084656,-2.4218247795965113
246.724138,,1.690378584524927e-05,246.916,0.5370000004768372,-2.4325004760884683
247.18965500000002,,1.4896275448821891e-05,247.381,0.5339999794960022,-2.4387432745159763
247.655172,,1.274897254696969e-05,247.847,0.5360000133514404,-2.4340263399313185
248.12069,,1.0463493234922721e-05,248.314,0.5440000295639038,-2.4161821877740683
248.586207,,8.04201589000516e-06,248.781,0.5109999775886536,-2.487620613928743
249.051724,,5.487297691103496e-06,249.243,0.5180000066757202,-2.471885847885754
249.517241,,2.802689788613286e-06,249.706,0.5210000276565552,-2.464853942484949
249.982759,,7.848987486736621e-09,250.17,0.527999997138977,-2.4491107389581046
250.44827600000002,,2.9397399934261572e-06,250.64,0.5419999957084656,-2.4181347196960705
250.913793,,5.987774322520133e-06,251.105,0.5260000228881836,-2.4525501751486853
251.37931000000003,,9.146104151149904e-06,251.569,0.5379999876022339,-2.4260093919725305
251.844828,,1.2408235988217409e-05,252.035,0.5419999957084656,-2.4169555048713285
252.31034499999998,,1.5767025934340772e-05,252.5,0.5389999747276306,-2.4232201447053336
252.77586200000002,,1.921467705448382e-05,252.965,0.5440000295639038,-2.412131648769956
253.241379,,2.274273896465829e-05,253.425,0.5139999985694885,-2.477378742914665
253.706897,,2.634210972979239e-05,253.891,0.5149999856948853,-2.4751748404049967
254.172414,,3.0003040165815295e-05,254.358,0.5329999923706055,-2.4360219821158338
254.63793099999998,,3.3715140634456546e-05,254.824,0.5419999957084656,-2.416562259543174
255.10344800000001,,3.7467390414197064e-05,255.292,0.5379999876022339,-2.4255050754666367
255.56896600000002,,4.1248149725229924e-05,255.754,0.5389999747276306,-2.4236276224691604
256.03448299999997,,4.504517448019207e-05,256.218,0.5529999732971191,-2.3934911453276877
256.5,,4.884563382581237e-05,256.68,0.5379999876022339,-2.4265874071316818
256.965517,,5.2636130533487674e-05,257.151,0.5400000214576721,-2.4226859906380347
257.431034,,5.640272428914957e-05,257.613,0.5360000133514404,-2.4318822436810152
257.896552,,6.013095792462616e-05,258.079,0.5189999938011169,-2.469412293767395
258.362069,,6.380588662404162e-05,258.543,0.5270000100135803,-2.4524727923701137
258.827586,,6.74121101296417e-05,259.009,0.5299999713897705,-2.446408318069852
259.29310300000003,,7.093380796179607e-05,259.475,0.5429999828338623,-2.418523881865354
259.758621,,7.435477765782183e-05,259.94,0.5429999828338623,-2.418914508716818
260.224138,,7.765847602371458e-05,260.407,0.5419999957084656,-2.4214240967072973
260.689655,,8.082806338187826e-05,260.865,0.5189999938011169,-2.471794622336545
261.155172,,8.384645078653742e-05,261.33,0.5419999957084656,-2.421870295545701
261.62068999999997,,8.669635016671478e-05,261.795,0.5170000195503235,-2.4764384485573867
262.086207,,8.936032734449045e-05,262.265,0.5389999747276306,-2.428524528517469
262.551724,,9.182085786375266e-05,262.728,0.5460000038146973,-2.41320344742685
263.017241,,9.40603855518351e-05,263.196,0.5419999957084656,-2.4217623768109977
263.482759,,9.606138372334372e-05,263.658,0.5699999928474426,-2.3605235677841203
263.94827599999996,,9.780641892214145e-05,264.121,0.5419999957084656,-2.4212149953591857
264.413793,,9.927821708392064e-05,264.591,0.5379999876022339,-2.429554973541442
264.87931,,0.00010045973198808734,265.057,0.4970000088214874,-2.5184540689926407
265.34482799999995,,0.00010133421585385301,265.515,0.5460000038146973,-2.41123780244643
265.810345,,0.00010188529192151985,265.981,0.5419999957084656,-2.4194662380398637
266.27586199999996,,0.00010209702884600338,266.448,0.515999972820282,-2.4756159766253294
266.741379,,0.00010195401671570744,266.913,0.5360000133514404,-2.431554628023495
267.206897,,0.00010144144449600197,267.381,0.4959999918937683,-2.5182347916259884
267.672414,,0.00010054517868280702,267.846,0.5460000038146973,-2.408873356414368
268.137931,,9.925184293820943e-05,268.314,0.5130000114440918,-2.4803893391432323
268.603448,,9.754889846668959e-05,268.772,0.5239999890327454,-2.456106009930651
269.06896600000005,,9.542472487746842e-05,269.24,0.515999972820282,-2.473288215625974
269.53448299999997,,9.286870126576237e-05,269.702,0.5419999957084656,-2.4164745336148257
270.0,,8.987128723341311e-05,270.166,0.5329999923706055,-2.435996281434721
270.465517,,8.642410355750267e-05,270.635,0.5080000162124634,-2.4904618250108035
270.931034,,8.252001220423521e-05,271.101,0.5149999856948853,-2.475297027659048
271.396552,,7.815319537462641e-05,271.564,0.5649999976158142,-2.3665330168330585
271.86206899999996,,7.331923325845498e-05,272.03,0.5419999957084656,-2.4168863303213928
272.327586,,6.801518016356184e-05,272.495,0.5419999957084656,-2.4171989291067244
272.793103,,6.22396386789949e-05,272.96,0.5180000066757202,-2.469858548322936
273.258621,,5.5992831522757275e-05,273.426,0.5239999890327454,-2.45720757365933
273.724138,,4.927667071808584e-05,273.891,0.5370000004768372,-2.4293418816939054
274.18965499999996,,4.209482373633113e-05,274.351,0.5370000004768372,-2.4298199473246442
274.655172,,3.445277623969052e-05,274.816,0.5270000100135803,-2.452091094855997
275.12069,,2.6357891053326446e-05,275.284,0.5260000228881836,-2.4547465931019232
275.586207,,1.781946299384086e-05,275.747,0.5009999871253967,-2.5096681223260746
276.051724,,8.848769179736176e-06,276.214,0.5170000195503235,-2.475229986492191
276.517241,,5.408855505723994e-07,276.677,0.5090000033378601,-2.493031803148173
276.98275900000004,,1.03341284863612e-05,277.14,0.5299999713897705,-2.4475932726177776
277.448276,,2.0513484528335726e-05,277.61,0.5440000295639038,-2.4173350183118867
277.913793,,3.105934767493148e-05,278.076,0.5070000290870667,-2.4981102371055672
278.37931,,4.194995887203895e-05,278.542,0.5270000100135803,-2.454620396625203
278.844828,,5.316139057991756e-05,279.0,0.5419999957084656,-2.4219387967090804
279.31034500000004,,6.466753840240057e-05,279.465,0.5370000004768372,-2.4327443459202467
279.77586199999996,,7.644012011322491e-05,279.931,0.5329999923706055,-2.4412881585940474
280.241379,,8.844868240241663e-05,280.396,0.5320000052452087,-2.4432183964209138
280.706897,,0.00010066061565209254,280.861,0.5239999890327454,-2.4603295917318353
281.172414,,0.00011304117703578161,281.325,0.5260000228881836,-2.455594628905298
281.637931,,0.00012555352221840354,281.791,0.5329999923706055,-2.439918586428183
282.10344799999996,,0.0001381587459153573,282.255,0.5299999713897705,-2.445993908128109
282.568966,,0.00015081593154875794,282.725,0.5049999952316284,-2.4999789452878325
283.034483,,0.00016348221021671695,283.185,0.5210000276565552,-2.4646343717478345
283.5,,0.00017611282916769143,283.654,0.5210000276565552,-2.4641580796559603
283.965517,,0.0001886612299463428,284.118,0.6340000033378601,-2.21751649153831
284.431034,,0.00020107913635006256,284.58,0.515999972820282,-2.47417685959323
284.89655200000004,,0.00021331665230636527,285.046,0.5329999923706055,-2.4367684489874235
285.362069,,0.0002253223697507489,285.51,0.546999990940094,-2.405957887227834
285.827586,,0.0002370434865524159,285.976,0.5329999923706055,-2.4362204484606824
286.293103,,0.00024842593450148355,286.441,0.5329999923706055,-2.4360606416688437
286.758621,,0.00025941451733603915,286.906,0.5210000276565552,-2.462128840038701
287.22413800000004,,0.0002699530587506781,287.37,0.5260000228881836,-2.4512472126247706
287.689655,,0.000279984560290064,287.836,0.5199999809265137,-2.464417847186636
288.155172,,0.0002894513689916544,288.306,0.5440000295639038,-2.41231257771571
288.62069,,0.0002982953546011199,288.769,0.5379999876022339,-2.4256445196515
289.086207,,0.00030645809614224446,289.232,0.5419999957084656,-2.4172591363963316
289.55172400000004,,0.00031388107758032846,289.695,0.5189999938011169,-2.46775687177788
290.01724099999996,,0.0003205058922744364,290.166,0.515999972820282,-2.47473011743288
290.482759,,0.0003262744558693469,290.628,0.5260000228881836,-2.453416086109477
290.948276,,0.0003311292272329046,291.094,0.515999972820282,-2.475695812354635
291.413793,,0.00033501343699876926,291.556,0.5249999761581421,-2.456586344881201
291.87931,,0.0003378713232284489,292.022,0.5120000243186951,-2.4853968907002315
292.344828,,0.00033964837366013355,292.488,0.4779999852180481,-2.5599347841404945
292.81034500000004,,0.0003402915739653764,292.954,0.515999972820282,-2.4775716308356226
293.275862,,0.0003397496613882503,293.421,0.5379999876022339,-2.430013895066726
293.74137900000005,,0.00033797338309541757,293.886,0.5419999957084656,-2.4216054645940086
294.206897,,0.0003349157585197572,294.351,0.550000011920929,-2.404405503970687
294.672414,,0.00033053234493497937,294.81,0.5389999747276306,-2.4285155269700875
295.13793100000004,,0.0003247815054542104,295.28,0.5360000133514404,-2.4351073287589817
295.603448,,0.0003176246786020374,295.743,0.5370000004768372,-2.4328941784183375
296.068966,,0.0003090266485671648,296.211,0.5180000066757202,-2.4741648262868563
296.534483,,0.0002989558152018513,296.673,0.5339999794960022,-2.4390978240611125
297.0,,0.0002873844627948658,297.136,0.5419999957084656,-2.421380950831429
297.46551700000003,,0.000274289026607048,297.606,0.5339999794960022,-2.4384520321962784
297.931034,,0.000259650356122868,298.071,0.4959999918937683,-2.520824040814495
298.396552,,0.00024345397393789347,298.535,0.5199999809265137,-2.468075482346676
298.862069,,0.00022569032917097695,299.001,0.5170000195503235,-2.4741202242255156
299.327586,,0.00020635504426150773,299.467,0.531000018119812,-2.443112604843915
299.79310300000003,,0.00018544915398642996,299.925,0.5529999732971191,-2.394675396087657
300.258621,,0.00016297933550913705,300.391,0.531000018119812,-2.4421132483241874
300.724138,,0.00013895812825301612,300.857,0.5170000195503235,-2.4721528127871806
301.189655,,0.00011340414237654977,301.322,0.5260000228881836,-2.4521295414954483
301.65517200000005,,8.634225461468972e-05,301.788,0.5440000295639038,-2.4125572065135295
302.12069,,5.7803790242900036e-05,302.251,0.5270000100135803,-2.449307196767255
302.586207,,2.782668991602511e-05,302.721,0.46399998664855957,-2.586355217783514
303.05172400000004,,3.544339865840644e-06,303.184,0.527999997138977,-2.4468029613951834
303.517241,,3.625769390783369e-05,303.647,0.5239999890327454,-2.4554898029545438
303.982759,,7.025475432140924e-05,304.118,0.5490000247955322,-2.4010860435759214
304.448276,,0.00010546979659640481,304.58,0.5099999904632568,-2.486204291911443
304.913793,,0.00014182991694561018,305.046,0.492000013589859,-2.525655773700193
305.37931000000003,,0.0001792549820994405,305.51,0.5299999713897705,-2.4431814025826135
305.844828,,0.00021765760269914307,305.975,0.4830000102519989,-2.5459603757780958
306.310345,,0.00025694313140244934,306.441,0.5109999775886536,-2.4853976665944626
306.775862,,0.00029700968677560366,306.906,0.5270000100135803,-2.4510211540903906
307.241379,,0.0003377482040001652,307.366,0.5389999747276306,-2.425385376608188
307.70689699999997,,0.0003790425133718104,307.832,0.5379999876022339,-2.4280811708799184
308.172414,,0.00042076944751150304,308.295,0.5299999713897705,-2.446020482954176
308.637931,,0.0004627989781467984,308.765,0.5440000295639038,-2.4160062777982327
309.103448,,0.0005049943832526911,309.225,0.5249999761581421,-2.457849364252244
309.568966,,0.0005472124452672892,309.695,0.550000011920929,-2.4037792413811063
310.034483,,0.0005893036810177189,310.155,0.515999972820282,-2.4781848131176805
310.5,,0.0006311126039060697,310.625,0.5460000038146973,-2.413081824724274
310.96551700000003,,0.0006724780188139421,311.09,0.5410000085830688,-2.4241484061708176
311.431034,,0.000713233350087332,311.553,0.47999998927116394,-2.557131621202352
311.896552,,0.0007532070028612888,312.019,0.527999997138977,-2.452553126572412
312.362069,,0.0007922227578761396,312.484,0.5339999794960022,-2.4393884645786734
312.827586,,0.0008301001998242409,312.95,0.5419999957084656,-2.4217786062138478
313.29310300000003,,0.0008666551791483713,313.414,0.5299999713897705,-2.4476595074619123
313.758621,,0.000901700307090226,313.88,0.49900001287460327,-2.514861455465575
314.224138,,0.0009350454836602373,314.34,0.5410000085830688,-2.422960131826729
314.689655,,0.0009664984580683791,314.806,0.550000011920929,-2.402903566701321
315.155172,,0.0009958654210200208,315.273,0.5429999828338623,-2.4176678968275085
315.62068999999997,,0.0010229516281415494,315.736,0.5199999809265137,-2.467268800107839
316.086207,,0.0010475620536577526,316.206,0.5329999923706055,-2.4384332772642954
316.551724,,0.0010695020732971754,316.669,0.5289999842643738,-2.4466459650165544
317.017241,,0.0010885781752532522,317.137,0.5170000195503235,-2.472314794070291
317.482759,,0.0011045986978783506,317.599,0.5260000228881836,-2.4522743756651337
317.94827599999996,,0.0011173745926354294,318.065,0.5419999957084656,-2.417038957178078
318.413793,,0.00112672021067823,318.529,0.5249999761581421,-2.4537657994245534
318.87931000000003,,0.0011324541112763113,318.995,0.5519999861717224,-2.394708425329885
319.344828,,0.0011343998901463084,319.455,0.5260000228881836,-2.451202955435634
319.810345,,0.001132387025596076,319.921,0.5299999713897705,-2.4424268840944556
320.275862,,0.0011262517402344328,320.388,0.5339999794960022,-2.4337415892341405
320.741379,,0.0011158378758466523,320.853,0.5389999747276306,-2.4229673687468534
321.20689699999997,,0.0011009977788852187,321.318,0.5260000228881836,-2.4514946932158383
321.672414,,0.001081593193877337,321.783,0.5419999957084656,-2.4169210253736813
322.137931,,0.0010574961619058633,322.251,0.5289999842643738,-2.445598815674377
322.603448,,0.0010285899211793944,322.713,0.531000018119812,-2.441656472506067
323.068966,,0.0009947698065708567,323.181,0.5379999876022339,-2.4268677774668803
323.53448299999997,,0.0009559441448727875,323.643,0.5249999761581421,-2.4556842631828397
324.0,,0.0009120351423922501,324.11,0.5440000295639038,-2.4148005910113253
324.465517,,0.0008629797613897204,324.574,0.5389999747276306,-2.426205110245697
324.931034,,0.0008087305817550025,325.04,0.6119999885559082,-2.2676576627572365
325.396552,,0.0007492566442099925,325.506,0.5249999761581421,-2.4576605310158546
325.86206899999996,,0.0006845442712336533,325.965,0.5230000019073486,-2.462432124815047
326.327586,,0.0006145978618195576,326.436,0.5429999828338623,-2.4192159989871063
326.793103,,0.0005394406561015602,326.902,0.5339999794960022,-2.439111512915173
327.258621,,0.00045911546581925216,327.366,0.5419999957084656,-2.421891676822749
327.724138,,0.00037368536654253863,327.831,0.5339999794960022,-2.439445554697251
328.189655,,0.00028323434753464965,328.292,0.531000018119812,-2.4460176721106994
328.655172,,0.00018786791510581833,328.761,0.5360000133514404,-2.4350713515991416
329.12068999999997,,8.771364529639803e-05,329.225,0.5360000133514404,-2.434930453895869
329.586207,,1.7078318271031635e-05,329.688,0.5210000276565552,-2.4673860170908863
330.051724,,0.0001263348255153775,330.151,0.5360000133514404,-2.43440615526442
330.517241,,0.00023985934411028685,330.621,0.5360000133514404,-2.4340390113686365
330.982759,,0.00035743165085357786,331.086,0.4880000054836273,-2.538192047187964
331.44827599999996,,0.00047880759419586865,331.549,0.5299999713897705,-2.4462257714405364
331.913793,,0.0006037189318508045,332.015,0.5249999761581421,-2.4566286849778898
332.37931,,0.0007318732473112003,332.48,0.527999997138977,-2.4495895657469204
332.844828,,0.0008629539489794685,332.946,0.5400000214576721,-2.4229450296774777
333.310345,,0.0009966203554865292,333.41,0.5180000066757202,-2.470392402191943
333.77586199999996,,0.0011325078706207066,333.876,0.546999990940094,-2.406761341417535
334.241379,,0.0012702282511166186,334.341,0.5419999957084656,-2.4172502791188646
334.706897,,0.001409369970363597,334.806,0.5630000233650208,-2.3711519907677157
335.17241399999995,,0.0015494986808835703,335.269,0.5210000276565552,-2.4623772033743956
335.637931,,0.0016901577781995181,335.732,0.5379999876022339,-2.4251402956015498
336.103448,,0.0018308690684675755,336.195,0.5009999871253967,-2.5056355778172397
336.56896600000005,,0.001971133541978652,336.665,0.515999972820282,-2.472930779647803
337.034483,,0.0021104322543491726,337.126,0.5019999742507935,-2.5034976609842428
337.5,,0.002248227316915449,337.595,0.5339999794960022,-2.4339351882531224
337.965517,,0.0023839629975225,338.06,0.5230000019073486,-2.4581376010428673
338.431034,,0.0025170669325562454,338.525,0.5360000133514404,-2.430127665590055
338.89655200000004,,0.0026469514507082765,338.991,0.503000020980835,-2.502401454915994
339.36206899999996,,0.002773015008585426,339.455,0.4860000014305115,-2.539872332065266
339.827586,,0.002894643737882693,339.921,0.546999990940094,-2.4074505743595562
340.293103,,0.0030112131034284,340.38,0.5389999747276306,-2.425380990925808
340.758621,,0.0031220896709855273,340.846,0.5149999856948853,-2.478179080442288
341.224138,,0.0032266329832538847,341.318,0.5339999794960022,-2.437289430593311
341.68965499999996,,0.0033241975420650323,341.776,0.5149999856948853,-2.479166951482233
342.155172,,0.003414134894296725,342.244,0.527999997138977,-2.4512912862267364
342.62069,,0.0034957958185572067,342.706,0.5339999794960022,-2.4386156796254
343.086207,,0.00356853260920318,343.174,0.5180000066757202,-2.4738072105574815
343.551724,,0.0036317014537599517,343.636,0.5249999761581421,-2.4588168805806894
344.01724099999996,,0.003684664899309586,344.101,0.6449999809265137,-2.1975557662923193
344.48275900000004,,0.0037267944029042393,344.572,0.5460000038146973,-2.4133272601428577
344.948276,,0.003757472960548893,345.03,0.5490000247955322,-2.4067839589441924
345.413793,,0.003776097808781915,345.495,0.5440000295639038,-2.4175796737356623
345.87931,,0.0037820831923651194,345.961,0.5230000019073486,-2.463147530889189
346.344828,,0.0037748631910790274,346.426,0.5320000052452087,-2.4432763019118315
346.81034500000004,,0.003753894598105651,346.892,0.5099999904632568,-2.49087267806013
347.275862,,0.0037186598419723747,347.358,0.5070000290870667,-2.497015410325021
347.741379,,0.0036686699435283087,347.824,0.5189999938011169,-2.4704320942229376
348.206897,,0.0036034674989309672,348.288,0.5170000195503235,-2.4743166848318023
348.672414,,0.0035226296791383556,348.75,0.5370000004768372,-2.43025223681864
349.13793100000004,,0.003425771235931809,349.218,0.5120000243186951,-2.484223051629088
349.60344799999996,,0.0033125475040403332,349.68,0.5170000195503235,-2.4728463549621984
350.068966,,0.0031826573885000604,350.151,0.531000018119812,-2.4418885866498283
350.534483,,0.003035846325965105,350.613,0.5339999794960022,-2.434936108429099
351.0,,0.0028719092082908405,351.079,0.5339999794960022,-2.434571866129509
351.465517,,0.00269069325633986,351.543,0.5210000276565552,-2.462593551036884
351.93103399999995,,0.0024921008316169183,352.008,0.531000018119812,-2.440579363083364
352.396552,,0.002276092173024413,352.473,0.5130000114440918,-2.479647250490878
352.862069,,0.002042688045746779,352.939,0.5339999794960022,-2.433832140197225
353.32758600000005,,0.0017919722890229798,353.403,0.5419999957084656,-2.416424686224211
353.793103,,0.0015240942493533257,353.869,0.5400000214576721,-2.4208873968582068
354.258621,,0.0012392710855125351,354.333,0.5260000228881836,-2.451574308614711
354.72413800000004,,0.0009377899316074956,354.798,0.5249999761581421,-2.454013857115945
355.189655,,0.0006200099043278548,355.262,0.5339999794960022,-2.434733657469709
355.655172,,0.0002863639404925006,355.732,0.5220000147819519,-2.4612614998094755
356.12069,,6.263954900267475e-05,356.192,0.5289999842643738,-2.4464397887580343
356.586207,,0.00042641522267861353,356.662,0.5389999747276306,-2.425113170352865
357.05172400000004,,0.0008042995631483449,357.125,0.5419999957084656,-2.419053314523917
357.517241,,0.0011955498565572264,357.587,0.5180000066757202,-2.4718187625555657
357.982759,,0.0015993434101606164,358.053,0.5239999890327454,-2.4592125990662046
358.448276,,0.002014777021143794,358.517,0.5130000114440918,-2.4836173510838453
358.913793,,0.0024408667094633443,358.983,0.5260000228881836,-2.4556951209699296
359.37931000000003,,0.002876547727104367,359.448,0.5429999828338623,-2.4190061668851928
359.844828,,0.003320674855702536,359.914,0.5170000195503235,-2.47593575053744
360.310345,,0.0037720230039732863,360.381,0.5419999957084656,-2.421682729921099
360.775862,,0.004229288115821355,360.847,0.5379999876022339,-2.430532135768783
361.241379,,0.004691088399371963,361.314,0.5329999923706055,-2.4414776456701515
361.706897,,0.00515596588646959,361.772,0.5239999890327454,-2.461054326060251
362.172414,,0.005622388331431483,362.24,0.5490000247955322,-2.4064745881726206
362.63793100000004,,0.0060887514570205446,362.702,0.5230000019073486,-2.4629273076973073
363.103448,,0.006553381554716433,363.166,0.5370000004768372,-2.4321616572804747
363.568966,,0.007014538445414971,363.636,0.515999972820282,-2.4775851882164655
364.034483,,0.007470418805674999,364.101,0.5450000166893005,-2.41402281116326
364.5,,0.00791915986355957,364.565,0.574999988079071,-2.348239334666591
364.96551700000003,,0.008358843466986118,365.03,0.527999997138977,-2.4501816152464495
365.431034,,0.008787500526309399,365.495,0.527999997138977,-2.4497126243408953
365.896552,,0.009203115831613314,365.961,0.5370000004768372,-2.42963632395743
366.362069,,0.009603633243885317,366.425,0.5109999775886536,-2.485828033270485
366.827586,,0.009986961257892191,366.89,0.5120000243186951,-2.4832260825809973
367.29310300000003,,0.01035097893317126,367.355,0.531000018119812,-2.4414516732063625
367.758621,,0.01069354218809937,367.821,0.5419999957084656,-2.4171602558334673
368.224138,,0.011012490450506639,368.284,0.5139999985694885,-2.4778994959919878
368.689655,,0.011305653656766208,368.746,0.5109999775886536,-2.484244722127335
369.155172,,0.011570859589719122,369.214,0.527999997138977,-2.447094950315497
369.62068999999997,,0.01180594154418898,369.677,0.515999972820282,-2.473206948603715
370.086207,,0.01200874630720843,370.14,0.5210000276565552,-2.4623632157138395
370.55172400000004,,0.012177142438423782,370.61,0.515999972820282,-2.473385877258837
371.017241,,0.012309028834469795,371.076,0.47999998927116394,-2.5520225161669767
371.482759,,0.01240234355941938,371.535,0.5460000038146973,-2.4085063543456813
371.948276,,0.012455072921718019,372.0,0.5389999747276306,-2.4240904840575355
372.413793,,0.01246526077631585,372.469,0.5170000195503235,-2.4724017086556342
372.87931000000003,,0.012431018029017955,372.934,0.5149999856948853,-2.4771765084827027
373.344828,,0.012350532318391103,373.399,0.5419999957084656,-2.418793570515192
373.810345,,0.012222077848900349,373.864,0.5130000114440918,-2.482423899369326
374.275862,,0.012044025347307452,374.329,0.503000020980835,-2.5046555669992485
374.741379,,0.011814852112752586,374.795,0.5339999794960022,-2.4375448973535057
375.20689699999997,,0.011533152129368123,375.258,0.527999997138977,-2.4510122151723137
375.672414,,0.011197646208745705,375.721,0.5320000052452087,-2.4426485776155635
376.137931,,0.010807192128102983,376.192,0.5400000214576721,-2.4255149736917754
376.603448,,0.010360794728581913,376.654,0.5419999957084656,-2.4213887172706463
377.068966,,0.009857615936763892,377.122,0.6119999885559082,-2.269041322180473
377.53448299999997,,0.009296984671216348,377.584,0.531000018119812,-2.4455914005322925
378.0,,0.00867840659469835,378.05,0.531000018119812,-2.4455923726858084
378.465517,,0.008001573671557557,378.51,0.546999990940094,-2.410658339009243
378.931034,,0.0072663734888550715,378.975,0.5299999713897705,-2.4475458415761215
379.396552,,0.006472898298866543,379.44,0.5199999809265137,-2.4691147616629148
379.862069,,0.005621453739835212,379.906,0.515999972820282,-2.4775520598431116
380.327586,,0.004712567191202956,380.377,0.5419999957084656,-2.4205791153819733
380.79310300000003,,0.0037469957190269434,380.835,0.46799999475479126,-2.581431625147291
381.258621,,0.0027257335669095117,381.303,0.49399998784065247,-2.524393283151976
381.724138,,0.001650019147534822,381.766,0.5210000276565552,-2.465162558697269
382.189655,,0.00052134148982502,382.236,0.5230000019073486,-2.4603956781619956
382.655172,,0.0006585539031921582,382.699,0.5299999713897705,-2.44474488363572
383.12068999999997,,0.0018876598304663026,383.162,0.49000000953674316,-2.5315123716403343
383.586207,,0.0031637028472004556,383.625,0.515999972820282,-2.474523308962965
384.051724,,0.004484139440964643,384.09,0.5379999876022339,-2.4262923747302523
384.517241,,0.005846152972507665,384.561,0.515999972820282,-2.4739735027768144
384.982759,,0.007246651423154619,385.026,0.5370000004768372,-2.428031100153773
385.44827599999996,,0.008682265989509387,385.492,0.5239999890327454,-2.4562263830502613
385.913793,,0.010149350564813971,385.951,0.5040000081062317,-2.4997393330352553
386.37931,,0.011643982144746457,386.418,0.5230000019073486,-2.4583539511408365
386.84482799999995,,0.013161962193663458,386.883,0.5210000276565552,-2.462787742757605
387.310345,,0.014698819005308582,387.351,0.5339999794960022,-2.4346059544351664
387.775862,,0.01624981108981388,387.817,0.515999972820282,-2.474021084187004
388.241379,,0.01780993161641508,388.277,0.5239999890327454,-2.456843709358736
388.70689699999997,,0.019373913938683138,388.747,0.5239999890327454,-2.4571397659059278
389.172414,,0.020936238226245456,389.21,0.5270000100135803,-2.4509343084951656
389.637931,,0.022491139223930832,389.673,0.5410000085830688,-2.4207874078979064
390.103448,,0.0240326151560244,390.136,0.5210000276565552,-2.4647269379047243
390.56896600000005,,0.02555443778986344,390.606,0.49799999594688416,-2.515204567728923
391.03448299999997,,0.02705016366934809,391.065,0.5170000195503235,-2.474170513871044
391.5,,0.028513146525088944,391.536,0.5379999876022339,-2.4287594506354035
391.965517,,0.029936550863873423,392.002,0.5170000195503235,-2.4748207885105087
392.431034,,0.031313366735903334,392.465,0.5210000276565552,-2.466376449885142
392.896552,,0.03263642567384061,392.931,0.5379999876022339,-2.429562426742858
393.36206899999996,,0.03389841779311444,393.396,0.5170000195503235,-2.475483010773005
393.827586,,0.0350919100382187,393.862,0.5180000066757202,-2.4734154377821675
394.293103,,0.03620936555486908,394.322,0.5440000295639038,-2.416820761054406
394.75862099999995,,0.037243164162864474,394.787,0.5339999794960022,-2.4385952138954976
395.224138,,0.038185623899299394,395.255,0.5270000100135803,-2.4537722934765136
395.68965499999996,,0.0390290235964841,395.717,0.5249999761581421,-2.457998514597318
396.155172,,0.03976562645366023,396.18,0.5419999957084656,-2.4207771662285382
396.62069,,0.04038770455630695,396.651,0.5529999732971191,-2.3965802053518073
397.086207,,0.04088756429128295,397.122,0.5199999809265137,-2.4682037623014104
397.551724,,0.04125757260018755,397.576,0.47999998927116394,-2.555048537465707
398.017241,,0.041490184007624505,398.042,0.5040000081062317,-2.5024417214691055
398.48275900000004,,0.04157796835604958,398.507,0.5189999938011169,-2.4694343748079763
398.94827599999996,,0.04151363917407433,398.973,0.5410000085830688,-2.421176621905343
399.413793,,0.04129008259902796,399.44,0.5440000295639038,-2.4143221444583993
399.87931,,0.04090038676717136,399.905,0.515999972820282,-2.4750244380938398
400.344828,,0.04033787157919768,400.369,0.515999972820282,-2.4747527451424727
400.810345,,0.03959611874713101,400.835,0.515999972820282,-2.4745177513538072
401.27586199999996,,0.03866900202743384,401.295,0.531000018119812,-2.441645952179238
401.741379,,0.037550717535584345,401.765,0.5440000295639038,-2.413178951576311
402.206897,,0.036235814021149004,402.225,0.5210000276565552,-2.4631941345155886
402.672414,,0.034719222978177644,402.695,0.5210000276565552,-2.4631538944496296
403.137931,,0.032996288485373955,403.155,0.5180000066757202,-2.4697041087824925
403.60344799999996,,0.031062796684914993,403.625,0.531000018119812,-2.4414489837917634
404.068966,,0.02891500477067636,404.091,0.5299999713897705,-2.443744967440057
404.534483,,0.026549669287977258,404.554,0.5120000243186951,-2.4831235071662734
405.0,,0.023964073562739135,405.02,0.5249999761581421,-2.455004711554542
405.465517,,0.02115605422466028,405.484,0.5429999828338623,-2.4160258611271375
405.931034,,0.01812402686745181,405.95,0.5210000276565552,-2.4642180205877313
406.39655200000004,,0.014867010644906415,406.414,0.5170000195503235,-2.47321197830016
406.862069,,0.011384651241273068,406.879,0.5189999938011169,-2.4691432560834823
407.327586,,0.0076772418662568965,407.344,0.531000018119812,-2.4432880104840584
407.793103,,0.0037457428329580214,407.81,0.5440000295639038,-2.4152447447451495
408.258621,,0.0004081994348497454,408.273,0.5210000276565552,-2.4656148869524452
408.72413800000004,,0.004782234756235641,408.735,0.5130000114440918,-2.483280476434885
409.18965499999996,,0.009373295593259546,409.203,0.5249999761581421,-2.457342038159209
409.655172,,0.014177588327033457,409.666,0.5210000276565552,-2.4662247812331444
410.12069,,0.019190584854842,410.136,0.48100000619888306,-2.5534982044396823
410.586207,,0.024407009469373023,410.599,0.5440000295639038,-2.416326974222959
411.05172400000004,,0.029820826657648784,411.064,0.515999972820282,-2.4773663435712776
411.51724099999996,,0.035425244959028164,411.529,0.6060000061988831,-2.281275990514139
411.982759,,0.041212737635436335,411.994,0.5230000019073486,-2.4620429247277626
412.448276,,0.047175049879276815,412.459,0.5199999809265137,-2.4684729704759363
412.913793,,0.05330316709983584,412.925,0.5130000114440918,-2.4835783281290356
413.37931,,0.059587286453068836,413.391,0.5299999713897705,-2.446362220394007
413.844828,,0.06601687780116977,413.85,0.5210000276565552,-2.465762479031177
414.31034500000004,,0.07258081632959894,414.322,0.48399999737739563,-2.546144328971484
414.775862,,0.07926739557889351,414.78,0.5519999861717224,-2.397754774959315
415.241379,,0.08606410501203288,415.248,0.5210000276565552,-2.4650444582361546
415.706897,,0.09295747302489696,415.71,0.5419999957084656,-2.41904472975908
416.172414,,0.09993345377654991,416.18,0.531000018119812,-2.442769335835026
416.63793100000004,,0.10697812072926907,416.643,0.5049999952316284,-2.499189097401698
417.103448,,0.11407749409466923,417.109,0.5299999713897705,-2.4445203205925012
417.568966,,0.12121605417260752,417.574,0.5429999828338623,-2.4160228563701156
418.034483,,0.1283759947088807,418.04,0.527999997138977,-2.448559265890061
418.5,,0.13553977593337416,418.5,0.5419999957084656,-2.417950382216878
418.96551700000003,,0.1426937951253464,418.965,0.531000018119812,-2.441845755123518
419.43103399999995,,0.14982617049920915,419.432,0.5120000243186951,-2.483210367400836
419.896552,,0.15691753802046737,419.898,0.5419999957084656,-2.417861798366857
420.362069,,0.16393838548028322,420.364,0.5149999856948853,-2.476735437466951
420.827586,,0.1708659743513213,420.83,0.527999997138977,-2.44850028198289
421.293103,,0.17770344982635086,421.292,0.5210000276565552,-2.4638721186666204
421.758621,,0.18446042390011272,421.762,0.5210000276565552,-2.464023239081825
422.22413800000004,,0.19109833086300954,422.225,0.5299999713897705,-2.4445912227077966
422.689655,,0.19752690706302287,422.687,0.515999972820282,-2.4752867216336027
423.15517200000005,,0.2037138918924144,423.155,0.531000018119812,-2.4428138147132525
423.62069,,0.20977992212622812,423.618,0.5059999823570251,-2.4974932056543153
424.086207,,0.21584880526325384,424.083,0.5260000228881836,-2.454133039914616
424.55172400000004,,0.221733108058123,424.547,0.5370000004768372,-2.4303737036957056
425.017241,,0.22699137977828918,425.013,0.5260000228881836,-2.4545306754422276
425.482759,,0.23162045656519795,425.477,0.5299999713897705,-2.4459887347828704
425.948276,,0.23649018630598764,425.943,0.5180000066757202,-2.4722810650956157
426.413793,,0.24226679787812458,426.41,0.5289999842643738,-2.448436790587636
426.87931000000003,,0.24766033449116412,426.876,0.531000018119812,-2.444169108623018
427.344828,,0.25024063357482745,427.341,0.5170000195503235,-2.4747266544944817
427.810345,,0.2506919639588404,427.806,0.5299999713897705,-2.446426773532391
428.275862,,0.2545282796387974,428.269,0.5239999890327454,-2.4594870112553324
428.741379,,0.2647102990874964,428.731,0.5049999952316284,-2.500837063958639
429.20689699999997,,0.27222912500965935,429.199,0.5270000100135803,-2.452832294753417
429.672414,,0.26381198234179115,429.662,0.4410000145435333,-2.6400955315941084
430.137931,,0.2476013234214264,430.125,0.5170000195503235,-2.474396429331999
430.603448,,0.2580882825318786,430.595,0.5260000228881836,-2.4546483318029617
431.068966,,0.30626502987103393,431.061,0.503000020980835,-2.5046016822116393
431.534483,,0.32107226131123207,431.525,0.5230000019073486,-2.4608629716877086
432.0,,0.18032288099834845,431.99,0.515999972820282,-2.4759424747887753
432.46551700000003,,0.1680162077963698,432.455,0.5130000114440918,-2.4823069177187542
432.931034,,0.6362808049646947,432.92,0.5339999794960022,-2.4363884466816748
433.396552,,1.0767278740371367,433.381,0.5139999985694885,-2.4798033880276473
433.862069,,1.4109839845527725,433.846,0.5210000276565552,-2.464408305759256
434.327586,,1.6531971584694478,434.318,0.5329999923706055,-2.43813745175859
434.79310300000003,,1.8295638266891272,434.776,0.5139999985694885,-2.4794250846315236
435.258621,,1.923830907804383,435.24,0.5429999828338623,-2.4161606877901516
435.724138,,1.9109751724510886,435.709,0.5419999957084656,-2.4182800636129462
436.189655,,1.8101004408835604,436.17,0.4869999885559082,-2.5380726923190045
436.655172,,1.6757362230009971,436.639,0.5350000262260437,-2.4334921834225205
437.12068999999997,,1.5427080056599725,437.105,0.5440000295639038,-2.413905639736321
437.586207,,1.3982326138152255,437.569,0.5329999923706055,-2.43791663118851
438.051724,,1.210251580849745,438.035,0.5170000195503235,-2.4728440043570625
438.517241,,0.9703138508400111,438.499,0.5180000066757202,-2.470756145064042
438.982759,,0.7019158676455672,438.965,0.5419999957084656,-2.418577954675925
439.448276,,0.43379132912523294,439.425,0.5260000228881836,-2.4535602371259384
439.913793,,0.17542730095130468,439.891,0.5170000195503235,-2.473303205919062
440.37931000000003,,0.07840369357538414,440.355,0.5199999809265137,-2.4669102225195365
440.844828,,0.32631671262322737,440.82,0.5289999842643738,-2.4474487612162297
441.310345,,0.5562574297279931,441.288,0.5230000019073486,-2.4606660615806373
441.775862,,0.7703763624170671,441.75,0.5239999890327454,-2.4586279016198955
442.241379,,1.0060172282327318,442.218,0.515999972820282,-2.476188971854545
442.70689699999997,,1.311961207093411,442.68,0.5289999842643738,-2.447986205931447
443.172414,,1.6920504035703927,443.151,0.5130000114440918,-2.4829488900308694
443.637931,,2.0805105398085493,443.613,0.550000011920929,-2.4024248574478886
444.103448,,2.385548047937473,444.079,0.5170000195503235,-2.474385303758307
444.568966,,2.5563628116387673,444.543,0.5210000276565552,-2.4657137633121207
445.03448299999997,,2.6024604704503504,445.008,0.5410000085830688,-2.4221611894828436
445.5,,2.556083632722142,445.475,0.5130000114440918,-2.483160542713376
445.965517,,2.4306687646645857,445.941,0.5239999890327454,-2.4591703818167647
446.431034,,2.216936099540004,446.4,0.5170000195503235,-2.4743748629061715
446.896552,,1.9064371536504463,446.865,0.5230000019073486,-2.4612376481662097
447.36206899999996,,1.508640715449401,447.332,0.5249999761581421,-2.4567976748396805
447.827586,,1.0463757166073395,447.798,0.5260000228881836,-2.4545211659147896
448.29310300000003,,0.5430269669391816,448.266,0.531000018119812,-2.4435178962240447
448.758621,,0.02122045285291865,448.729,0.47200000286102295,-2.5719400287665892
449.224138,,0.4880836360978146,449.192,0.515999972820282,-2.475957788417905
449.689655,,0.9471346495577098,449.662,0.5450000166893005,-2.412653831909349
450.155172,,1.3313144648766366,450.125,0.5210000276565552,-2.4648188766728687
450.62068999999997,,1.6425141624895898,450.588,0.515999972820282,-2.4755939157991373
451.086207,,1.8913721545197029,451.054,0.5199999809265137,-2.466768781355875
451.551724,,2.06763596893083,451.518,0.5460000038146973,-2.4100233896987766
452.017241,,2.142780378011816,451.984,0.527999997138977,-2.4491504681013003
452.482759,,2.108408985868814,452.451,0.5419999957084656,-2.418574696181758
452.94827599999996,,1.9999692996908243,452.916,0.5210000276565552,-2.4642675262258837
453.413793,,1.869691174216446,453.381,0.5170000195503235,-2.472941348323811
453.87931,,1.739367511054073,453.846,0.5299999713897705,-2.4445973721778014
454.344828,,1.5890947075981696,454.307,0.5289999842643738,-2.446773505599895
454.810345,,1.3908061317896783,454.776,0.5120000243186951,-2.48382712788794
455.27586199999996,,1.1435275392822675,455.24,0.5419999957084656,-2.4185030382799853
455.741379,,0.8731552676937933,455.702,0.5329999923706055,-2.4381631513103397
456.206897,,0.605002376907703,456.166,0.5360000133514404,-2.4316945883010783
456.672414,,0.3450105702350673,456.636,0.5099999904632568,-2.488420817877576
457.137931,,0.08908365980127651,457.101,0.5299999713897705,-2.4449414115242742
457.603448,,0.15762687705248712,457.565,0.5339999794960022,-2.436329753403633
458.06896600000005,,0.38401201787143363,458.03,0.5130000114440918,-2.482190856393676
458.53448299999997,,0.6009165007786955,458.495,0.5410000085830688,-2.4213021362231237
459.0,,0.8533879616655148,458.961,0.5270000100135803,-2.451917254573132
459.465517,,1.1841417119198212,459.426,0.5429999828338623,-2.417170307764541
459.931034,,1.5782072721562086,459.891,0.5049999952316284,-2.5000652250371145
460.39655200000004,,1.956873655191315,460.351,0.4959999918937683,-2.5197728423142487
460.86206899999996,,2.236900502242499,460.817,0.5270000100135803,-2.452325851210504
461.327586,,2.3892503491712875,461.284,0.5400000214576721,-2.424082352941192
461.793103,,2.433931045715479,461.747,0.5249999761581421,-2.4568260827930732
462.258621,,2.390733794107229,462.21,0.4339999854564667,-2.655132295436401
462.724138,,2.2529819221267164,462.68,0.5419999957084656,-2.4198728700380046
463.18965499999996,,2.007552307347145,463.143,0.5440000295639038,-2.415532308644566
463.655172,,1.6635069645695604,463.606,0.5379999876022339,-2.428600566084449
464.12069,,1.251529355704632,464.072,0.5540000200271606,-2.393717649767474
464.58620699999994,,0.7995720752357061,464.536,0.5230000019073486,-2.461211245283629
465.051724,,0.3174484386292274,465.001,0.5419999957084656,-2.4197538510916647
465.517241,,0.18990780895482887,465.466,0.5260000228881836,-2.4545324082672146
465.98275900000004,,0.6972609505820185,465.931,0.5249999761581421,-2.4566170609632483
466.448276,,1.157732454947215,466.396,0.5070000290870667,-2.495727395078709
466.913793,,1.5327074947042065,466.862,0.5299999713897705,-2.4455052903615817
467.37931,,1.8162640623176551,467.33,0.527999997138977,-2.449743714787322
467.844828,,2.0223366254485464,467.795,0.5370000004768372,-2.430014190558698
468.31034500000004,,2.15467412229108,468.258,0.5299999713897705,-2.445143396055338
468.77586199999996,,2.2026484082070543,468.721,0.5249999761581421,-2.455919013586022
469.241379,,2.1657887884927494,469.189,0.5230000019073486,-2.4601660332150956
469.706897,,2.0673518676453013,469.651,0.5270000100135803,-2.4513517613855873
470.172414,,1.9351638505307647,470.121,0.5299999713897705,-2.444729444258824
470.63793100000004,,1.777242843918824,470.584,0.5299999713897705,-2.4446584749996845
471.10344799999996,,1.585685552820636,471.05,0.5199999809265137,-2.466391661897955
471.568966,,1.359168983863721,471.51,0.5440000295639038,-2.414069903861447
472.034483,,1.1105209488146222,471.975,0.5360000133514404,-2.4314848130362545
472.5,,0.853351754136991,472.44,0.5329999923706055,-2.4380267289463475
472.965517,,0.5917211168559473,472.906,0.5320000052452087,-2.440231853648912
473.43103399999995,,0.32627641275298314,473.374,0.5210000276565552,-2.464243835180846
473.89655200000004,,0.06422500587615915,473.84,0.5329999923706055,-2.438166540260464
474.362069,,0.1830260672134551,474.302,0.5109999775886536,-2.4861813551655985
474.827586,,0.414816065649554,474.765,0.515999972820282,-2.4753890535976533
475.293103,,0.6538431752715455,475.236,0.515999972820282,-2.4755039872591076
475.758621,,0.9376139183367334,475.699,0.5109999775886536,-2.4865230413793427
476.22413800000004,,1.2855573935322435,476.166,0.515999972820282,-2.4757631140508547
476.689655,,1.6689394638710173,476.628,0.531000018119812,-2.443219931616125
477.155172,,2.0196865162504545,477.094,0.5299999713897705,-2.445534124449508
477.62069,,2.2759313950852946,477.556,0.5170000195503235,-2.473986759220012
478.086207,,2.4170113143560292,478.022,0.515999972820282,-2.4762873703819404
478.55172400000004,,2.453194250966651,478.491,0.5379999876022339,-2.42846671517702
479.01724099999996,,2.392619194888465,478.95,0.5199999809265137,-2.467776085658742
479.482759,,2.230182915523985,479.421,0.5210000276565552,-2.4656723659936897
479.948276,,1.9649156001968413,479.887,0.5339999794960022,-2.4374040985442678
480.413793,,1.6147029857923119,480.352,0.5389999747276306,-2.4265415696846637
480.87931000000003,,1.2070351760330473,480.81,0.5249999761581421,-2.4570487106257484
481.344828,,0.758476063184213,481.28,0.5099999904632568,-2.4897101325142
481.810345,,0.27087178438875914,481.743,0.5509999990463257,-2.400343231202219
482.275862,,0.24663467067364692,482.21,0.5149999856948853,-2.4787088160542736
482.74137900000005,,0.7558774666404915,482.672,0.5400000214576721,-2.4241549638794777
483.206897,,1.2017176219361911,483.14,0.5249999761581421,-2.456727925567681
483.672414,,1.550656172886463,483.603,0.5139999985694885,-2.4805700811955296
484.13793100000004,,1.809675414513684,484.068,0.5239999890327454,-2.4586485833069136
484.603448,,2.0008399853529344,484.532,0.5270000100135803,-2.451969088728235
485.068966,,2.124995382609941,484.998,0.5360000133514404,-2.4322129085513
485.534483,,2.162225192312684,485.463,0.5389999747276306,-2.4255277373611963
486.0,,2.107082019533155,485.929,0.5329999923706055,-2.4384535286292306
486.46551700000003,,1.9896922095872787,486.395,0.5450000166893005,-2.412171163771303
486.931034,,1.8521572198234773,486.861,0.5339999794960022,-2.436009483102985
487.396552,,1.7079675805267622,487.325,0.5270000100135803,-2.4511489215251268
487.862069,,1.5337502252465278,487.791,0.5419999957084656,-2.418377737744739
488.327586,,1.3029028454792495,488.251,0.5419999957084656,-2.4183083714208866
488.79310300000003,,1.0220737126236,488.722,0.5260000228881836,-2.453121829836573
489.258621,,0.7299236668269062,489.184,0.5320000052452087,-2.4400317619149985
489.724138,,0.46126296918973864,489.647,0.5210000276565552,-2.464006481476961
490.189655,,0.2187565705662196,490.114,0.5289999842643738,-2.446615059856638
490.655172,,0.016803304376100406,490.577,0.5260000228881836,-2.453215822057051
491.12069,,0.25672416096019607,491.042,0.4909999966621399,-2.529559702915411
491.586207,,0.49836556230359436,491.507,0.5120000243186951,-2.4839238057539883
492.05172400000004,,0.7488515871045943,491.973,0.5130000114440918,-2.481882220973577
492.517241,,1.0367862491216704,492.44,0.3529999852180481,-2.8306229468263564
492.982759,,1.3828876000903285,492.905,0.527999997138977,-2.4495337259300483
493.448276,,1.7608926358090655,493.37,0.5289999842643738,-2.4475380024568127
493.913793,,2.1022172694524657,493.835,0.5410000085830688,-2.421576025988864
494.37931000000003,,2.344233386155119,494.299,0.4950000047683716,-2.5219691668474407
494.844828,,2.46605271199095,494.761,0.5429999828338623,-2.4175575474495234
495.310345,,2.477059432051323,495.225,0.5260000228881836,-2.454740183470415
495.775862,,2.386439999389487,495.695,0.5210000276565552,-2.4657562657395533
496.241379,,2.1952687983685446,496.158,0.5170000195503235,-2.4745673356184077
496.70689699999997,,1.9104315401648426,496.621,0.5220000147819519,-2.4637410185705284
497.172414,,1.5516187840375786,497.086,0.5249999761581421,-2.4572400119986693
497.637931,,1.1392302431734993,497.556,0.5339999794960022,-2.4376332554245126
498.103448,,0.6804578145067023,498.015,0.5450000166893005,-2.413634538842548
498.568966,,0.17698243160235877,498.484,0.5419999957084656,-2.4201028505980693
499.03448299999997,,0.34910867813244845,498.949,0.5210000276565552,-2.465754923010561
499.5,,0.8466597677990914,499.413,0.5339999794960022,-2.437305036291615
499.96551700000003,,1.2664809487827196,499.879,0.5149999856948853,-2.4785481009210755
500.431034,,1.5987587749733385,500.344,0.421999990940094,-2.6809945894967315
500.89655200000004,,1.8643754934956085,500.81,0.5329999923706055,-2.4389871562840133
501.362069,,2.0673781514933793,501.273,0.5249999761581421,-2.456232882757839
501.827586,,2.1756629885758274,501.736,0.531000018119812,-2.442975157018996
502.293103,,2.1630945068944203,502.206,0.515999972820282,-2.4754731239392456
502.758621,,2.0580263379076684,502.669,0.5329999923706055,-2.438263988071666
503.224138,,1.9276708060858783,503.137,0.5260000228881836,-2.453357537382578
503.68965499999996,,1.8124639942742695,503.6,0.5339999794960022,-2.4357915264843473
504.15517200000005,,1.690902129042676,504.065,0.5180000066757202,-2.4705375922331156
504.62068999999997,,1.5140018469535805,504.525,0.5270000100135803,-2.450846158859366
505.08620699999994,,1.2640347418519466,504.991,0.515999972820282,-2.474759506803472
505.55172400000004,,0.973008873808758,505.455,0.5270000100135803,-2.4507760176136677
506.017241,,0.6893404790098023,505.921,0.5329999923706055,-2.437719982200635
506.48275899999993,,0.4346486508602456,506.388,0.5379999876022339,-2.4268758530448613
506.948276,,0.19543799451945223,506.854,0.4959999918937683,-2.518460663402529
507.413793,,0.04814596290628525,507.321,0.5170000195503235,-2.4728216841935713
507.87931,,0.2961942022849694,507.78,0.5339999794960022,-2.43592489622585
508.344828,,0.5391834134063915,508.247,0.5329999923706055,-2.4382658049660106
508.810345,,0.7885992691098381,508.71,0.5170000195503235,-2.4733035308317217
509.27586199999996,,1.0802577355018543,509.181,0.515999972820282,-2.475673822623416
509.74137900000005,,1.4342969238134762,509.643,0.5210000276565552,-2.4649783536702703
510.20689699999997,,1.8164018302670228,510.109,0.527999997138977,-2.449925544897592
510.67241399999995,,2.1513480644589853,510.575,0.5249999761581421,-2.4566523595203256
511.13793100000004,,2.3760998136272984,511.04,0.515999972820282,-2.476438191806593
511.603448,,2.472572129115085,511.506,0.5210000276565552,-2.4657044969036255
512.0689659999999,,2.454222120557437,511.972,0.5329999923706055,-2.439696668376883
512.534483,,2.3378382498009107,512.436,0.5299999713897705,-2.4463397691130395
513.0,,2.132458302573917,512.902,0.515999972820282,-2.4769157275457343
513.465517,,1.842566185529727,513.366,0.5519999861717224,-2.3985242769995017
513.931034,,1.472783641843011,513.825,0.5360000133514404,-2.43338536729237
514.396552,,1.0327651126132273,514.295,0.515999972820282,-2.4769240347680155
514.862069,,0.5424063741433369,514.758,0.5120000243186951,-2.485568994154293
515.327586,,0.032348443770397056,515.221,0.5379999876022339,-2.4288216269916916
515.793103,,0.4626995364525955,515.691,0.4690000116825104,-2.5790162455853856
516.258621,,0.9146860469791076,516.155,0.4950000047683716,-2.5222153216263776
516.724138,,1.3104943543942904,516.617,0.515999972820282,-2.4762884269693615
517.189655,,1.6492281695706175,517.083,0.5339999794960022,-2.4368818299988
517.655172,,1.9258759921460664,517.546,0.5149999856948853,-2.4780748013250298
518.1206900000001,,2.116927339070698,518.011,0.531000018119812,-2.4430108092663803
518.5862070000001,,2.192509540034269,518.477,0.5139999985694885,-2.479844626134935
519.051724,,2.1521574935688736,518.942,0.5080000162124634,-2.4927222977008414
519.517241,,2.041638854920008,519.407,0.5419999957084656,-2.418469179815287
519.982759,,1.9196613955803157,519.873,0.5350000262260437,-2.433560321297167
520.448276,,1.8056174749499603,520.34,0.5379999876022339,-2.426889574728723
520.9137929999999,,1.668250669795329,520.806,0.46799999475479126,-2.579290342834324
521.37931,,1.467384447298898,521.266,0.5370000004768372,-2.428893885920615
521.844828,,1.200950177558877,521.736,0.5180000066757202,-2.470255081083757
522.310345,,0.9089670527270497,522.199,0.5490000247955322,-2.4027204335971453
522.7758620000001,,0.635277056821118,522.661,0.5199999809265137,-2.465941426953534
523.241379,,0.3900991762406567,523.129,0.5329999923706055,-2.4376949006856816
523.7068969999999,,0.1520508077100355,523.592,0.5440000295639038,-2.4138392859500164
524.172414,,0.09713554659563736,524.057,0.5210000276565552,-2.4640881818716234
524.637931,,0.34997775952127946,524.522,0.5379999876022339,-2.4272178410938623
525.103448,,0.5924736497364301,524.987,0.5180000066757202,-2.4709793255161197
525.568966,,0.8400966837176079,525.452,0.515999972820282,-2.475542036484005
526.034483,,1.1364026281431858,525.918,0.5230000019073486,-2.4605077026666278
526.5,,1.5017243387603227,526.384,0.5180000066757202,-2.4716214267490773
526.9655170000001,,1.88904103837715,526.85,0.5540000200271606,-2.3934073180132636
527.4310340000001,,2.2071325244896713,527.315,0.5540000200271606,-2.3936134158232836
527.8965519999999,,2.391579518773519,527.781,0.5210000276565552,-2.465697249850808
528.362069,,2.445014203934123,528.244,0.5529999732971191,-2.3961460922940745
528.827586,,2.4078856758561007,528.706,0.5540000200271606,-2.3941041078819314
529.293103,,2.302185510086506,529.17,0.5370000004768372,-2.431244572179752
529.7586210000001,,2.1116810286607715,529.64,0.550000011920929,-2.40298918519248
530.224138,,1.811507874317381,530.105,0.546999990940094,-2.4095536572625442
530.689655,,1.4057551571434221,530.569,0.5389999747276306,-2.4269717975783363
531.155172,,0.9311629879234371,531.034,0.5260000228881836,-2.455244312670515
531.62069,,0.43030795688374707,531.499,0.5630000233650208,-2.3745471083058636
532.086207,,0.06926208700439061,531.964,0.5299999713897705,-2.4463201557020886
532.5517239999999,,0.5507108681335847,532.429,0.546999990940094,-2.4091291791905123
533.017241,,0.9961551742986852,532.894,0.5339999794960022,-2.437271224918211
533.482759,,1.3884008250778808,533.359,0.5419999957084656,-2.4196405589322914
533.9482760000001,,1.7178928437452192,533.824,0.5320000052452087,-2.4412108515117854
534.413793,,1.9755216617158307,534.285,0.5540000200271606,-2.3930560363168127
534.87931,,2.1399200386560975,534.754,0.5540000200271606,-2.392829462797696
535.344828,,2.18865407196857,535.218,0.550000011920929,-2.4013220765536767
535.810345,,2.131124936858552,535.68,0.5680000185966492,-2.36189564994655
536.275862,,2.0176353154330364,536.148,0.5529999732971191,-2.394382313177532
536.7413789999999,,1.899756357736297,536.61,0.5709999799728394,-2.3549969900899983
537.206897,,1.783280429260111,537.076,0.5540000200271606,-2.3918932387130654
537.672414,,1.6305536725171546,537.542,0.5870000123977661,-2.319890339948609
538.137931,,1.4097831669155607,538.007,0.5879999995231628,-2.317640144958614
538.6034480000001,,1.1344917330905255,538.473,0.5669999718666077,-2.3633585265074983
539.0689659999999,,0.8507305717292061,538.939,0.5889999866485596,-2.3154350097320684
539.5344829999999,,0.5902939677361391,539.403,0.5929999947547913,-2.306767106353266
540.0,,0.3459020069928174,539.868,0.5920000076293945,-2.309030929603527
540.465517,,0.09590068670156855,540.333,0.5789999961853027,-2.3374752689602123
540.931034,,0.15766191133241395,540.798,0.5920000076293945,-2.309308476704189
541.396552,,0.39285675607953474,541.262,0.5960000157356262,-2.3007788317758755
541.862069,,0.6126365356660745,541.732,0.5910000205039978,-2.3118809310458093
542.327586,,0.8668990857557795,542.195,0.5989999771118164,-2.2946786837581636
542.7931030000001,,1.2072054411614777,542.658,0.5669999718666077,-2.364634237502351
543.258621,,1.6175035734241334,543.121,0.5360000133514404,-2.432417672576245
543.7241379999999,,2.007108660152171,543.591,0.6129999756813049,-2.2649068680111717
544.189655,,2.282140059621894,544.05,0.6259999871253967,-2.236819288328049
544.655172,,2.4156099073469797,544.522,0.5989999771118164,-2.2958589314864115
545.12069,,2.4426227065054964,544.98,0.6299999952316284,-2.228511630387549
545.5862070000001,,2.400298077809673,545.447,0.6460000276565552,-2.1938119668333873
546.051724,,2.286204641974511,545.913,0.625,-2.239684679558176
546.517241,,2.0716645291348876,546.377,0.6499999761581421,-2.185298006584446
546.982759,,1.7422343029101734,546.842,0.6179999709129333,-2.2550503724998157
547.448276,,1.3184943812462362,547.315,0.6039999723434448,-2.2855429852324494
547.9137929999999,,0.8412219287716088,547.774,0.625,-2.23973971039236
548.3793099999999,,0.34452050188322536,548.236,0.6449999809265137,-2.1960726842945877
548.844828,,0.15268609897915028,548.706,0.6069999933242798,-2.278727106915634
549.310345,,0.6346291131369116,549.166,0.6100000143051147,-2.2720217707817234
549.775862,,1.0793073116652272,549.635,0.5920000076293945,-2.3110390239809635
550.241379,,1.465387610844569,550.101,0.6539999842643738,-2.17574065888293
550.706897,,1.7807276082119328,550.564,0.6190000176429749,-2.2517527387133263
551.172414,,2.0152109336499833,551.03,0.6320000290870667,-2.2231784195741797
551.637931,,2.15111005503792,551.495,0.6129999756813049,-2.2643178484267756
552.103448,,2.1765983433028357,551.96,0.6460000276565552,-2.1921716763825354
552.568966,,2.1111885849797463,552.425,0.628000020980835,-2.2311481898603143
553.034483,,2.0019566164915505,552.891,0.6209999918937683,-2.2461785360896327
553.5,,1.8848276966161843,553.355,0.6330000162124634,-2.219840482079766
553.965517,,1.7568278285078265,553.82,0.6150000095367432,-2.2588940272819698
554.4310340000001,,1.5915903968188427,554.281,0.6169999837875366,-2.254412123967512
554.896552,,1.37403299971599,554.751,0.6169999837875366,-2.254329113365449
555.3620689999999,,1.1138123779144757,555.214,0.6579999923706055,-2.164964935878662
555.827586,,0.8324167262934541,555.676,0.6060000061988831,-2.278259352862321
556.293103,,0.5476201229898158,556.144,0.6190000176429749,-2.249986733597468
556.758621,,0.27098008390160605,556.606,0.6039999723434448,-2.2827609629170746
557.224138,,0.012920167443915467,557.072,0.6370000243186951,-2.2110013014506182
557.689655,,0.2176874779729559,557.536,0.6060000061988831,-2.2787124045159644
558.155172,,0.4255916041406125,558.001,0.6190000176429749,-2.250595040372399
558.6206900000001,,0.6430407432037258,558.465,0.6019999980926514,-2.287863592750746
559.0862070000001,,0.9205895775657199,558.931,0.5879999995231628,-2.3186161295747443
559.5517239999999,,1.2840433114088892,559.396,0.6190000176429749,-2.251341936352143
560.017241,,1.693696159470655,559.861,0.6069999933242798,-2.277753436993337
560.482759,,2.059268750723021,560.325,0.6000000238418579,-2.2932669331967834
560.948276,,2.306071363180413,560.791,0.5540000200271606,-2.3937363071219546
561.413793,,2.423014537681906,561.262,0.6039999723434448,-2.285036901553237
561.87931,,2.44406731919483,561.724,0.625,-2.2394907397295984
562.344828,,2.3936285448407806,562.192,0.6060000061988831,-2.281055135424161
562.8103450000001,,2.2595628424061527,562.654,0.6079999804496765,-2.2768272051411222
563.275862,,2.0154256610445107,563.118,0.5910000205039978,-2.313948979980031
563.7413789999999,,1.658209541920397,563.58,0.6039999723434448,-2.2856643823332234
564.206897,,1.219129975714681,564.046,0.6010000109672546,-2.2921892761857348
564.672414,,0.740733523366804,564.511,0.5789999961853027,-2.340060197208876
565.137931,,0.2500651238338547,564.976,0.550000011920929,-2.4031360951282665
565.603448,,0.24263007680188312,565.443,0.5540000200271606,-2.3942753872354263
566.068966,,0.7235856518383151,565.909,0.5540000200271606,-2.3940925897232246
566.534483,,1.1643010875196083,566.377,0.5419999957084656,-2.4200222597681185
567.0,,1.5363431313815854,566.835,0.550000011920929,-2.402353879846711
567.465517,,1.8301706324492564,567.303,0.5400000214576721,-2.4238831682071003
567.931034,,2.047701932244273,567.766,0.546999990940094,-2.408364930694774
568.396552,,2.179198341896151,568.236,0.546999990940094,-2.408094199463845
568.862069,,2.204649398265375,568.699,0.5230000019073486,-2.460116151118998
569.327586,,2.125694694253589,569.166,0.5460000038146973,-2.4097548391252737
569.793103,,1.9837980016629757,569.628,0.515999972820282,-2.474882640464843
570.2586210000001,,1.8326060592699283,570.094,0.5339999794960022,-2.4354628309485804
570.724138,,1.6923963071978831,570.556,0.5339999794960022,-2.4352920782674445
571.189655,,1.53859777063062,571.022,0.5210000276565552,-2.463481783005018
571.655172,,1.3351441435618914,571.489,0.4519999921321869,-2.61371967469048
572.12069,,1.0734827608940039,571.954,0.515999972820282,-2.474244886288829
572.586207,,0.7785736696749601,572.421,0.5210000276565552,-2.4633577021884623
573.051724,,0.48470537315265516,572.886,0.5299999713897705,-2.443801596156376
573.517241,,0.21252004068886152,573.351,0.5239999890327454,-2.456968391120994
573.982759,,0.03313316958907662,573.81,0.5180000066757202,-2.470175653564838
574.4482760000001,,0.25496157933808067,574.28,0.4339999854564667,-2.653355840996498
574.913793,,0.46562776349641494,574.743,0.5130000114440918,-2.481450767570174
575.37931,,0.6984449477453868,575.207,0.5109999775886536,-2.4860433543099023
575.844828,,0.9970988811777896,575.677,0.5070000290870667,-2.495011484626773
576.310345,,1.3736252913027185,576.14,0.5299999713897705,-2.4451668228474857
576.775862,,1.7766302841957613,576.602,0.5070000290870667,-2.4955419758314923
577.241379,,2.1179423316028436,577.068,0.527999997138977,-2.4500510578180985
577.706897,,2.338138940276634,577.532,0.5049999952316284,-2.500407316553261
578.172414,,2.439254111817965,577.998,0.5170000195503235,-2.474490475585866
578.6379310000001,,2.4529221060793245,578.462,0.5260000228881836,-2.455082542774732
579.1034480000001,,2.3897521085593194,578.928,0.5009999871253967,-2.5097158701493827
579.5689659999999,,2.2297286557380755,579.392,0.5049999952316284,-2.5011313714578165
580.034483,,1.955631202788897,579.858,0.503000020980835,-2.5055786036097625
580.5,,1.5811480659756576,580.325,0.5040000081062317,-2.5034474403672804
580.965517,,1.1403476067369822,580.791,0.5009999871253967,-2.5099872822698144
581.431034,,0.6588339349347251,581.251,0.5099999904632568,-2.4903397376142085
581.896552,,0.14863892078444893,581.721,0.5149999856948853,-2.479364300448479
582.362069,,0.3682432781827394,582.184,0.5260000228881836,-2.455276459509306
582.827586,,0.8476240580626482,582.647,0.527999997138977,-2.450759480973077
583.2931030000001,,1.249559947197684,583.113,0.5049999952316284,-2.5006766557445124
583.758621,,1.572458056900343,583.576,0.47999998927116394,-2.5549262828790225
584.2241379999999,,1.8430152295144746,584.042,0.4970000088214874,-2.517655341975611
584.689655,,2.067033507516915,584.507,0.4970000088214874,-2.517411054110897
585.155172,,2.2063097354884493,584.973,0.5249999761581421,-2.4561606001489316
585.6206900000001,,2.218912015531896,585.44,0.48899999260902405,-2.534346426499812
586.0862070000001,,2.1156679535738205,585.906,0.5109999775886536,-2.4861810511366196
586.551724,,1.960930068965824,586.37,0.5130000114440918,-2.4816055321934956
587.017241,,1.8144867253088959,586.836,0.5419999957084656,-2.41822878070196
587.482759,,1.6812748565782965,587.299,0.5389999747276306,-2.4245955212434516
587.948276,,1.520924768023512,587.761,0.5230000019073486,-2.4593160006412504
588.4137929999999,,1.2983516305915963,588.229,0.5360000133514404,-2.4308914510465014
588.87931,,1.018537068783593,588.692,0.5040000081062317,-2.5005452629537266
589.344828,,0.7174582635484348,589.155,0.5130000114440918,-2.4809161394284214
589.810345,,0.4299383587365105,589.624,0.5049999952316284,-2.4983667923487434
590.2758620000001,,0.1697136943174653,590.09,0.5170000195503235,-2.4722862946011452
590.741379,,0.06614649181811588,590.552,0.515999972820282,-2.4745681146889926
591.2068969999999,,0.2856010021346227,591.017,0.4359999895095825,-2.649001031141916
591.672414,,0.5039860924707524,591.484,0.5210000276565552,-2.463991903711259
592.137931,,0.7535219371195205,591.95,0.5049999952316284,-2.4990549046359987
592.603448,,1.0701428124340138,592.414,0.515999972820282,-2.4753153522539453
593.068966,,1.4544011288639023,592.879,0.5139999985694885,-2.479912244679587
593.534483,,1.8505117718390662,593.344,0.4860000014305115,-2.5411613616122937
594.0,,2.1777892199278837,593.81,0.5189999938011169,-2.4695132511540727
594.4655170000001,,2.3844488713175105,594.273,0.5149999856948853,-2.4784674682418513
594.9310340000001,,2.467450289390048,594.735,0.5339999794960022,-2.4372970719147165
595.3965519999999,,2.4489114055049623,595.203,0.49900001287460327,-2.5137513461628136
595.862069,,2.3463835659111454,595.665,0.5339999794960022,-2.437672384527755
596.327586,,2.163676492863608,596.136,0.546999990940094,-2.409489716542769
596.793103,,1.8962236283405374,596.598,0.5230000019073486,-2.461878497722427
597.2586210000001,,1.5389133949271045,597.064,0.5109999775886536,-2.4880831014126517
597.724138,,1.0947705757931443,597.529,0.515999972820282,-2.4772094440334063
598.189655,,0.5831836875587654,597.994,0.5180000066757202,-2.4728301824954744
598.655172,,0.04213536014995777,598.458,0.5130000114440918,-2.483660932747073
599.12069,,0.4790683074199238,598.924,0.531000018119812,-2.44434410924224
599.586207,,0.9372011181050733,599.391,0.5540000200271606,-2.394097689812405
600.0517239999999,,1.316385200756729,599.85,0.5130000114440918,-2.4832524329716557
600.517241,,1.6324820821527388,600.321,0.5149999856948853,-2.478699305883569
600.982759,,1.9047568539124782,600.78,0.5460000038146973,-2.410945482268134
601.448276,,2.118623081928154,601.247,0.4950000047683716,-2.5218275737756137
601.913793,,2.22803340348797,601.71,0.5299999713897705,-2.445340232513478
602.37931,,2.2052059984248165,602.181,0.5210000276565552,-2.4647145223006093
602.844828,,2.0819227546542542,602.643,0.5070000290870667,-2.494990400908681
603.310345,,1.9292185101871657,603.109,0.5210000276565552,-2.4642794706328046
603.775862,,1.7944295039501066,603.574,0.531000018119812,-2.4423042492047844
604.2413789999999,,1.6646733271271597,604.039,0.5540000200271606,-2.3920320851591312
604.706897,,1.492634832230223,604.506,0.5139999985694885,-2.4790448077104297
605.172414,,1.2507459133153052,604.965,0.5270000100135803,-2.4506236145760365
605.637931,,0.9572607783235016,605.436,0.5199999809265137,-2.465813206551241
606.1034480000001,,0.6563278904090876,605.895,0.5199999809265137,-2.4657915195345934
606.5689659999999,,0.38007543246509806,606.362,0.5299999713897705,-2.4440230340119142
607.0344829999999,,0.13087685911301253,606.828,0.4959999918937683,-2.518154184515
607.5,,0.10401228628431206,607.295,0.515999972820282,-2.4746762238209503
607.965517,,0.3305719382628177,607.758,0.5199999809265137,-2.466091126028797
608.431034,,0.5527628061968152,608.226,0.5130000114440918,-2.4815010792071805
608.896552,,0.7970782630358259,608.688,0.515999972820282,-2.4751497094541177
609.362069,,1.1090849521625314,609.151,0.5120000243186951,-2.4840679977659605
609.827586,,1.5035808704934304,609.621,0.5109999775886536,-2.486463615757352
610.293103,,1.9226064216518906,610.086,0.4959999918937683,-2.5193669220408896
610.758621,,2.2629632751206774,610.549,0.5360000133514404,-2.432444165341643
611.2241379999999,,2.452766670202262,611.015,0.503000020980835,-2.50455503634742
611.689655,,2.4948929625613423,611.48,0.5170000195503235,-2.474255268850927
612.155172,,2.4376487210662123,611.945,0.5049999952316284,-2.500580509490271
612.62069,,2.3165406489504283,612.41,0.492000013589859,-2.5290593596010487
613.0862070000001,,2.1287353679358145,612.876,0.49799999594688416,-2.5161149271922114
613.551724,,1.8512965697799624,613.34,0.503000020980835,-2.5053161571065132
614.017241,,1.471778100630665,613.805,0.49000000953674316,-2.5336974075334635
614.4827590000001,,1.002795337017624,614.266,0.5040000081062317,-2.5032177810474066
614.948276,,0.4774701647887439,614.736,0.5099999904632568,-2.4901290816822095
615.4137929999999,,0.06112375106012869,615.196,0.4909999966621399,-2.5314687094887502
615.8793099999999,,0.5685073379650252,615.665,0.49000000953674316,-2.533557134553867
616.344828,,1.0109249351180887,616.129,0.49799999594688416,-2.516005310548784
616.810345,,1.3808969303871172,616.591,0.4690000116825104,-2.579034997638597
617.275862,,1.6954777462956525,617.057,0.4959999918937683,-2.5200369714986133
617.741379,,1.9649895092323972,617.522,0.48100000619888306,-2.5525237676811825
618.206897,,2.1629336130693484,617.987,0.48500001430511475,-2.543603617750187
618.672414,,2.241874591267758,618.455,0.4830000102519989,-2.5477490459869654
619.137931,,2.188110932011018,618.921,0.49000000953674316,-2.5322864171511994
619.603448,,2.051137618813304,619.381,0.47600001096725464,-2.5625814939193865
620.068966,,1.9049684741297592,619.846,0.46700000762939453,-2.5819960085375873
620.534483,,1.7803265802219672,620.314,0.4650000035762787,-2.586178907354476
621.0,,1.6451644703881376,620.78,0.49000000953674316,-2.5315619585535893
621.465517,,1.453027148291263,621.24,0.4749999940395355,-2.564118365916208
621.9310340000001,,1.1983084826114696,621.71,0.4819999933242798,-2.5487751823768265
622.396552,,0.9163020604952585,622.173,0.4620000123977661,-2.5922891020356995
622.862069,,0.638788758840025,622.636,0.4790000021457672,-2.5552284686806988
623.327586,,0.36642115171752054,623.101,0.49000000953674316,-2.5312750555999033
623.793103,,0.08918493078709566,623.572,0.48500001430511475,-2.542214149528081
624.258621,,0.18037657511985516,624.03,0.47999998927116394,-2.5531859057202912
624.724138,,0.41474678637579787,624.496,0.4860000014305115,-2.540222688725376
625.189655,,0.6180248585484318,624.962,0.4880000054836273,-2.5360007975737857
625.655172,,0.8487586300720941,625.429,0.49000000953674316,-2.5318012833955086
626.1206900000001,,1.1736032190916783,625.895,0.3869999945163727,-2.7563794536078494
626.5862070000001,,1.5910263356861987,626.355,0.46399998664855957,-2.5888173012171993
627.0517239999999,,2.0114343459356085,626.82,0.4749999940395355,-2.565055519996465
627.5172409999999,,2.3225311333444414,627.288,0.4950000047683716,-2.5216870660112236
627.982759,,2.4724584804266048,627.751,0.4620000123977661,-2.593781720678551
628.448276,,2.487621233642442,628.221,0.46399998664855957,-2.5896133016770375
628.913793,,2.421111272313277,628.684,0.45500001311302185,-2.609394600444208
629.37931,,2.296663116554674,629.152,0.47200000286102295,-2.572510637023529
629.844828,,2.09838237662349,629.614,0.4650000035762787,-2.5878889153051463
630.3103450000001,,1.7993394776041758,630.079,0.43700000643730164,-2.64899022265314
630.7758620000001,,1.3930505602104568,630.543,0.45100000500679016,-2.618557683866592
631.2413789999999,,0.902922433671273,631.009,0.46700000762939453,-2.583734929235082
631.706897,,0.3705692809959829,631.47,0.46799999475479126,-2.5815570952494897
632.172414,,0.15979545236587742,631.936,0.46000000834465027,-2.5989519831430927
632.637931,,0.6507035400552449,632.403,0.46000000834465027,-2.5988839510099213
633.103448,,1.079639651526718,632.869,0.46700000762939453,-2.5835336727035982
633.568966,,1.4456227885783706,633.336,0.3840000033378601,-2.7642343947304484
634.034483,,1.7592601691286327,633.795,0.46299999952316284,-2.591971745915042
634.5,,2.01656261416121,634.262,0.46000000834465027,-2.598339099775888
634.9655170000001,,2.187654826430893,634.725,0.4690000116825104,-2.5785467988293114
635.431034,,2.2426106151121457,635.195,0.4819999933242798,-2.5500288965583766
635.8965519999999,,2.187954333755751,635.658,0.4690000116825104,-2.578150043026347
636.362069,,2.0675169066843098,636.121,0.45100000500679016,-2.6171652501140397
636.827586,,1.9245574514953188,636.591,0.45100000500679016,-2.6169723763773654
637.293103,,1.7703487632926338,637.05,0.45899999141693115,-2.599363872588993
637.7586210000001,,1.5914821415666327,637.522,0.4650000035762787,-2.5861310631475347
638.224138,,1.3776168162020654,637.98,0.4580000042915344,-2.601243723490302
638.689655,,1.1342805914557035,638.447,0.4659999907016754,-2.5837038158933554
639.155172,,0.8733313813712928,638.913,0.45899999141693115,-2.5988740683431164
639.62069,,0.6003678545007246,639.377,0.4519999921321869,-2.614077483107659
640.086207,,0.31665414104849327,639.842,0.460999995470047,-2.594457383921768
640.551724,,0.03309671323540309,640.307,0.45100000500679016,-2.6162669264617153
641.017241,,0.22528094550614874,640.776,0.45500001311302185,-2.6076102415824858
641.482759,,0.4421758696846111,641.236,0.46399998664855957,-2.5880934790191685
641.9482760000001,,0.6434891110995948,641.706,0.45500001311302185,-2.6078225132091215
642.413793,,0.8959101183283075,642.17,0.45500001311302185,-2.6079706306681603
642.87931,,1.2512038449596496,642.632,0.46000000834465027,-2.5972481227769646
643.344828,,1.6834182191118046,643.098,0.45500001311302185,-2.6083295845079957
643.810345,,2.090810720341687,643.561,0.45100000500679016,-2.6172445381002256
644.275862,,2.370406702444749,644.027,0.4569999873638153,-2.604379330385844
644.7413789999999,,2.490400968152468,644.491,0.45899999141693115,-2.6002286497349267
645.206897,,2.489740778395597,644.957,0.46399998664855957,-2.589535572471799
645.672414,,2.4183564902866332,645.421,0.46399998664855957,-2.589723054726636
646.1379310000001,,2.287139937323729,645.887,0.45100000500679016,-2.61821479920194
646.6034480000001,,2.0696723398143715,646.352,0.4779999852180481,-2.5595374222329026
647.0689659999999,,1.7402809811848785,646.817,0.4650000035762787,-2.5879777814558307
647.534483,,1.3060799315679243,647.28,0.4620000123977661,-2.5946000122903996
648.0,,0.8046129007607279,647.75,0.46399998664855957,-2.5902951418030167
648.465517,,0.2767360417304595,648.21,0.45100000500679016,-2.6186346279368666
648.931034,,0.2495451987407352,648.68,0.45399999618530273,-2.612080357297825
649.396552,,0.7491241764094116,649.14,0.45100000500679016,-2.618563205947351
649.862069,,1.190144138947275,649.61,0.4620000123977661,-2.5945115984294342
650.327586,,1.548746302145558,650.076,0.45899999141693115,-2.6009299696012036
650.7931030000001,,1.827072550249798,650.541,0.4690000116825104,-2.578997780085336
651.258621,,2.0402583268779266,651.007,0.46399998664855957,-2.5897214383575804
651.7241379999999,,2.1850617588119086,651.466,0.4519999921321869,-2.615676806953589
652.189655,,2.237301934515393,651.932,0.44999998807907104,-2.6198330843032154
652.655172,,2.1866298473568744,652.399,0.47999998927116394,-2.554265636967974
653.12069,,2.0604458811021185,652.865,0.45100000500679016,-2.6172371411399715
653.5862070000001,,1.9027295845402454,653.325,0.47999998927116394,-2.553851938988813
654.051724,,1.7362892455936554,653.791,0.4169999957084656,-2.69091403595229
654.517241,,1.5540597962004383,654.262,0.46000000834465027,-2.597057688087363
654.982759,,1.3412730152827606,654.725,0.4779999852180481,-2.557690463189944
655.448276,,1.0959735717276855,655.188,0.46399998664855957,-2.5880660731207894
655.9137929999999,,0.8279922115412587,655.651,0.4440000057220459,-2.6315439826012237
656.37931,,0.5467681514437728,656.121,0.42399999499320984,-2.6750566624305616
656.844828,,0.25904122869203516,656.584,0.46399998664855957,-2.587887285146961
657.310345,,0.020666468147300804,657.05,0.48899999260902405,-2.5334336198522336
657.7758620000001,,0.26880296251228164,657.51,0.43299999833106995,-2.655485540867414
658.241379,,0.4778799593108008,657.976,0.45899999141693115,-2.59892300336359
658.7068969999999,,0.6856185142298588,658.44,0.46299999952316284,-2.5903230446647214
659.172414,,0.9617466821091982,658.906,0.4729999899864197,-2.568679345183523
659.637931,,1.3439827482357396,659.373,0.45899999141693115,-2.599346923133021
660.103448,,1.783548764986943,659.839,0.4830000102519989,-2.547244506695717
660.568966,,2.168866826258694,660.307,0.46799999475479126,-2.580122419624936
661.034483,,2.4123121695338297,660.769,0.46399998664855957,-2.5890425168305597
661.5,,2.507271740027479,661.236,0.47600001096725464,-2.5631057276424367
661.965517,,2.499145943254205,661.699,0.4650000035762787,-2.5872733333913462
662.4310340000001,,2.4183111469381102,662.162,0.453000009059906,-2.613609501077128
662.8965519999999,,2.255946300881144,662.625,0.47600001096725464,-2.5636775468207653
663.362069,,1.9947311050258236,663.09,0.4819999933242798,-2.5507613879067184
663.827586,,1.6407172651216988,663.56,0.4569999873638153,-2.6053573595884427
664.293103,,1.2174268515877613,664.026,0.4860000014305115,-2.542276811920077
664.7586210000001,,0.741120009485177,664.492,0.46399998664855957,-2.5902749526690463
665.224138,,0.21851116742611484,664.95,0.47999998927116394,-2.5554499730795324
665.689655,,0.32807343345008533,665.421,0.4749999940395355,-2.566341221619702
666.155172,,0.8467733464172688,665.887,0.492000013589859,-2.5292664680884736
666.62069,,1.2823286924892152,666.352,0.4790000021457672,-2.5575164768810352
667.086207,,1.6169715099602429,666.81,0.49000000953674316,-2.533446285222159
667.5517239999999,,1.8745086126347246,667.28,0.46399998664855957,-2.5899571347132984
668.017241,,2.0782900587522,667.742,0.44699999690055847,-2.6268361722834355
668.482759,,2.214578144476765,668.207,0.4880000054836273,-2.5373347490120417
668.948276,,2.249404718469089,668.676,0.47999998927116394,-2.554572556346255
669.413793,,2.1770564966448105,669.137,0.47699999809265137,-2.5609076641742625
669.87931,,2.036181672715008,669.606,0.4659999907016754,-2.5846689870901565
670.3448279999999,,1.874683440028708,670.072,0.49000000953674316,-2.53218052134447
670.810345,,1.710023702333298,670.535,0.4699999988079071,-2.5755612408550035
671.275862,,1.5282066885024577,671.001,0.4659999907016754,-2.584098113809953
671.7413789999999,,1.3113629907810056,671.46,0.47600001096725464,-2.5621538915550843
672.206897,,1.057603194060675,671.926,0.4860000014305115,-2.5402338620382965
672.672414,,0.7780956986681838,672.391,0.4729999899864197,-2.5684504185319286
673.137931,,0.4860692018430825,672.858,0.4880000054836273,-2.5356954359331194
673.6034480000001,,0.19553481680876683,673.322,0.4950000047683716,-2.5204020680814447
674.068966,,0.07428981041454646,673.788,0.47600001096725464,-2.5617869709539263
674.5344829999999,,0.30736379059178515,674.251,0.3970000147819519,-2.7339265455773476
675.0,,0.5135241328200123,674.721,0.48399999737739563,-2.544446956014773
675.465517,,0.7385715673123592,675.181,0.47600001096725464,-2.561971930383586
675.931034,,1.0368204028235082,675.65,0.4690000116825104,-2.57734705919791
676.396552,,1.4210201055994702,676.118,0.47200000286102295,-2.570961029292517
676.862069,,1.838442973522491,676.58,0.4650000035762787,-2.5863823793553276
677.327586,,2.201882276986204,677.046,0.43799999356269836,-2.645393192961849
677.793103,,2.4456765199396426,677.51,0.4869999885559082,-2.538837675942385
678.2586210000001,,2.552658458468926,677.976,0.48500001430511475,-2.5433969437351363
678.7241379999999,,2.5380039201543694,678.44,0.48899999260902405,-2.5348811728514855
679.1896549999999,,2.4214046285881143,678.906,0.49000000953674316,-2.5328919744178138
679.655172,,2.215511380098074,679.37,0.49000000953674316,-2.5330664885872465
680.12069,,1.9288633909355588,679.836,0.47600001096725464,-2.5637223008083376
680.5862070000001,,1.5690568629870882,680.299,0.47999998927116394,-2.555138723916416
681.051724,,1.1411048228624547,680.761,0.4659999907016754,-2.585743732029066
681.517241,,0.6487624024012894,681.225,0.47699999809265137,-2.561852838039876
681.9827590000001,,0.10686876012107467,681.695,0.47999998927116394,-2.555359343283816
682.448276,,0.44440676413902713,682.158,0.4970000088214874,-2.5183312129989233
682.9137929999999,,0.9463591180654188,682.621,0.4740000069141388,-2.5684153407093153
683.3793099999999,,1.3550642700702822,683.087,0.47600001096725464,-2.5640009727745583
683.844828,,1.6701250441145277,683.557,0.4830000102519989,-2.548663291201696
