Trial: ,35
Threshold: ,0.0
Maximum EMG: ,0.46336823750484013
Success: ,True

EMG Time,Raw EMG,Filtered EMG,Force Time,Raw Force (V),Filtered Force (N)
0.0,samples,1.9089564869749156e-06,0.467,0.4749999940395355,-2.5669536686405054
0.46551699999999996,time,1.9335762159682673e-06,0.935,0.46399998664855957,-2.5908898343069318
0.9310339999999999,value,1.9523675624334187e-06,1.397,0.5009999871253967,-2.5101949206234826
1.396552,,1.9650118366260954e-06,1.86,0.49399998784065247,-2.525306014077569
1.862069,,1.9711984947547175e-06,2.33,0.4650000035762787,-2.5882970427148537
2.327586,,1.9706265976301972e-06,2.793,0.47600001096725464,-2.564098561690865
2.793103,,1.9630062980794994e-06,3.256,0.47999998927116394,-2.5551143194659067
3.258621,,1.94806035306385e-06,3.721,0.4909999966621399,-2.530850835503681
3.724138,,1.9255256561790928e-06,4.184,0.5009999871253967,-2.5087459687383675
4.189654999999999,,1.8951547859564102e-06,4.65,0.4860000014305115,-2.5410968463806807
4.655172,,1.8567175651274059e-06,5.115,0.4880000054836273,-2.5364109484725788
5.12069,,1.8100026257696354e-06,5.581,0.47600001096725464,-2.562237203342185
5.586207,,1.7548189750081406e-06,6.046,0.47200000286102295,-2.5706559495282235
6.051723999999999,,1.6909975557166203e-06,6.512,0.4699999988079071,-2.5747489136008532
6.517241,,1.618392796439733e-06,6.979,0.49000000953674316,-2.5309513514710296
6.982759,,1.5368841445468844e-06,7.445,0.4749999940395355,-2.5634531882641984
7.448276,,1.4463775764289428e-06,7.908,0.4699999988079071,-2.574221207466624
7.913793000000001,,1.3468070783638977e-06,8.371,0.48899999260902405,-2.532758676626507
8.379309999999998,,1.2381360915067235e-06,8.834,0.48399999737739563,-2.543642577312201
8.844828000000001,,1.12035891430395e-06,9.304,0.4830000102519989,-2.5458711366352516
9.310345,,9.935020554958444e-07,9.768,0.4729999899864197,-2.5677658951264033
9.775862,,8.576255307499574e-07,10.23,0.46700000762939453,-2.581001613544298
10.241379,,7.12824095870275e-07,10.696,0.4779999852180481,-2.557251297904988
10.706897,,5.592284094475596e-07,11.161,0.47600001096725464,-2.5618673976563073
11.172414,,3.970061177598267e-07,11.626,0.47600001096725464,-2.5621622016218315
11.637931,,2.2636285469847007e-07,12.093,0.45100000500679016,-2.6169505228053263
12.103447999999998,,4.754314948640144e-08,12.559,0.47699999809265137,-2.5606453599345538
12.568966000000001,,1.391687650291763e-07,13.019,0.45100000500679016,-2.617636807322365
13.034483,,3.334482506840708e-07,13.485,0.4880000054836273,-2.5373690240912823
13.5,,5.349296760090967e-07,13.949,0.492000013589859,-2.5289803900751564
13.965517,,7.432059489529484e-07,14.415,0.47200000286102295,-2.5728521862802323
14.431034,,9.578281771944673e-07,14.886,0.48100000619888306,-2.5535068105288916
14.896552,,1.1783054627651311e-06,15.348,0.48100000619888306,-2.55372450615454
15.362069,,1.4041048375141396e-06,15.816,0.49900001287460327,-2.5146741091954232
15.827586000000002,,1.6346513457285928e-06,16.278,0.4880000054836273,-2.5387462590685135
16.293103,,1.869328279969388e-06,16.745,0.4699999988079071,-2.578007459610944
16.758621,,2.1074775758991117e-06,17.21,0.48500001430511475,-2.545310657644943
17.224138,,2.348400371560983e-06,17.675,0.4729999899864197,-2.571375287126319
17.689655,,2.591357736217525e-06,18.135,0.4779999852180481,-2.560343044518736
18.155172,,2.835571573473935e-06,18.601,0.4779999852180481,-2.560148501104043
18.62069,,3.080225702993989e-06,19.068,0.47200000286102295,-2.572976286014564
19.086207,,3.3244671246658325e-06,19.534,0.4970000088214874,-2.5182237737177893
19.551724,,3.567407468591298e-06,19.994,0.48500001430511475,-2.5440474316102177
20.017241000000002,,3.808124633755787e-06,20.459,0.4519999921321869,-2.61559959113461
20.482758999999998,,4.045664617686642e-06,20.927,0.49000000953674316,-2.5324559559304824
20.948276,,4.2790435388268805e-06,21.39,0.4490000009536743,-2.621425235186542
21.413793000000002,,4.5072498527389e-06,21.86,0.47200000286102295,-2.570972150046621
21.87931,,4.7292467626100064e-06,22.322,0.4699999988079071,-2.5750073652435894
22.344828,,4.943974823859514e-06,22.79,0.4050000011920929,-2.716330596291764
22.810344999999998,,5.150354741946671e-06,23.253,0.4779999852180481,-2.5570436497220586
23.275862,,5.34729036175119e-06,23.719,0.49000000953674316,-2.530703590444194
23.741379,,5.533671846145057e-06,24.182,0.49000000953674316,-2.53056110886005
24.206897,,5.708379040597078e-06,24.647,0.47200000286102295,-2.569692704044193
24.672414,,5.87028501985224e-06,25.112,0.49000000953674316,-2.5304543484604793
25.137931,,6.018259811908038e-06,25.578,0.492000013589859,-2.5261363034761195
25.603448,,6.151174293671721e-06,26.046,0.4869999885559082,-2.537129398186759
26.068966,,6.267904251827919e-06,26.504,0.4860000014305115,-2.5394655847363254
26.534483,,6.367334601577858e-06,26.971,0.45399999618530273,-2.6093937232423947
27.0,,6.448363755031795e-06,27.437,0.4880000054836273,-2.5355789439032956
27.465517,,6.509908130147955e-06,27.905,0.4790000021457672,-2.555485638867368
27.931034,,6.550906790217085e-06,28.367,0.47200000286102295,-2.5710652007362294
28.396552,,6.570326202994514e-06,28.83,0.4779999852180481,-2.5583427015565183
28.862069,,6.56716510768457e-06,29.3,0.48500001430511475,-2.5434507435331932
29.327586,,6.540459477088416e-06,29.764,0.4819999933242798,-2.550343216704104
29.793103000000002,,6.4892875613392265e-06,30.226,0.503000020980835,-2.504934319269032
30.258620999999998,,6.412774998771528e-06,30.692,0.4749999940395355,-2.5662547763791785
30.724138,,6.310099978608126e-06,31.157,0.47600001096725464,-2.5643604367529487
31.189655000000002,,6.180498439301907e-06,31.622,0.4790000021457672,-2.558066509702964
31.655172000000004,,6.0232692855447725e-06,32.09,0.4779999852180481,-2.5604371212277055
32.12069,,5.837779606155813e-06,32.556,0.4729999899864197,-2.571466189569839
32.586207,,5.623469874289511e-06,33.015,0.48100000619888306,-2.5541123806467896
33.051724,,5.3798591106664075e-06,33.481,0.47600001096725464,-2.565017990481165
33.517241000000006,,5.106549989827054e-06,33.953,0.49000000953674316,-2.534465429891025
33.982759,,4.803233868749579e-06,34.411,0.492000013589859,-2.5299937365837204
34.448276,,4.469695716555707e-06,34.875,0.4880000054836273,-2.538534167780628
34.913793,,4.105818923463941e-06,35.345,0.4690000116825104,-2.5797002392680404
35.37931,,3.7115899666358244e-06,35.808,0.4429999887943268,-2.6360710851541467
35.844828,,3.2871029101059736e-06,36.27,0.48100000619888306,-2.5529714508206656
36.310345,,2.8325637155929963e-06,36.736,0.48100000619888306,-2.5526322471788867
36.775862,,2.348294340660512e-06,37.206,0.49399998784065247,-2.5239517950052583
37.241378999999995,,1.8347366004393653e-06,37.664,0.47200000286102295,-2.571516077488666
37.706897000000005,,1.2924557689376123e-06,38.13,0.44699999690055847,-2.625620781583235
38.172414,,7.221438958578621e-07,38.596,0.4779999852180481,-2.55773751400792
38.637931,,1.2462281481575835e-07,39.063,0.49000000953674316,-2.531274632062643
39.103448,,4.991531810875753e-07,39.529,0.47200000286102295,-2.570206617282377
39.568965999999996,,1.1480950202389929e-06,39.994,0.4860000014305115,-2.5394661595079375
40.034483,,1.8209769136936779e-06,40.46,0.4749999940395355,-2.5632438085971194
40.5,,2.516434819889841e-06,40.923,0.47699999809265137,-2.5587568970815244
40.965517,,3.232965335794106e-06,41.385,0.48100000619888306,-2.5499748035514536
41.431034,,3.968925036842568e-06,41.853,0.47999998927116394,-2.552150231663389
41.896552,,4.722530287408472e-06,42.315,0.4880000054836273,-2.534782075778652
42.362069000000005,,5.4918575427885456e-06,42.783,0.4909999966621399,-2.5283695429946547
42.827586000000004,,6.274844162854372e-06,43.245,0.46799999475479126,-2.5786607875178045
43.293103,,7.069289756561188e-06,43.71,0.46799999475479126,-2.5788974196776215
43.758621,,7.872858075442848e-06,44.177,0.4779999852180481,-2.5573950553908626
44.224138,,8.683079473047443e-06,44.643,0.4749999940395355,-2.564253653340909
44.689655,,9.497353945982643e-06,45.108,0.47999998927116394,-2.5537116598169036
45.155172,,1.0312954770843103e-05,45.573,0.4880000054836273,-2.5366512279519795
45.620689999999996,,1.1127032749784191e-05,46.038,0.4790000021457672,-2.556633897511453
46.086206999999995,,1.1936621075887656e-05,46.504,0.492000013589859,-2.528680696622608
46.551724,,1.273864082773649e-05,46.964,0.49000000953674316,-2.533390058388434
47.017241,,1.3529907100779553e-05,47.43,0.47200000286102295,-2.572929909795464
47.482759,,1.4307135781123672e-05,47.901,0.47999998927116394,-2.555787526989799
47.948276,,1.5066950965343804e-05,48.363,0.45500001311302185,-2.610494710020755
48.413793,,1.580589302775359e-05,48.831,0.47600001096725464,-2.5649311455848305
48.879310000000004,,1.6520427334332353e-05,49.293,0.4830000102519989,-2.5498092984265486
49.344828,,1.7206953600164078e-05,49.756,0.48100000619888306,-2.554231123372138
49.810345,,1.786181588481371e-05,50.226,0.49000000953674316,-2.5346211564455845
50.275862,,1.8481313217550317e-05,50.684,0.4830000102519989,-2.5498026009169217
50.741379,,1.906171084173147e-05,51.149,0.48500001430511475,-2.5453111639427486
51.206897,,1.9599252064993562e-05,51.615,0.49300000071525574,-2.527686661631646
51.672414,,2.0090170699155707e-05,52.082,0.492000013589859,-2.529614248024766
52.137931,,2.053070407094662e-05,52.548,0.47200000286102295,-2.5728883725338907
52.603448,,2.091710658181216e-05,53.012,0.4390000104904175,-2.644447528255682
53.068966,,2.1245663792163773e-05,53.478,0.4729999899864197,-2.570011099310285
53.534483,,2.1512707002493124e-05,53.949,0.49300000071525574,-2.5260595520021067
54.0,,2.1714628300814787e-05,54.408,0.4779999852180481,-2.558355086074893
54.465517,,2.184789604291635e-05,54.871,0.49399998784065247,-2.5231184076874165
54.931034,,2.1909070728903098e-05,55.334,0.47600001096725464,-2.561973365965354
55.396552,,2.1894821236533175e-05,55.804,0.48500001430511475,-2.542033797829191
55.862069,,2.1801941368859502e-05,56.267,0.4909999966621399,-2.528669374293958
56.327586,,2.162736667073756e-05,56.733,0.4790000021457672,-2.5545687160163717
56.793102999999995,,2.1368191465835238e-05,57.196,0.4819999933242798,-2.5478444729047536
57.258621000000005,,2.1021686062904093e-05,57.662,0.48899999260902405,-2.532467740123263
57.724138,,2.0585314077252646e-05,58.127,0.4699999988079071,-2.573802172279128
58.189655,,2.0056749810614604e-05,58.593,0.49399998784065247,-2.521523271847799
58.655172,,1.9433895629940876e-05,59.06,0.4699999988079071,-2.573887955767792
59.120689999999996,,1.87148992830769e-05,59.526,0.4519999921321869,-2.6132479435783096
59.586207,,1.7898171086829586e-05,59.99,0.4779999852180481,-2.5568109713217284
60.051724,,1.6982400920594816e-05,60.456,0.48100000619888306,-2.5505395821486307
60.517241,,1.5966574956519883e-05,60.916,0.47200000286102295,-2.570460325997665
60.982758999999994,,1.4849992055130428e-05,61.379,0.47999998927116394,-2.5533829601267324
61.448276,,1.3632279753470788e-05,61.849,0.48899999260902405,-2.534154759860348
61.913793,,1.2313409771105203e-05,62.312,0.4819999933242798,-2.5498008020905663
62.379310000000004,,1.0893712957818008e-05,62.775,0.47699999809265137,-2.5610934090762134
62.84482800000001,,9.373893605547916e-06,63.245,0.5040000081062317,-2.5026605987616306
63.310345000000005,,7.755043046008142e-06,63.711,0.47699999809265137,-2.561853772843505
63.775862000000004,,6.038652454593757e-06,64.17,0.5,-2.5120819742477747
64.241379,,4.226624780573513e-06,64.635,0.4729999899864197,-2.5711998719557396
64.706897,,2.321285723218104e-06,65.101,0.49000000953674316,-2.534405452632449
65.172414,,3.2539367344293816e-07,65.567,0.4449999928474426,-2.632628800211351
65.637931,,1.7578514592471216e-06,66.034,0.47600001096725464,-2.5652111231064936
66.103448,,3.924800614219355e-06,66.499,0.48399999737739563,-2.5478344476142545
66.56896599999999,,6.171349220479426e-06,66.964,0.4880000054836273,-2.539101497997372
67.03448300000001,,8.492932188514511e-06,67.43,0.48399999737739563,-2.54772703477049
67.5,,1.0884520329533774e-05,67.89,0.48500001430511475,-2.5453910787429237
67.965517,,1.3340618276640134e-05,68.36,0.4819999933242798,-2.5517063158148354
68.431034,,1.5855263980338223e-05,68.823,0.4860000014305115,-2.54271406653829
68.896552,,1.8422029848304286e-05,69.286,0.4830000102519989,-2.5489238138607426
69.362069,,2.103402559650846e-05,69.756,0.4749999940395355,-2.565988400915133
69.827586,,2.3683902875582912e-05,70.219,0.4790000021457672,-2.556882080370884
70.293103,,2.6363861732766726e-05,70.685,0.4830000102519989,-2.5477606018657046
70.75862099999999,,2.906565896582688e-05,71.145,0.4749999940395355,-2.564780216379739
71.22413800000001,,3.178061842105244e-05,71.611,0.47999998927116394,-2.5534873507035005
71.689655,,3.449964328274504e-05,72.076,0.492000013589859,-2.5269659339391075
72.15517200000001,,3.721323039658391e-05,72.541,0.503000020980835,-2.5026562114550415
72.62069,,3.9911486663829974e-05,73.009,0.47699999809265137,-2.559000180285745
73.086207,,4.258414753755397e-05,73.474,0.47200000286102295,-2.5696463826797844
73.551724,,4.522059764593301e-05,73.938,0.4819999933242798,-2.547675129130013
74.017241,,4.780989356116518e-05,74.401,0.4830000102519989,-2.5453795474507634
74.482759,,5.034078872570945e-05,74.864,0.4779999852180481,-2.5562275643218184
74.94827599999999,,5.280176054037901e-05,75.334,0.47999998927116394,-2.5518983753267688
75.41379300000001,,5.5181039611309945e-05,75.797,0.492000013589859,-2.5258552438307613
75.87931,,5.746664114500734e-05,76.26,0.5139999985694885,-2.4780945618446855
76.344828,,5.9646398472551326e-05,76.725,0.45899999141693115,-2.5981537430183517
76.810345,,6.170799867564186e-05,77.195,0.3930000066757202,-2.7422378677995503
77.275862,,6.363902027849171e-05,77.654,0.46399998664855957,-2.587900295303487
77.741379,,6.542697296066064e-05,78.119,0.47999998927116394,-2.553429196470875
78.206897,,6.705933923678135e-05,78.585,0.47099998593330383,-2.5734513950622255
78.67241399999999,,6.852361803978292e-05,79.052,0.5070000290870667,-2.495447799054912
79.137931,,6.98073701346935e-05,79.518,0.47600001096725464,-2.5634134156812474
79.603448,,7.089826528042723e-05,79.982,0.4819999933242798,-2.5507556209764912
80.068966,,7.178413104716012e-05,80.448,0.47099998593330383,-2.575109067158244
80.53448300000001,,7.245300318700241e-05,80.909,0.4819999933242798,-2.551494339524307
81.0,,7.289317744571504e-05,81.378,0.46399998664855957,-2.5910117071601
81.465517,,7.30932626932247e-05,81.841,0.49000000953674316,-2.5346101079950154
81.931034,,7.30422352407029e-05,82.304,0.4690000116825104,-2.5805387203245473
82.396552,,7.272949420202188e-05,82.772,0.4749999940395355,-2.5675719621564936
82.86206899999999,,7.214491774752342e-05,83.234,0.4729999899864197,-2.5719591861406452
83.327586,,7.127892008827243e-05,83.699,0.49300000071525574,-2.5283393225267035
83.79310299999999,,7.01225090193552e-05,84.171,0.48899999260902405,-2.5369308882466712
84.258621,,6.866734384136459e-05,84.629,0.4819999933242798,-2.5519857096204634
84.72413800000001,,6.690579347003047e-05,85.094,0.4729999899864197,-2.5713315836796604
85.189655,,6.483099453504811e-05,85.56,0.47999998927116394,-2.5557611517614935
85.65517200000001,,6.243690926057164e-05,86.027,0.4830000102519989,-2.5488570412148115
86.12069,,5.971838291162016e-05,86.493,0.49000000953674316,-2.533201147031978
86.586207,,5.667120058283294e-05,86.96,0.4690000116825104,-2.5785228392510136
87.051724,,5.3292143098656084e-05,87.419,0.4830000102519989,-2.5475810068445326
87.517241,,4.957904178718734e-05,87.89,0.48500001430511475,-2.5427857337035107
87.98275899999999,,4.5530831883597726e-05,88.352,0.47200000286102295,-2.5706866305589755
88.448276,,4.1147604313331565e-05,88.816,0.4740000069141388,-2.5659378037985507
88.913793,,3.643065560020718e-05,89.285,0.4959999918937683,-2.5176581711154045
89.37931,,3.138253564014393e-05,89.744,0.4000000059604645,-2.726513202500101
89.844828,,2.6007093077571096e-05,90.209,0.4790000021457672,-2.5541698293642177
90.310345,,2.0309518018675618e-05,90.675,0.4959999918937683,-2.516973693593559
90.775862,,1.429638181356136e-05,91.142,0.4819999933242798,-2.5473898261597188
91.241379,,7.975673638164069e-06,91.608,0.47600001096725464,-2.5604539821562367
91.706897,,1.3568336064351808e-06,92.075,0.4519999921321869,-2.612812473649137
92.17241399999999,,5.54921785608782e-06,92.541,0.47099998593330383,-2.571566170702783
92.63793100000001,,1.2730054644627988e-05,93.001,0.4729999899864197,-2.5674292259433815
93.103448,,2.0171723878147894e-05,93.466,0.4830000102519989,-2.5459279905596244
93.568966,,2.7858729334045302e-05,93.93,0.4869999885559082,-2.537554371807025
94.03448300000001,,3.577401967094449e-05,94.4,0.47600001096725464,-2.561905338655087
94.5,,4.3898981690153584e-05,94.86,0.4699999988079071,-2.575396571453168
94.965517,,5.221343887942053e-05,95.33,0.47999998927116394,-2.554050081033235
95.431034,,6.0695655474530536e-05,95.793,0.48100000619888306,-2.5523180909735976
95.896552,,6.932234626502594e-05,96.256,0.49000000953674316,-2.533149359043169
96.36206899999999,,7.806869235987867e-05,96.722,0.4819999933242798,-2.550996254023761
96.827586,,8.690836311729376e-05,97.184,0.49799999594688416,-2.516520904210892
97.293103,,9.58135444299588e-05,97.65,0.47999998927116394,-2.556072996293753
97.758621,,0.00010475497354297554,98.116,0.49000000953674316,-2.5345659267772422
98.224138,,0.00011370198056641405,98.581,0.4729999899864197,-2.5718171441377966
98.689655,,0.00012262253682791932,99.046,0.47200000286102295,-2.5741383811332326
99.155172,,0.00013148331019308587,99.512,0.48500001430511475,-2.5458826673035033
99.62069,,0.00014024972746240572,99.979,0.4659999907016754,-2.5872657106375856
100.086207,,0.00014888604393351154,100.444,0.49399998784065247,-2.5261743357527613
100.551724,,0.00015735542019619747,100.905,0.4740000069141388,-2.5695825989441237
101.017241,,0.0001656200062053361,101.374,0.4690000116825104,-2.5802410367009596
101.482759,,0.00017364103265335364,101.837,0.49000000953674316,-2.5341918723245387
101.948276,,0.00018137890963941294,102.3,0.46700000762939453,-2.5839494281082214
102.413793,,0.00018879333260693132,102.768,0.4880000054836273,-2.537803472806459
102.87931,,0.0001958433954945752,103.231,0.4880000054836273,-2.5373780095656886
103.344828,,0.00020248771101848194,103.696,0.4909999966621399,-2.5303981783858953
103.810345,,0.0002086845379752225,104.161,0.5009999871253967,-2.5081628165031624
104.275862,,0.0002143919154260003,104.627,0.3199999928474426,-2.9020613314349775
104.741379,,0.0002195678035928576,105.093,0.49300000071525574,-2.5247467861544335
105.206897,,0.00022417023126730488,105.559,0.4819999933242798,-2.548342130059684
105.672414,,0.00022815744950088754,106.024,0.4830000102519989,-2.5458404403782597
106.13793100000001,,0.00023148809131584442,106.489,0.48399999737739563,-2.5433956098838832
106.603448,,0.0002341213371422926,106.949,0.515999972820282,-2.473476934255439
107.068966,,0.0002360170856563883,107.415,0.47600001096725464,-2.560490842969092
107.534483,,0.00023713612966177127,107.882,0.4959999918937683,-2.516860517526907
108.0,,0.00023744033662441362,108.344,0.47200000286102295,-2.5691675858874414
108.46551699999999,,0.00023689283343887403,108.815,0.47200000286102295,-2.569264026624211
108.931034,,0.00023545819497203054,109.278,0.49000000953674316,-2.5302189687136614
109.396552,,0.00023310263589874938,109.745,0.47999998927116394,-2.5522447470040706
109.862069,,0.0002297942053127776,110.21,0.47600001096725464,-2.5612600347938996
110.32758600000001,,0.000225502983565554,110.675,0.49300000071525574,-2.5245761734515666
110.793103,,0.0002202012807557549,111.134,0.49399998784065247,-2.52279183169631
111.258621,,0.00021386383626336846,111.599,0.49000000953674316,-2.5319295443725904
111.724138,,0.00020646801869406606,112.064,0.49000000953674316,-2.5323688866072547
112.189655,,0.0001979940255727625,112.53,0.48899999260902405,-2.5349898614424875
112.655172,,0.00018842508209966969,112.997,0.4830000102519989,-2.548493683601346
113.12069,,0.00017774763825800915,113.463,0.47999998927116394,-2.5554385020150123
113.586207,,0.00016595156354000374,113.931,0.48899999260902405,-2.5362039610651337
114.051724,,0.00015303033853697074,114.393,0.49300000071525574,-2.527815412641792
114.51724100000001,,0.00013898124262044383,114.856,0.47600001096725464,-2.5651213022943025
114.982759,,0.00012380553692440842,115.319,0.49000000953674316,-2.534823978838862
115.448276,,0.00010750864182410084,115.79,0.47699999809265137,-2.5632788738528918
115.913793,,9.010030809454102e-05,116.252,0.4790000021457672,-2.5589787434269855
116.37931,,7.159478092218691e-05,116.718,0.47999998927116394,-2.5567803551889146
116.84482799999999,,5.2010955935966884e-05,117.181,0.4729999899864197,-2.5719347199836626
117.310345,,3.137252641961332e-05,117.647,0.5009999871253967,-2.5107624577569396
117.77586199999999,,9.708120865825582e-06,118.112,0.5080000162124634,-2.495271823768343
118.241379,,1.2948569965553841e-05,118.578,0.503000020980835,-2.505861583337089
118.70689700000001,,3.655867731834568e-05,119.042,0.47600001096725464,-2.5643279275000874
119.172414,,6.107805086468307e-05,119.507,0.47699999809265137,-2.5617502839561723
119.63793100000001,,8.645716809674497e-05,119.972,0.492000013589859,-2.5286419742741035
120.103448,,0.00011264105748362655,120.438,0.4819999933242798,-2.549983081637645
120.568966,,0.0001395692361726651,120.901,0.47099998593330383,-2.5734997614019957
121.034483,,0.00016717566299222968,121.364,0.4880000054836273,-2.5360250798045696
121.5,,0.0001953887074868125,121.834,0.47600001096725464,-2.5617552413744495
121.96551699999999,,0.00022413113568487414,122.297,0.4729999899864197,-2.567914378814987
122.431034,,0.000253320113265437,122.765,0.4779999852180481,-2.556692763388997
122.896552,,0.000282867226751588,123.226,0.4860000014305115,-2.5389933425648796
123.362069,,0.00031267852331800253,123.692,0.4749999940395355,-2.5627545337571305
123.827586,,0.0003426545697539425,124.16,0.4880000054836273,-2.53430056305333
124.293103,,0.00037269053107142144,124.625,0.47999998927116394,-2.5516746372697
124.758621,,0.0004026762691920339,125.085,0.4690000116825104,-2.5756628955083993
125.22413800000001,,0.0004324964620897111,125.551,0.4909999966621399,-2.5278336084014654
125.68965500000002,,0.0004620307437105438,126.015,0.46399998664855957,-2.586832767240145
126.15517200000001,,0.000491153864925957,126.481,0.48399999737739563,-2.5435049209259604
126.62069000000001,,0.0005197358756947036,126.953,0.48399999737739563,-2.5438119558587577
127.086207,,0.0005476423285249565,127.411,0.4699999988079071,-2.5746725148260046
127.55172400000001,,0.0005747345032653245,127.879,0.46700000762939453,-2.581610013266929
128.017241,,0.0006008696532073348,128.341,0.4819999933242798,-2.5493618483325897
128.48275900000002,,0.0006259012723959678,128.805,0.4749999940395355,-2.5650603819031663
128.948276,,0.0006496793838865676,129.275,0.5139999985694885,-2.4805430823396573
129.413793,,0.0006720508485449296,129.74,0.4749999940395355,-2.5659481757670233
129.87931,,0.0006928596940013036,130.204,0.4830000102519989,-2.548931714887171
130.344828,,0.000711947463466394,130.67,0.4779999852180481,-2.5602007790767134
130.81034499999998,,0.0007291535839560663,131.135,0.4819999933242798,-2.551813475501327
131.275862,,0.000744315752927215,131.601,0.4830000102519989,-2.5499036331192957
131.741379,,0.0007572703420052218,132.06,0.4860000014305115,-2.543569749020761
132.206897,,0.0007678528171223144,132.526,0.47999998927116394,-2.5567707670532753
132.67241399999997,,0.000775898175331703,132.99,0.492000013589859,-2.5306791057145746
133.13793099999998,,0.0007812413977746311,133.455,0.49000000953674316,-2.5350098167425967
133.60344800000001,,0.0007837179154752554,133.923,0.47600001096725464,-2.565406480703497
134.06896600000002,,0.0007831640837929685,134.386,0.47699999809265137,-2.563049367277522
134.53448300000002,,0.0007794176662204635,134.849,0.4819999933242798,-2.551909157434329
135.0,,0.0007723183336023151,135.319,0.49000000953674316,-2.5341716434806436
135.465517,,0.0007617081789303546,135.782,0.49000000953674316,-2.533811042240114
135.931034,,0.0007474322318543838,136.245,0.4830000102519989,-2.5486596335962606
136.396552,,0.0007293389562240547,136.71,0.4749999940395355,-2.565658221236633
136.862069,,0.0007072807460488489,137.177,0.46700000762939453,-2.5826417503648647
137.327586,,0.0006811144623361644,137.643,0.4749999940395355,-2.564765807117468
137.793103,,0.0006507020087247441,138.108,0.47200000286102295,-2.57086727444185
138.258621,,0.0006159108524482928,138.573,0.49399998784065247,-2.522527586217701
138.724138,,0.0005766144156904372,139.039,0.49000000953674316,-2.530869413021881
139.189655,,0.0005326924649188792,139.505,0.5249999761581421,-2.4542911186630807
139.655172,,0.0004840317491034021,139.965,0.48100000619888306,-2.5498825344836464
140.12069,,0.00043052681951947076,140.43,0.4729999899864197,-2.5671086009593487
140.586207,,0.00037208045633419244,140.898,0.47999998927116394,-2.551728048305334
141.05172399999998,,0.0003086033765578422,141.36,0.46799999475479126,-2.5778190892105157
141.51724099999998,,0.00024001414036929522,141.83,0.47999998927116394,-2.551701577131422
141.982759,,0.00016624065104880147,142.293,0.44999998807907104,-2.617165880997916
142.44827600000002,,8.722247046891713e-05,142.761,0.4779999852180481,-2.5563442594092796
142.913793,,2.910455146525897e-06,143.223,0.46799999475479126,-2.5783811612449
143.37931,,8.673748056745491e-05,143.689,0.4860000014305115,-2.5394775795254283
143.844828,,0.00018175824484461994,144.149,0.515999972820282,-2.4744813326505395
144.310345,,0.0002821756744404903,144.614,0.4690000116825104,-2.5772802734558558
144.77586200000002,,0.00038798976343738394,145.079,0.47699999809265137,-2.5602817249033856
145.241379,,0.0004991837741651431,145.544,0.47699999809265137,-2.560727894974807
145.706897,,0.000615751612697395,146.012,0.48399999737739563,-2.545925187836327
146.172414,,0.0007377046870132468,146.477,0.503000020980835,-2.504966029724155
146.637931,,0.0008650208218595216,146.949,0.4699999988079071,-2.5772706477635974
147.103448,,0.0009975892377308852,147.408,0.47999998927116394,-2.5558554953905874
147.568966,,0.0011352716357948666,147.871,0.4749999940395355,-2.567071285295993
148.034483,,0.0012780640950118178,148.334,0.4860000014305115,-2.543369914326637
148.5,,0.0014261007480280334,148.805,0.48500001430511475,-2.5457452470568707
148.965517,,0.0015793240573999867,149.267,0.4950000047683716,-2.524082096855257
149.43103399999998,,0.0017372145936635664,149.733,0.46299999952316284,-2.5938453476838506
149.89655199999999,,0.001899253940596973,150.196,0.4749999940395355,-2.567670595649995
150.362069,,0.0020658501670358874,150.662,0.503000020980835,-2.5065605523370436
150.82758600000003,,0.0022381248974400834,151.127,0.49799999594688416,-2.517271348120644
151.293103,,0.0024158412453697295,151.592,0.44999998807907104,-2.62159549435084
151.758621,,0.0025961896779780657,152.056,0.4790000021457672,-2.558104120152747
152.224138,,0.0027770812000627158,152.522,0.47200000286102295,-2.5729940928637287
152.68965500000002,,0.0029622719548648155,152.99,0.5090000033378601,-2.4919834490340356
153.155172,,0.003158680632457872,153.456,0.49000000953674316,-2.532948395012478
153.62069,,0.003363712392473226,153.919,0.47600001096725464,-2.56300472154859
154.086207,,0.0035606647225543335,154.381,0.46700000762939453,-2.5821670498246756
154.551724,,0.0037411293673984933,154.849,0.49000000953674316,-2.531625581021584
155.017241,,0.003932310298410435,155.311,0.4880000054836273,-2.5355758616143866
155.482759,,0.00417275250609057,155.779,0.47099998593330383,-2.572243773723467
155.948276,,0.004436810269271857,156.241,0.47999998927116394,-2.5523163578542256
156.413793,,0.004624306316251278,156.707,0.48399999737739563,-2.5433414020285703
156.87931,,0.004707596977558502,157.17,0.4830000102519989,-2.5453265099396862
157.34482799999998,,0.004870139570952765,157.636,0.4970000088214874,-2.5147043074338336
157.81034499999998,,0.005314577830179359,158.101,0.4729999899864197,-2.566946828233885
158.275862,,0.0058246447019243835,158.566,0.48500001430511475,-2.5408356784293202
158.741379,,0.005810594079014237,159.031,0.4729999899864197,-2.5670892387611994
159.20689700000003,,0.005248664628786038,159.497,0.46399998664855957,-2.5868808704037756
159.672414,,0.005344412932171103,159.964,0.4830000102519989,-2.5457389113274633
160.137931,,0.007131304536831406,160.43,0.49000000953674316,-2.5308010337576787
160.60344800000001,,0.008892767532462344,160.893,0.48899999260902405,-2.533342452160384
161.06896600000002,,0.0065227564969279495,161.356,0.4729999899864197,-2.5686027683324375
161.534483,,0.0017199877262486702,161.819,0.4880000054836273,-2.536352181660638
162.0,,0.011802020073167182,162.289,0.48899999260902405,-2.5346166381827047
162.465517,,0.017529302133754827,162.753,0.4860000014305115,-2.54159577179185
162.931034,,0.017005517455122764,163.215,0.4860000014305115,-2.5420257085899625
163.396552,,0.013564062357689947,163.681,0.41499999165534973,-2.6971148038326445
163.862069,,0.011320929044781596,164.145,0.47699999809265137,-2.562407709074316
164.327586,,0.011954374500484305,164.611,0.4909999966621399,-2.5322274161096794
164.793103,,0.014880326617676508,165.075,0.5009999871253967,-2.5107016098946278
165.258621,,0.018131501674527904,165.541,0.47999998927116394,-2.5566455068928704
165.72413799999998,,0.018993255785521596,166.008,0.5040000081062317,-2.504475995067113
166.189655,,0.015556773343535309,166.474,0.4749999940395355,-2.5676972282738957
166.655172,,0.00850624099525625,166.934,0.5239999890327454,-2.4609045684302946
167.12069,,0.0008423566397533233,167.404,0.4909999966621399,-2.5326824513192867
167.58620699999997,,0.004599505132578403,167.867,0.4650000035762787,-2.589135617717943
168.051724,,0.007116653389133225,168.33,0.47699999809265137,-2.5627333103005565
168.517241,,0.007699109281729825,168.798,0.4779999852180481,-2.5602373526467583
168.98275900000002,,0.00745053087434519,169.26,0.46799999475479126,-2.581657380325244
169.44827600000002,,0.006967343666302994,169.726,0.4699999988079071,-2.5768960892811594
169.913793,,0.006774440462995021,170.196,0.4830000102519989,-2.5481443320926185
170.37931,,0.007583765740309574,170.654,0.49000000953674316,-2.5324516391370313
170.844828,,0.00987229002365052,171.119,0.47999998927116394,-2.5537963363364784
171.310345,,0.013224497869938207,171.584,0.4860000014305115,-2.5402964917971746
171.775862,,0.01589810692448596,172.05,0.4480000138282776,-2.6226848487176206
172.241379,,0.015145267613378035,172.515,0.48500001430511475,-2.5417149706869524
172.706897,,0.00908382629878815,172.982,0.48100000619888306,-2.5501204720661494
173.172414,,0.0006735611375864425,173.447,0.4779999852180481,-2.556406948111057
173.637931,,0.009093335121565894,173.915,0.4749999940395355,-2.5627607159686296
174.103448,,0.012291561961380853,174.378,0.47600001096725464,-2.5604728325259023
174.568966,,0.012015697155860885,174.845,0.47999998927116394,-2.5517252168606874
175.034483,,0.013774755891574413,175.307,0.4819999933242798,-2.547411668852045
175.5,,0.020163393903715573,175.775,0.4790000021457672,-2.5540666513440193
175.96551699999998,,0.02778833073265817,176.238,0.4869999885559082,-2.536828040141299
176.43103399999998,,0.03156615590790797,176.704,0.47999998927116394,-2.5523346395793567
176.896552,,0.03047364837326124,177.167,0.48899999260902405,-2.5330404342279715
177.36206900000002,,0.02772088968236975,177.633,0.414000004529953,-2.696801939074723
177.827586,,0.026259240985498925,178.1,0.4869999885559082,-2.5381627785955776
178.293103,,0.025889357999113745,178.559,0.4659999907016754,-2.584342687003966
178.758621,,0.02484777225108292,179.027,0.47600001096725464,-2.5629965829785544
179.224138,,0.022632149519040398,179.492,0.4790000021457672,-2.556899678382101
179.68965500000002,,0.020006979766923425,179.96,0.47200000286102295,-2.5725741990293196
180.155172,,0.016663519249675383,180.426,0.4779999852180481,-2.5598983743416133
180.62069,,0.010387392081504299,180.886,0.47999998927116394,-2.555896901331045
181.086207,,0.0006013558605169353,181.349,0.4909999966621399,-2.5322361146426466
181.551724,,0.015109220889395463,181.819,0.503000020980835,-2.5063352381100454
182.01724099999998,,0.02968002729169533,182.282,0.46399998664855957,-2.5914769295493767
182.482759,,0.04148484141641127,182.748,0.48899999260902405,-2.5371118781932624
182.948276,,0.04958683910770568,183.211,0.4970000088214874,-2.5197074385972544
183.413793,,0.05392506576480212,183.677,0.4729999899864197,-2.571942545527653
183.87931,,0.054798359317390404,184.142,0.4740000069141388,-2.569636571006246
184.34482799999998,,0.05358144896232175,184.608,0.48100000619888306,-2.5541883377296664
184.81034499999998,,0.05219345215000948,185.072,0.48500001430511475,-2.545211505322865
185.27586200000002,,0.05088971014373602,185.538,0.4819999933242798,-2.551428720948455
185.74137900000002,,0.047689243908967775,186.004,0.47600001096725464,-2.5641353017820094
186.206897,,0.04089796583668602,186.47,0.4560000002384186,-2.607308504539477
186.672414,,0.03134594600579715,186.93,0.47600001096725464,-2.563313977114489
187.137931,,0.021384269094714452,187.4,0.47600001096725464,-2.5628833059131684
187.60344800000001,,0.012494929633844926,187.86,0.4860000014305115,-2.5406696175195242
188.06896600000002,,0.004557545721974188,188.331,0.48500001430511475,-2.5424371507020913
188.534483,,0.0032337881941377636,188.793,0.46799999475479126,-2.579091955382937
189.0,,0.01116675475763316,189.256,0.49000000953674316,-2.5308200338672604
189.465517,,0.018099322982114575,189.721,0.4790000021457672,-2.5544942992714006
189.931034,,0.021742105739825896,190.184,0.48399999737739563,-2.54336957019065
190.39655199999999,,0.020797376873212748,190.65,0.47600001096725464,-2.560633762940921
190.862069,,0.016987587180438354,191.115,0.47999998927116394,-2.551825806448454
191.327586,,0.014089531700768205,191.581,0.47600001096725464,-2.5605213046968163
191.793103,,0.014456890630804674,192.049,0.48500001430511475,-2.5409691014697873
192.25862099999998,,0.016718750986194766,192.514,0.4970000088214874,-2.5149533374001494
192.72413799999998,,0.01717284724604463,192.979,0.4699999988079071,-2.57397312087855
193.189655,,0.013613765642694406,193.444,0.5249999761581421,-2.454405573045348
193.655172,,0.00796568955017417,193.905,0.492000013589859,-2.526612023309215
194.12069000000002,,0.004891558347280523,194.374,0.4650000035762787,-2.585790883398918
194.586207,,0.0070629836170040825,194.838,0.47600001096725464,-2.562215844873928
195.051724,,0.01171293067587121,195.3,0.4909999966621399,-2.52994900790208
195.517241,,0.01297579806857086,195.768,0.5189999938011169,-2.4693686061795685
195.98275900000002,,0.008377917594523564,196.231,0.47699999809265137,-2.561289199361424
196.448276,,0.0021263762060559745,196.697,0.47600001096725464,-2.5638691755496663
196.913793,,0.0008303960941260359,197.164,0.5090000033378601,-2.492347246617849
197.37931,,0.0062363921906040285,197.629,0.4860000014305115,-2.5427897591397217
197.844828,,0.013247165019352218,198.094,0.4690000116825104,-2.580111003527638
198.310345,,0.015353368983748051,198.559,0.48100000619888306,-2.55419445253891
198.775862,,0.011161912041958452,199.019,0.47600001096725464,-2.565251092283386
199.241379,,0.004968882302073301,199.484,0.4830000102519989,-2.5500950904689392
199.706897,,0.0017994673956108832,199.949,0.46399998664855957,-2.591512540740682
200.172414,,0.003174471229953754,200.415,0.4749999940395355,-2.5674986800993542
200.63793099999998,,0.00713850616364054,200.886,0.4880000054836273,-2.539056922985477
201.103448,,0.010585423781919928,201.348,0.46799999475479126,-2.5824433184912277
201.568966,,0.011380985880437542,201.809,0.4790000021457672,-2.558230133509883
202.034483,,0.009604963054688697,202.279,0.47699999809265137,-2.5622854420167975
202.5,,0.007142741751074784,202.745,0.48399999737739563,-2.5466877232424
202.965517,,0.005635584968903962,203.209,0.4970000088214874,-2.517982852767567
203.431034,,0.005120236347997162,203.674,0.4860000014305115,-2.5415414525718463
203.896552,,0.004892281570387776,204.134,0.492000013589859,-2.5280511186526655
204.36206900000002,,0.004833926174592646,204.6,0.46299999952316284,-2.5908148589681965
204.827586,,0.00519480649517331,205.064,0.47600001096725464,-2.5620898934306204
205.293103,,0.005598967926434108,205.529,0.48399999737739563,-2.544284896446892
205.758621,,0.005165174880148377,205.994,0.47699999809265137,-2.559197194249085
206.224138,,0.003778951371762414,206.459,0.49000000953674316,-2.530584141008553
206.689655,,0.0027593965358831333,206.93,0.4790000021457672,-2.554314990007481
207.155172,,0.00390461644095664,207.393,0.47999998927116394,-2.551965576441653
207.62069,,0.00791611366133763,207.856,0.4230000078678131,-2.6760476773494246
208.086207,,0.013719349725948078,208.319,0.4860000014305115,-2.538765824603504
208.551724,,0.01919196018973574,208.79,0.49300000071525574,-2.523561552771432
209.01724099999998,,0.02278462212490735,209.252,0.4869999885559082,-2.536750188865933
209.482759,,0.024633625060591264,209.717,0.5019999742507935,-2.504253888221767
209.948276,,0.02582554687785091,210.18,0.46399998664855957,-2.587287354476029
210.413793,,0.026546557547693455,210.646,0.47699999809265137,-2.559264660722709
210.87930999999998,,0.02542771066582789,211.112,0.4790000021457672,-2.5552532416975096
211.344828,,0.02078108087363482,211.578,0.4860000014305115,-2.540383840328854
211.810345,,0.01212001295523221,212.046,0.453000009059906,-2.6126844874235515
212.27586200000002,,0.0006450605428422238,212.504,0.4959999918937683,-2.5194200369921873
212.741379,,0.011212996863254852,212.972,0.48500001430511475,-2.543801378812724
213.206897,,0.020867986512925183,213.437,0.48500001430511475,-2.544203512260617
213.672414,,0.02696591291402678,213.901,0.4909999966621399,-2.531507668191008
214.137931,,0.03005508170724299,214.37,0.4869999885559082,-2.5405607311897915
214.60344800000001,,0.03151875531363472,214.831,0.48100000619888306,-2.553923477468588
215.068966,,0.031617983820447115,215.301,0.4779999852180481,-2.560694457065382
215.534483,,0.029035857053886806,215.764,0.4819999933242798,-2.552152059772536
216.0,,0.022691109070001898,216.226,0.47699999809265137,-2.5631496123324196
216.465517,,0.013642970277594188,216.692,0.5339999794960022,-2.4389990158567474
216.93103399999998,,0.004990606731886919,217.157,0.49000000953674316,-2.534817817357922
217.39655199999999,,0.00021806530587182164,217.623,0.49000000953674316,-2.5347040021560017
217.862069,,0.0016632680071915749,218.09,0.47999998927116394,-2.556309194848524
218.327586,,0.010133584494237806,218.555,0.47699999809265137,-2.562602290752927
218.793103,,0.025273634969402017,219.019,0.4880000054836273,-2.5383403469653887
219.25862099999998,,0.045100160887905055,219.485,0.48500001430511475,-2.5445342770971537
219.724138,,0.06462214418563444,219.952,0.48100000619888306,-2.552872042600389
220.18965500000002,,0.07661167134096676,220.41,0.48899999260902405,-2.535042641778622
220.65517200000002,,0.07612190833324228,220.879,0.4729999899864197,-2.5694895722414297
221.12069,,0.06460141546837746,221.341,0.4880000054836273,-2.5363996743487345
221.586207,,0.04861753813360037,221.809,0.492000013589859,-2.5272882590267236
222.051724,,0.03438087084042218,222.271,0.4860000014305115,-2.53998828874863
222.517241,,0.023638858190354408,222.737,0.4779999852180481,-2.5570819739434536
222.98275900000002,,0.014181782715571,223.2,0.49000000953674316,-2.5306491513636424
223.448276,,0.0034539918589355403,223.666,0.4749999940395355,-2.5630951008479075
223.913793,,0.008564218500210146,224.13,0.4909999966621399,-2.528065010734592
224.37931,,0.019671987240745495,224.596,0.47600001096725464,-2.5606401599608954
224.844828,,0.027810136166047817,225.06,0.47999998927116394,-2.5518913971078825
225.31034499999998,,0.03242588095629009,225.525,0.48899999260902405,-2.5323205338455885
225.775862,,0.03398168355399256,225.99,0.492000013589859,-2.5258910066670683
226.241379,,0.03344857201358681,226.455,0.4880000054836273,-2.5347780293900106
226.706897,,0.0325888596875667,226.919,0.49000000953674316,-2.530653835567338
227.172414,,0.0333508229156044,227.388,0.47699999809265137,-2.55926326795173
227.63793099999998,,0.0357591650568207,227.849,0.47600001096725464,-2.561774481918143
228.103448,,0.03708513896520769,228.319,0.46799999475479126,-2.5795722973554187
228.56896600000002,,0.03458370462965369,228.779,0.4860000014305115,-2.540750008174653
229.03448300000002,,0.029009694853086763,229.249,0.4729999899864197,-2.569478530553668
229.5,,0.024097722046047983,229.714,0.4749999940395355,-2.5655277640414473
229.965517,,0.022346190463496392,230.178,0.5009999871253967,-2.50927732168075
230.431034,,0.022600606581114617,230.644,0.46700000762939453,-2.583721378105619
230.896552,,0.022226435714190345,231.108,0.4880000054836273,-2.538304628127691
231.362069,,0.020200249868314372,231.574,0.49799999594688416,-2.5168074816396406
231.827586,,0.016998284953549134,232.039,0.47699999809265137,-2.562793833456916
232.293103,,0.012793079838237516,232.504,0.4830000102519989,-2.5498955186039223
232.758621,,0.007730345102367496,232.964,0.4699999988079071,-2.5783257442741814
233.224138,,0.003497080293647063,233.429,0.5109999775886536,-2.4890395365485505
233.689655,,0.0023291790145992222,233.897,0.4740000069141388,-2.5696168082107347
234.155172,,0.0039518782292342815,234.36,0.4819999933242798,-2.552085478898275
234.62069,,0.005316299406508548,234.83,0.5019999742507935,-2.508344115828151
235.086207,,0.004129245059594019,235.292,0.4740000069141388,-2.5691163785871294
235.55172399999998,,0.001156937580859058,235.76,0.47999998927116394,-2.555760874000958
236.01724099999998,,0.0015916376588726588,236.223,0.46399998664855957,-2.5902910850769074
236.482759,,0.0032589194303193508,236.688,0.4790000021457672,-2.557248779366308
236.94827600000002,,0.003736320072801728,237.152,0.47200000286102295,-2.572113278166748
237.413793,,0.002548397518052626,237.618,0.47999998927116394,-2.5542860295795777
237.87931,,0.00016467198795567357,238.083,0.47699999809265137,-2.560423688754536
238.344828,,0.0023698989563448345,238.548,0.4950000047683716,-2.5208211034094217
238.810345,,0.0016912817152014306,239.015,0.49000000953674316,-2.5313499013903997
239.27586200000002,,0.0015387983903911125,239.474,0.46399998664855957,-2.5876640868383167
239.741379,,0.0040281071598637225,239.942,0.49000000953674316,-2.5307325746977463
240.206897,,0.002912211036441145,240.404,0.47699999809265137,-2.5588209187948427
240.672414,,0.0012518932581607532,240.875,0.5099999904632568,-2.486750187214273
241.137931,,0.005207556075380594,241.337,0.4790000021457672,-2.5541765461358925
241.603448,,0.006218009071358768,241.801,0.4869999885559082,-2.5367029207347027
242.068966,,0.00442410291942148,242.264,0.4830000102519989,-2.545441944772421
242.534483,,0.002258988629664978,242.729,0.46000000834465027,-2.5956439530858004
243.0,,0.0014765221139880398,243.199,0.4830000102519989,-2.545694352332004
243.465517,,0.0010579861551597751,243.665,0.4729999899864197,-2.567701395869288
243.93103399999998,,0.0011182354909886236,244.124,0.49000000953674316,-2.53093891907983
244.39655199999999,,0.0047270116195047675,244.589,0.4779999852180481,-2.5574029099650386
244.862069,,0.006506297543325005,245.056,0.492000013589859,-2.527257632227109
245.327586,,0.004011200366535484,245.522,0.49799999594688416,-2.514566218780563
245.793103,,0.0008829692915453791,245.987,0.4779999852180481,-2.558532673154647
246.258621,,0.0032556430055750364,246.453,0.49300000071525574,-2.526247890182058
246.724138,,0.00022514325897831608,246.916,0.4779999852180481,-2.559312448534139
247.18965500000002,,0.005652677343252658,247.386,0.46799999475479126,-2.5814624519423126
247.655172,,0.008633785236379561,247.849,0.4860000014305115,-2.542578466852205
248.12069,,0.00562503359711895,248.312,0.4790000021457672,-2.5581186202806405
248.586207,,0.0004014006267465008,248.775,0.4830000102519989,-2.5496426887523866
249.051724,,0.0030498172541454935,249.245,0.47600001096725464,-2.5650739576698647
249.517241,,0.0014404597049864293,249.711,0.47999998927116394,-2.556476883768766
249.982759,,0.010977965518057062,250.17,0.4699999988079071,-2.5783142359887092
250.44827600000002,,0.02019175190671903,250.635,0.48399999737739563,-2.5477959458852943
250.913793,,0.025171646516668582,251.1,0.4830000102519989,-2.5498894648046306
251.37931000000003,,0.025392463702488367,251.566,0.4959999918937683,-2.5214161355865703
251.844828,,0.022615496892783006,252.03,0.4740000069141388,-2.56913409935156
252.31034499999998,,0.01931827478680126,252.496,0.49000000953674316,-2.5340087219089646
252.77586200000002,,0.01724930430796411,252.96,0.46799999475479126,-2.5816256076670148
253.241379,,0.01604894253184427,253.426,0.4860000014305115,-2.542059637836195
253.706897,,0.013565063167278095,253.889,0.4729999899864197,-2.5700054939742727
254.172414,,0.008368778879832155,254.359,0.5049999952316284,-2.4998966128661197
254.63793099999998,,0.0018521173395311097,254.82,0.49000000953674316,-2.5321798447829313
255.10344800000001,,0.0025082956612800865,255.29,0.49000000953674316,-2.5317908865502585
255.56896600000002,,0.002062667577184337,255.753,0.48100000619888306,-2.5510294838435232
256.03448299999997,,0.002529268875998089,256.215,0.4830000102519989,-2.546334090473461
256.5,,0.007613407107062369,256.681,0.4620000123977661,-2.5917895169587104
256.965517,,0.009773994589161164,257.145,0.47999998927116394,-2.552328931953133
257.431034,,0.008812482259303797,257.611,0.46399998664855957,-2.587001042038866
257.896552,,0.007092039371953619,258.075,0.41499999165534973,-2.6936340027901617
258.362069,,0.006303500545408258,258.541,0.48899999260902405,-2.5323628752755396
258.827586,,0.005867451134412919,259.009,0.492000013589859,-2.5258450462719257
259.29310300000003,,0.004450568762297971,259.474,0.47600001096725464,-2.560788943378691
259.758621,,0.0019525460954223613,259.938,0.4690000116825104,-2.5761902836266635
260.224138,,0.0004373004037824284,260.401,0.4749999940395355,-2.563330290244623
260.689655,,0.0016280660593833195,260.864,0.4830000102519989,-2.546167233747885
261.155172,,0.0017606139251158553,261.334,0.4779999852180481,-2.5573725589042624
261.62068999999997,,0.001981670313405857,261.797,0.4880000054836273,-2.535934251511564
262.086207,,0.0028129940784344595,262.26,0.4880000054836273,-2.53630784841956
262.551724,,0.002829520003221634,262.725,0.4790000021457672,-2.556303364949403
263.017241,,0.00011184076620948625,263.196,0.4779999852180481,-2.558872479285262
263.482759,,0.004352997378877332,263.654,0.4519999921321869,-2.6158995102347737
263.94827599999996,,0.006120887414533343,264.119,0.503000020980835,-2.5051508183864013
264.413793,,0.0017579262839302343,264.585,0.48100000619888306,-2.553412063198846
264.87931,,0.006574400582921507,265.049,0.4970000088214874,-2.518842738251872
265.34482799999995,,0.012405138117564975,265.514,0.46399998664855957,-2.590977272277747
265.810345,,0.011126369072344664,265.979,0.47600001096725464,-2.565016145565627
266.27586199999996,,0.004336048476242023,266.444,0.47999998927116394,-2.556422712609068
266.741379,,0.0020255735212601307,266.912,0.47999998927116394,-2.556478351242178
267.206897,,0.003232236907969404,267.374,0.47200000286102295,-2.5738962145676973
267.672414,,0.0007507282121212212,267.845,0.46700000762939453,-2.584712071225998
268.137931,,0.006341146429981372,268.308,0.49000000953674316,-2.534462017827656
268.603448,,0.009808013284985408,268.771,0.4959999918937683,-2.521188757094711
269.06896600000005,,0.010041898221321684,269.241,0.515999972820282,-2.4773592391132864
269.53448299999997,,0.008859312124931936,269.699,0.4830000102519989,-2.548950425756343
270.0,,0.008641062788944314,270.164,0.46799999475479126,-2.5812888946730905
270.465517,,0.009726357431781294,270.629,0.49000000953674316,-2.532991304005279
270.931034,,0.010984308425762646,271.094,0.4880000054836273,-2.5369660201001616
271.396552,,0.012681785817064398,271.56,0.4819999933242798,-2.549651411150281
271.86206899999996,,0.016725157577851764,272.026,0.49799999594688416,-2.514414213168814
272.327586,,0.023363721838438885,272.492,0.47999998927116394,-2.5532701418506654
272.793103,,0.02978376941397976,272.957,0.4830000102519989,-2.5464045955645416
273.258621,,0.033473211827656606,273.422,0.47600001096725464,-2.5613660968449308
273.724138,,0.03541350789758738,273.89,0.4749999940395355,-2.5633051600248478
274.18965499999996,,0.03820472708209805,274.352,0.4860000014305115,-2.5391569174716917
274.655172,,0.04214229474651885,274.816,0.4819999933242798,-2.547750086253267
275.12069,,0.04499995712438968,275.286,0.47600001096725464,-2.5607657310476495
275.586207,,0.04503594494908829,275.744,0.4740000069141388,-2.5651339488106877
276.051724,,0.04234878157495323,276.209,0.46399998664855957,-2.586998396556023
276.517241,,0.037396691748129464,276.674,0.4790000021457672,-2.554461120980217
276.98275900000004,,0.029893221280963132,277.141,0.4729999899864197,-2.567735342252166
277.448276,,0.019735669003711417,277.607,0.49000000953674316,-2.530953652821399
277.913793,,0.008010736015593822,278.071,0.4050000011920929,-2.7164404651175817
278.37931,,0.0038036155065831675,278.537,0.4729999899864197,-2.5686324041080155
278.844828,,0.015437559743120244,279.002,0.460999995470047,-2.5951434004030234
279.31034500000004,,0.027795978196041755,279.467,0.5149999856948853,-2.4778774862430657
279.77586199999996,,0.04082885900459697,279.935,0.47999998927116394,-2.554512289464368
280.241379,,0.05196531447603634,280.397,0.46700000762939453,-2.5832065300420357
280.706897,,0.057594742885435916,280.86,0.5009999871253967,-2.5094832252902757
281.172414,,0.05609311729118907,281.33,0.4909999966621399,-2.5315877915766176
281.637931,,0.04870829271453588,281.793,0.4749999940395355,-2.5667220845980454
282.10344799999996,,0.0376418119772245,282.256,0.4779999852180481,-2.5604123448747074
282.568966,,0.024299979825240858,282.721,0.47600001096725464,-2.5649396074414064
283.034483,,0.009817988872614708,283.184,0.47699999809265137,-2.562869900449469
283.5,,0.0034981578097753674,283.65,0.4819999933242798,-2.5520213290931038
283.965517,,0.012385437873701806,284.115,0.47999998927116394,-2.55635780988224
284.431034,,0.01495654600599645,284.581,0.4830000102519989,-2.5497363621756466
284.89655200000004,,0.01278001540973755,285.046,0.49799999594688416,-2.516909134126695
285.362069,,0.009869221759091502,285.512,0.48399999737739563,-2.5472050959085726
285.827586,,0.008725688982862748,285.979,0.492000013589859,-2.529519814865418
286.293103,,0.007332711926255277,286.444,0.47699999809265137,-2.561900983472568
286.758621,,0.0008388898736921211,286.905,0.48100000619888306,-2.552854959277026
287.22413800000004,,0.013232712237770665,287.374,0.4659999907016754,-2.585181297393364
287.689655,,0.031714779298782476,287.838,0.4950000047683716,-2.5216359065961655
288.155172,,0.04811479476042129,288.3,0.47200000286102295,-2.5713800965049707
288.62069,,0.057959745317779525,288.764,0.47600001096725464,-2.5623119691775216
289.086207,,0.061428273187242276,289.234,0.49300000071525574,-2.524943435425313
289.55172400000004,,0.06113062029432082,289.7,0.49000000953674316,-2.531179246805894
290.01724099999996,,0.058490834443697085,290.16,0.4819999933242798,-2.5483487645708407
290.482759,,0.05297318469288803,290.625,0.48899999260902405,-2.5328869282711066
290.948276,,0.044126915928201664,291.09,0.47600001096725464,-2.5610528551528358
291.413793,,0.033010238161626564,291.556,0.48899999260902405,-2.5326334735517455
291.87931,,0.02122871354056853,292.02,0.4729999899864197,-2.5674571424676778
292.344828,,0.009649823153647858,292.486,0.4860000014305115,-2.539163102050905
292.81034500000004,,0.0011170251215159384,292.953,0.47200000286102295,-2.5697546661952555
293.275862,,0.009898380393641179,293.419,0.46799999475479126,-2.578619085432578
293.74137900000005,,0.01593361522352461,293.882,0.503000020980835,-2.502570284770045
294.206897,,0.020208144153536865,294.345,0.48899999260902405,-2.5333220589084733
294.672414,,0.024278922449076857,294.815,0.49799999594688416,-2.5140032305019324
295.13793100000004,,0.02772946885231804,295.278,0.4819999933242798,-2.549180209132706
295.603448,,0.028462986740790546,295.744,0.49000000953674316,-2.5320895043638236
296.068966,,0.026243029551933868,296.209,0.4830000102519989,-2.5476881848253394
296.534483,,0.02433267729694399,296.675,0.4880000054836273,-2.5371420221274015
297.0,,0.02602442870273237,297.135,0.46399998664855957,-2.5897654375933676
297.46551700000003,,0.030335902575410342,297.601,0.49900001287460327,-2.5138270990559093
297.931034,,0.032743094486966405,298.067,0.48899999260902405,-2.535896525482771
298.396552,,0.030000384636554845,298.533,0.4909999966621399,-2.5317817282371635
298.862069,,0.023221394122676927,298.998,0.43799999356269836,-2.6474461580146467
299.327586,,0.016463288409028796,299.464,0.4650000035762787,-2.5887677833926834
299.79310300000003,,0.013088077511719172,299.927,0.4819999933242798,-2.551820519831768
300.258621,,0.013279286636005753,300.389,0.49000000953674316,-2.5344217442317527
300.724138,,0.014432630483833506,300.856,0.4749999940395355,-2.567071571708799
301.189655,,0.01399288199420451,301.319,0.4869999885559082,-2.5408387297531907
301.65517200000005,,0.01219194914549239,301.79,0.4950000047683716,-2.5232639051007713
302.12069,,0.011688189967920206,302.252,0.46399998664855957,-2.5906046359419785
302.586207,,0.014114765646143293,302.718,0.48899999260902405,-2.5358958783386094
303.05172400000004,,0.017596773021753012,303.182,0.4699999988079071,-2.5770101827985843
303.517241,,0.018678320090605122,303.647,0.49000000953674316,-2.533128215855336
303.982759,,0.016260288744960827,304.112,0.4880000054836273,-2.5371568186932523
304.448276,,0.012185811450276933,304.577,0.47999998927116394,-2.5542475821196002
304.913793,,0.008099969487334293,305.042,0.4970000088214874,-2.516872708207539
305.37931000000003,,0.00360384090792499,305.507,0.47200000286102295,-2.571012184439213
305.844828,,0.001878794542762978,305.972,0.4880000054836273,-2.535848382893794
306.310345,,0.006986103330984536,306.437,0.5040000081062317,-2.5007148447102088
306.775862,,0.00950046384349367,306.901,0.47999998927116394,-2.5527655289813116
307.241379,,0.009110291725316222,307.37,0.4950000047683716,-2.519894561261944
307.70689699999997,,0.007983740968731225,307.834,0.4729999899864197,-2.567685533086139
308.172414,,0.008261626856454339,308.297,0.49900001287460327,-2.510957373430468
308.637931,,0.009660739731024574,308.76,0.49000000953674316,-2.5305401886090175
309.103448,,0.010209101336004282,309.23,0.4819999933242798,-2.5480032652543763
309.568966,,0.008874642464514903,309.689,0.4880000054836273,-2.5350233136404428
310.034483,,0.006564765824271839,310.157,0.4690000116825104,-2.576565106952658
310.5,,0.004719846588755764,310.622,0.4970000088214874,-2.5157613665871326
310.96551700000003,,0.003817631400697326,311.087,0.4880000054836273,-2.535611899302788
311.431034,,0.00336410858073731,311.552,0.44699999690055847,-2.6252165097777564
311.896552,,0.0026995292204740518,312.019,0.46799999475479126,-2.579774761175895
312.362069,,0.0015573712828573073,312.485,0.4779999852180481,-2.5583182234983655
312.827586,,0.0002097684389468885,312.953,0.4790000021457672,-2.55647844341906
313.29310300000003,,0.0006952365447644724,313.411,0.4779999852180481,-2.5589942248412973
313.758621,,0.0006959490634144695,313.875,0.45399999618530273,-2.611607018123135
314.224138,,0.00013289299424498592,314.345,0.5040000081062317,-2.502977733748552
314.689655,,5.199913925312235e-05,314.805,0.4779999852180481,-2.5598934289419137
315.155172,,0.0014389000838187552,315.275,0.4860000014305115,-2.5426939726683813
315.62068999999997,,0.004712567925738815,315.74,0.47200000286102295,-2.5733771469020215
316.086207,,0.009758834629861886,316.204,0.4779999852180481,-2.560434309939977
316.551724,,0.01589816131848912,316.67,0.48100000619888306,-2.5539702606038546
317.017241,,0.021750619550117794,317.13,0.4819999933242798,-2.5518040550432604
317.482759,,0.025805429201130537,317.596,0.4699999988079071,-2.5779005032541815
317.94827599999996,,0.027904792218350065,318.06,0.4620000123977661,-2.595224683558979
318.413793,,0.03021948028066508,318.525,0.4970000088214874,-2.5188124950184307
318.87931000000003,,0.03566880458063134,318.991,0.4779999852180481,-2.559997097457368
319.344828,,0.04413881080672645,319.456,0.47600001096725464,-2.564100894587568
319.810345,,0.05056280970995715,319.919,0.46799999475479126,-2.581241521172727
320.275862,,0.04817286161427502,320.389,0.46700000762939453,-2.5831057469635583
320.741379,,0.03418439778089875,320.852,0.5049999952316284,-2.4999861855399392
321.20689699999997,,0.011853081252763657,321.315,0.48100000619888306,-2.5519356556161683
321.672414,,0.012877161347438998,321.783,0.49399998784065247,-2.5232784917220594
322.137931,,0.036006079774202816,322.245,0.47600001096725464,-2.562173458572676
322.603448,,0.05668828767567032,322.71,0.47999998927116394,-2.553162738303361
323.068966,,0.07453480526108765,323.177,0.49399998784065247,-2.522399195581489
323.53448299999997,,0.08691245710763111,323.643,0.49799999594688416,-2.5134634119179675
324.0,,0.09019763879292597,324.108,0.4779999852180481,-2.556863482588623
324.465517,,0.08364936912942085,324.573,0.47099998593330383,-2.5719956220971865
324.931034,,0.07053607948800454,325.038,0.4860000014305115,-2.539256130334937
325.396552,,0.05498415192383335,325.504,0.47999998927116394,-2.552328648497029
325.86206899999996,,0.03921940740910529,325.968,0.4869999885559082,-2.5371388878395487
326.327586,,0.0245330267227513,326.434,0.48100000619888306,-2.550329849011775
326.793103,,0.012953357633018728,326.897,0.4819999933242798,-2.5483250741519328
327.258621,,0.005855146339778653,327.359,0.4959999918937683,-2.518047016260748
327.724138,,0.0015407772556676547,327.83,0.48899999260902405,-2.533562443606059
328.189655,,0.003560884327399152,328.293,0.4819999933242798,-2.549111638602902
328.655172,,0.010605323556162664,328.757,0.48899999260902405,-2.5341845011373416
329.12068999999997,,0.01661542188839442,329.219,0.492000013589859,-2.5279864213318994
329.586207,,0.017975351242264185,329.685,0.4790000021457672,-2.5566507880858733
330.051724,,0.014793887453707466,330.152,0.47999998927116394,-2.554807813584001
330.517241,,0.010810075440959488,330.618,0.48899999260902405,-2.5355189117247527
330.982759,,0.009393919688921129,331.083,0.48399999737739563,-2.5467041540048383
331.44827599999996,,0.010616984087815319,331.549,0.46299999952316284,-2.5927121003655387
331.913793,,0.01221187766927954,332.009,0.49000000953674316,-2.5341014791422327
332.37931,,0.012383862133619894,332.475,0.4779999852180481,-2.5604077218381427
332.844828,,0.011179200589075549,332.95,0.4819999933242798,-2.5517996474123654
333.310345,,0.00984400372005109,333.408,0.47999998927116394,-2.556204280484731
333.77586199999996,,0.009651902912295313,333.871,0.4779999852180481,-2.5605481038139177
334.241379,,0.011038752684681274,334.334,0.4950000047683716,-2.523436781077894
334.706897,,0.01317776908301968,334.805,0.4339999854564667,-2.6562021185833924
335.17241399999995,,0.01447719990281674,335.267,0.4690000116825104,-2.579764226144504
335.637931,,0.013920874100712317,335.733,0.492000013589859,-2.529422337480648
336.103448,,0.011966215931840688,336.196,0.48100000619888306,-2.5531124327926302
336.56896600000005,,0.010138946368258107,336.661,0.4699999988079071,-2.576768981002288
337.034483,,0.00976471410878488,337.127,0.47999998927116394,-2.5546502343573594
337.5,,0.010664802207252182,337.593,0.47200000286102295,-2.5717336526330694
337.965517,,0.010942193294021801,338.06,0.503000020980835,-2.5038464649613705
338.431034,,0.0089092372265038,338.526,0.4950000047683716,-2.520933348436035
338.89655200000004,,0.005729015200395137,338.99,0.47200000286102295,-2.5707174404525963
339.36206899999996,,0.0050172871397202185,339.449,0.4779999852180481,-2.5573493355917623
339.827586,,0.00859161550901545,339.919,0.4959999918937683,-2.5178752039882357
340.293103,,0.013340756236071229,340.381,0.47699999809265137,-2.559056697853776
340.758621,,0.014065905098041915,340.849,0.47200000286102295,-2.5697900177765067
341.224138,,0.009544967228644612,341.311,0.46399998664855957,-2.5871181579643783
341.68965499999996,,0.004093679477023499,341.779,0.47999998927116394,-2.552220989277612
342.155172,,0.0023992646789855756,342.241,0.4860000014305115,-2.539173490850752
342.62069,,0.004283639893004987,342.707,0.4819999933242798,-2.5479747567726947
343.086207,,0.005781682615720845,343.17,0.4620000123977661,-2.591694534854484
343.551724,,0.0042791978632211744,343.635,0.48399999737739563,-2.543967371394825
344.01724099999996,,0.0009064390969822411,344.102,0.4690000116825104,-2.57690012433568
344.48275900000004,,0.0018362194502997168,344.567,0.47600001096725464,-2.56194488852138
344.948276,,0.0030711545167977127,345.034,0.47699999809265137,-2.560094765265383
345.413793,,0.0034474886599289087,345.499,0.47699999809265137,-2.560446137594199
345.87931,,0.0033165721892708996,345.964,0.4819999933242798,-2.549916134303036
346.344828,,0.002648999021795487,346.43,0.4339999854564667,-2.6548558043927892
346.81034500000004,,0.002553783128050348,346.893,0.46700000762939453,-2.5833157466884846
347.275862,,0.004869944283557234,347.356,0.4790000021457672,-2.5575065270578694
347.741379,,0.009175531923338899,347.819,0.48500001430511475,-2.5447364886633523
348.206897,,0.011695572648919274,348.289,0.4779999852180481,-2.5602463301247433
348.672414,,0.009183540899323092,348.749,0.47699999809265137,-2.562633360313044
349.13793100000004,,0.0035289303273347977,349.219,0.48500001430511475,-2.5453549648279012
349.60344799999996,,0.0003473869399232011,349.684,0.4749999940395355,-2.5672296876399527
350.068966,,0.00238176189857913,350.149,0.48100000619888306,-2.5541803970545236
350.534483,,0.006231409835099542,350.614,0.5130000114440918,-2.4844190881695494
351.0,,0.006804015838937414,351.079,0.5019999742507935,-2.5082727032212233
351.465517,,0.003270135470225303,351.545,0.47600001096725464,-2.564742445273649
351.93103399999995,,0.001102197070577256,352.004,0.4790000021457672,-2.5579745152564706
352.396552,,0.003620832590208493,352.47,0.46799999475479126,-2.581658511923485
352.862069,,0.004313642385011513,352.938,0.4790000021457672,-2.5573719470465086
353.32758600000005,,0.003859606040763805,353.401,0.45100000500679016,-2.618022823662547
353.793103,,0.002000019004867113,353.864,0.48399999737739563,-2.5457574388751882
354.258621,,0.0010141123675476683,354.334,0.4830000102519989,-2.5475582840283097
354.72413800000004,,0.003240734199890357,354.797,0.4699999988079071,-2.5755066769178105
355.189655,,0.0030221178762173608,355.259,0.4869999885559082,-2.5381112373300576
355.655172,,0.001359177745411587,355.726,0.4970000088214874,-2.515992639819105
356.12069,,0.0008212520886953156,356.196,0.4819999933242798,-2.548376817306927
356.586207,,0.002503460762782902,356.654,0.4729999899864197,-2.5677355028453985
357.05172400000004,,0.0053299100325656,357.119,0.4909999966621399,-2.528325347918309
357.517241,,0.007881639283642073,357.585,0.4729999899864197,-2.567407443391612
357.982759,,0.009416692573592182,358.049,0.46399998664855957,-2.586947457523732
358.448276,,0.009297582476251301,358.514,0.46700000762939453,-2.5804123641931014
358.913793,,0.007023244086264049,358.979,0.4790000021457672,-2.5543382230481684
359.37931000000003,,0.0032272877423528733,359.445,0.5070000290870667,-2.493471320925662
359.844828,,0.00043460000877872405,359.915,0.45899999141693115,-2.598243148331894
360.310345,,0.0028939709039772035,360.378,0.46799999475479126,-2.5788882310989734
360.775862,,0.004438354070266726,360.841,0.47600001096725464,-2.5617608987393607
361.241379,,0.0054079182950579315,361.304,0.4860000014305115,-2.5403152501631956
361.706897,,0.00502688431590313,361.775,0.4749999940395355,-2.5646491991540836
362.172414,,0.0026302446720573407,362.238,0.47600001096725464,-2.5628559319443136
362.63793100000004,,0.0005681626434457682,362.703,0.4749999940395355,-2.5654247489955018
363.103448,,0.002419126678329444,363.167,0.4790000021457672,-2.5570926310264395
363.568966,,0.002263315547104393,363.633,0.5040000081062317,-2.5029885641181147
364.034483,,0.001059113433600834,364.097,0.5659999847412109,-2.3682405880402686
364.5,,0.00035974876789563967,364.563,0.4790000021457672,-2.5580657981364254
364.96551700000003,,0.0015649711593920554,365.027,0.49000000953674316,-2.534330983797596
365.431034,,0.001640570763434749,365.493,0.49399998784065247,-2.525788323682482
365.896552,,0.00011176868695524345,365.96,0.47600001096725464,-2.565112032208721
366.362069,,0.002525156605607069,366.425,0.47200000286102295,-2.5738682217511197
366.827586,,0.003066872990798381,366.886,0.46700000762939453,-2.584735816020133
367.29310300000003,,0.00039092892671131036,367.349,0.49000000953674316,-2.534534617110062
367.758621,,0.004333539433158013,367.82,0.49000000953674316,-2.534377780962066
368.224138,,0.008691801048910494,368.283,0.4749999940395355,-2.566840814493279
368.689655,,0.010850086963462189,368.753,0.4699999988079071,-2.5774647519497127
369.155172,,0.010172408141244949,369.215,0.47999998927116394,-2.55536501664567
369.62068999999997,,0.0071519104385181255,369.681,0.4950000047683716,-2.522337120883544
370.086207,,0.0032045478105500146,370.145,0.48899999260902405,-2.5350361775194945
370.55172400000004,,0.00020079671241455353,370.61,0.4729999899864197,-2.569508752013328
371.017241,,0.0026139009097421173,371.075,0.4830000102519989,-2.54733593252892
371.482759,,0.004352602287926966,371.534,0.48100000619888306,-2.5513184427110773
371.948276,,0.0052203781768655555,372.001,0.48100000619888306,-2.5509666566068496
372.413793,,0.004420459246696634,372.466,0.45399999618530273,-2.6094729063555095
372.87931000000003,,0.0021868130365443393,372.934,0.4650000035762787,-2.5852355897725463
373.344828,,0.000621170157474935,373.396,0.48899999260902405,-2.5327290862789718
373.810345,,0.0018387106487801814,373.86,0.4729999899864197,-2.5674277000838144
374.275862,,0.005370545236053714,374.33,0.47699999809265137,-2.558617471422714
374.741379,,0.0082427542968782,374.79,0.46700000762939453,-2.580375769785481
375.20689699999997,,0.007860510079849522,375.26,0.4740000069141388,-2.5651655052578133
375.672414,,0.004404329561134136,375.719,0.4860000014305115,-2.539128869814097
376.137931,,0.000342232826037153,376.189,0.47200000286102295,-2.5698002863498877
376.603448,,0.002003200862728147,376.655,0.4779999852180481,-2.5569568241685325
377.068966,,0.0022021346716970336,377.12,0.5009999871253967,-2.507126852651484
377.53448299999997,,0.0013318363398014128,377.586,0.49799999594688416,-2.5139827511402335
378.0,,0.0005647994505306748,378.045,0.503000020980835,-2.5034401380951055
378.465517,,0.0006589950756533691,378.511,0.4429999887943268,-2.6345307833602982
378.931034,,0.0021700514264304327,378.975,0.503000020980835,-2.504193940375793
379.396552,,0.004915970680252887,379.441,0.5120000243186951,-2.4849658082687007
379.862069,,0.0072639935978378554,379.908,0.4729999899864197,-2.5702980939906444
380.327586,,0.007052395178465807,380.371,0.48399999737739563,-2.5466729436763633
380.79310300000003,,0.003596518930212871,380.834,0.47999998927116394,-2.5556927108620373
381.258621,,0.001569780768123857,381.304,0.4690000116825104,-2.579918952733363
381.724138,,0.005913332721692086,381.768,0.49000000953674316,-2.5343766034715642
382.189655,,0.007709852918687975,382.23,0.4880000054836273,-2.538884398013289
382.655172,,0.007038667028537046,382.695,0.47200000286102295,-2.5738298873859433
383.12068999999997,,0.005505849525542644,383.16,0.47099998593330383,-2.576030294131889
383.586207,,0.004958682260967663,383.626,0.47999998927116394,-2.55637830381519
384.051724,,0.005916600213699355,384.093,0.47200000286102295,-2.5736986393387995
384.517241,,0.006874413321205431,384.559,0.4880000054836273,-2.5386698621110977
384.982759,,0.005524217237986344,385.024,0.47600001096725464,-2.5645866528493633
385.44827599999996,,0.0012464795992311337,385.489,0.4830000102519989,-2.5490594392795956
385.913793,,0.003830113041316354,385.949,0.46700000762939453,-2.583600162979575
386.37931,,0.006890724882391847,386.415,0.47600001096725464,-2.563643610021143
386.84482799999995,,0.007455170143034907,386.879,0.4830000102519989,-2.5480237663557994
387.310345,,0.0076879557231685,387.349,0.4860000014305115,-2.54110867958232
387.775862,,0.009654694541487457,387.812,0.48899999260902405,-2.534194973280628
388.241379,,0.012884925530167984,388.274,0.46399998664855957,-2.5882966337998723
388.70689699999997,,0.014926197116162034,388.74,0.4880000054836273,-2.5356691767677875
389.172414,,0.013961959795768898,389.204,0.49300000071525574,-2.5244707045615127
389.637931,,0.01058138045174729,389.67,0.4830000102519989,-2.545995421740439
390.103448,,0.007092432339566199,390.135,0.46799999475479126,-2.57846551565622
390.56896600000005,,0.005363157091714109,390.601,0.4699999988079071,-2.5739577716694
391.03448299999997,,0.005400782407724205,391.067,0.4650000035762787,-2.5847647485332774
391.5,,0.005873927121171346,391.533,0.47600001096725464,-2.560780110740681
391.965517,,0.005811479565135052,391.997,0.4819999933242798,-2.5477557217736426
392.431034,,0.005682353347686223,392.462,0.49399998784065247,-2.5217242534894972
392.896552,,0.0068659055311338325,392.931,0.48399999737739563,-2.543684085887892
393.36206899999996,,0.010254300606623024,393.393,0.4650000035762787,-2.58530806296763
393.827586,,0.015421436631696818,393.856,0.4259999990463257,-2.6705559938147387
394.293103,,0.020872802341308946,394.319,0.47200000286102295,-2.570662047687816
394.75862099999995,,0.02492522711120943,394.787,0.46399998664855957,-2.588447725083381
395.224138,,0.02666140304075333,395.256,0.4880000054836273,-2.5365370598416552
395.68965499999996,,0.026336566887964045,395.714,0.48100000619888306,-2.5521728120489473
396.155172,,0.02459585604546542,396.186,0.47600001096725464,-2.563447532348747
396.62069,,0.02088703703893943,396.644,0.4869999885559082,-2.539848559720035
397.086207,,0.01282496539391653,397.115,0.47999998927116394,-2.5554384067770144
397.551724,,0.0020680286289074816,397.574,0.4779999852180481,-2.560097873444426
398.017241,,0.023246648802548567,398.041,0.492000013589859,-2.529852417423701
398.48275900000004,,0.04583875917872943,398.507,0.49399998784065247,-2.525696065216141
398.94827599999996,,0.06328937986089525,398.972,0.4909999966621399,-2.532371696437565
399.413793,,0.07187659366874645,399.438,0.4690000116825104,-2.580376762245628
399.87931,,0.0723619848733123,399.901,0.47999998927116394,-2.556420097347567
400.344828,,0.06718461224852901,400.37,0.4880000054836273,-2.538932623421987
400.810345,,0.05727556772342761,400.831,0.4729999899864197,-2.571489163329918
401.27586199999996,,0.042806743026353795,401.3,0.49000000953674316,-2.5342678614817196
401.741379,,0.026094881305582112,401.764,0.47200000286102295,-2.573244103266561
402.206897,,0.01138538701662349,402.226,0.4790000021457672,-2.5577065471479923
402.672414,,0.0010270375642640827,402.692,0.47600001096725464,-2.563916939987916
403.137931,,0.00650993291907134,403.157,0.48399999737739563,-2.5461336084719943
403.60344799999996,,0.013610574471374858,403.622,0.4779999852180481,-2.5588335177842216
404.068966,,0.019565644791842963,404.09,0.4779999852180481,-2.558455180784515
404.534483,,0.021048476367816708,404.556,0.47999998927116394,-2.5537249064180796
405.0,,0.01608203841155259,405.015,0.503000020980835,-2.5032592364832373
405.465517,,0.006214982310411268,405.481,0.47099998593330383,-2.572646345696565
405.931034,,0.005163473698857358,405.953,0.4569999873638153,-2.6028557425615717
406.39655200000004,,0.015339770056402711,406.411,0.49900001287460327,-2.511108026158435
406.862069,,0.022654037009527554,406.875,0.49399998784065247,-2.521810439135521
407.327586,,0.02563708144494081,407.345,0.4699999988079071,-2.5739662476478893
407.793103,,0.02337488837861789,407.808,0.46399998664855957,-2.5869706374759307
408.258621,,0.016990863620582178,408.271,0.4830000102519989,-2.545575240314571
408.72413800000004,,0.009648098337074622,408.736,0.49000000953674316,-2.5303894006380006
409.18965499999996,,0.004068614299788733,409.2,0.3869999945163727,-2.754919927293283
409.655172,,0.0001985692898374177,409.666,0.47699999809265137,-2.559033931440763
410.12069,,0.004014880844639518,410.13,0.492000013589859,-2.5266015539670597
410.586207,,0.009636754570776777,410.596,0.4699999988079071,-2.5748245121428033
411.05172400000004,,0.01535832739773809,411.06,0.48399999737739563,-2.5446523593555384
411.51724099999996,,0.019286721826788776,411.526,0.4729999899864197,-2.568972511296827
411.982759,,0.02119365526217113,411.991,0.4560000002384186,-2.6063799555215406
412.448276,,0.02236864206819449,412.456,0.4790000021457672,-2.5566457512681007
412.913793,,0.0238451384578515,412.919,0.44600000977516174,-2.628908609677581
413.37931,,0.025304498635160648,413.389,0.4259999990463257,-2.672831541419662
413.844828,,0.025448316080540653,413.849,0.49300000071525574,-2.5271836519675452
414.31034500000004,,0.023506624154510363,414.319,0.48100000619888306,-2.553608791198764
414.775862,,0.02076425299488714,414.782,0.49000000953674316,-2.5342323230279353
415.241379,,0.020086299803805323,415.245,0.492000013589859,-2.53004913129392
415.706897,,0.023313651869631972,415.711,0.4880000054836273,-2.538875133307747
416.172414,,0.029647882704930673,416.177,0.46799999475479126,-2.582494008396812
416.63793100000004,,0.036955348784955606,416.643,0.4779999852180481,-2.5606873233004848
417.103448,,0.043860112372377615,417.108,0.46700000762939453,-2.584567207545336
417.568966,,0.05035825692513619,417.573,0.4650000035762787,-2.588777479241264
418.034483,,0.057421895889421606,418.038,0.47999998927116394,-2.5558937286610206
418.5,,0.06612193782505994,418.503,0.4749999940395355,-2.5665320597517596
418.96551700000003,,0.07582750198218659,418.968,0.47200000286102295,-2.572770330008465
419.43103399999995,,0.082852720857767,419.433,0.4690000116825104,-2.5789755661441762
419.896552,,0.08194579793921929,419.897,0.4790000021457672,-2.556835805067775
420.362069,,0.06963618381330582,420.359,0.47999998927116394,-2.554292085772022
420.827586,,0.045796255041908276,420.827,0.4909999966621399,-2.529961055933473
421.293103,,0.012684845774680547,421.289,0.47600001096725464,-2.562285437712993
421.758621,,0.02577606358817747,421.76,0.47200000286102295,-2.570666828047685
422.22413800000004,,0.06355930196305293,422.223,0.46399998664855957,-2.5877959205055907
422.689655,,0.09330096418238262,422.688,0.49900001287460327,-2.5112851415116575
423.15517200000005,,0.109420669454188,423.152,0.4779999852180481,-2.556828190975662
423.62069,,0.11117027829515473,423.618,0.492000013589859,-2.526174048130931
424.086207,,0.10272621144063757,424.085,0.47699999809265137,-2.5587613207642725
424.55172400000004,,0.0901166105793122,424.544,0.4830000102519989,-2.545660374664558
425.017241,,0.07733464513138173,425.009,0.47600001096725464,-2.560946363933234
425.482759,,0.06465067422306767,425.475,0.49000000953674316,-2.5305438684622272
425.948276,,0.05039133121790765,425.95,0.46399998664855957,-2.587347438705175
426.413793,,0.034256169299386144,426.408,0.46700000762939453,-2.5810257217244086
426.87931000000003,,0.01876410135001796,426.871,0.48399999737739563,-2.544251853851897
427.344828,,0.00748381790562164,427.334,0.4880000054836273,-2.5358401275342133
427.810345,,0.0019778308352225785,427.805,0.49000000953674316,-2.5318153514488175
428.275862,,0.0005871800493747436,428.267,0.4729999899864197,-2.5692042814695
428.741379,,0.00026726875004309174,428.733,0.4749999940395355,-2.5652076352501325
429.20689699999997,,0.0007415241031862164,429.196,0.47999998927116394,-2.5546726896807095
429.672414,,0.0025458144498385583,429.661,0.4819999933242798,-2.550659793372071
430.137931,,0.00515257323510861,430.126,0.5099999904632568,-2.489976667441209
430.603448,,0.008705862749024063,430.592,0.492000013589859,-2.529475276202449
431.068966,,0.012024529424811616,431.056,0.5,-2.5122842363549642
431.534483,,0.012755562765506143,431.521,0.492000013589859,-2.5298995486726223
432.0,,0.01000275815781089,431.986,0.4790000021457672,-2.5583509357454477
432.46551700000003,,0.005731164168439167,432.452,0.48899999260902405,-2.53663278666103
432.931034,,0.0027033015423404204,432.915,0.49000000953674316,-2.534459758962769
433.396552,,0.001775020648771911,433.385,0.4909999966621399,-2.532223942180923
433.862069,,0.001890866617723353,433.846,0.4490000009536743,-2.6236099048152104
434.327586,,0.002019776764402844,434.309,0.46799999475479126,-2.5820432651272403
434.79310300000003,,0.002135441502846629,434.779,0.4860000014305115,-2.5426055074567873
435.258621,,0.0024365157004835156,435.241,0.492000013589859,-2.5292676919870374
435.724138,,0.002592110125679379,435.706,0.48399999737739563,-2.5463951636719613
436.189655,,0.002475412505701159,436.17,0.4909999966621399,-2.530816542395233
436.655172,,0.003289101598835089,436.636,0.48100000619888306,-2.552258980506696
437.12068999999997,,0.006796035088719809,437.1,0.49000000953674316,-2.5323019830745395
437.586207,,0.012782311915670797,437.566,0.492000013589859,-2.5276011313745417
438.051724,,0.018035725250011465,438.031,0.47600001096725464,-2.5621323484591483
438.517241,,0.019060281213950297,438.497,0.47200000286102295,-2.5705469678186064
438.982759,,0.015969465945073192,438.964,0.47600001096725464,-2.5615692061042417
439.448276,,0.012807957046300226,439.429,0.48500001430511475,-2.5417429127708884
439.913793,,0.013350189191689935,439.89,0.4690000116825104,-2.576434124233184
440.37931000000003,,0.016876311130605875,440.36,0.48899999260902405,-2.532750358027614
440.844828,,0.018881666888067875,440.823,0.492000013589859,-2.52616265796596
441.310345,,0.016164091346988957,441.285,0.44699999690055847,-2.62421108827875
441.775862,,0.010495156502296682,441.756,0.47999998927116394,-2.5523862581133487
442.241379,,0.006625662973398776,442.219,0.4959999918937683,-2.51765671451757
442.70689699999997,,0.0070779860310341775,442.685,0.4560000002384186,-2.604985062480561
443.172414,,0.00974476218985426,443.145,0.46399998664855957,-2.58778697402721
443.637931,,0.01059903562860642,443.61,0.4749999940395355,-2.5640943766165347
444.103448,,0.007968511391364513,444.075,0.4790000021457672,-2.5556844340099323
444.568966,,0.003747478345228668,444.541,0.47999998927116394,-2.553832501200073
445.03448299999997,,0.0008700211983816859,445.009,0.49000000953674316,-2.532383997519317
445.5,,0.0002913373141186939,445.474,0.4749999940395355,-2.5654023575409295
445.965517,,0.0006766320706682966,445.938,0.4749999940395355,-2.565731234573664
446.431034,,0.0005419181992382088,446.401,0.47200000286102295,-2.5725763768876027
446.896552,,0.00015654521720545134,446.864,0.47200000286102295,-2.5728564022745464
447.36206899999996,,0.0007650448339737822,447.334,0.46399998664855957,-2.5905279805598362
447.827586,,0.0014601858003340854,447.797,0.492000013589859,-2.529722700373743
448.29310300000003,,0.003170057572010933,448.26,0.4819999933242798,-2.5516540480280776
448.758621,,0.0059993807619942285,448.725,0.4860000014305115,-2.5430275040921937
449.224138,,0.008515125946143457,449.195,0.47200000286102295,-2.5735576685500225
449.689655,,0.009185095540157255,449.654,0.4779999852180481,-2.560455558351415
450.155172,,0.008157576412664399,450.119,0.4519999921321869,-2.6170125551937082
450.62068999999997,,0.006861355030622161,450.585,0.47600001096725464,-2.56458284585809
451.086207,,0.006093838113038151,451.049,0.45500001311302185,-2.6101428047094672
451.551724,,0.005558064026282783,451.515,0.4959999918937683,-2.5205827182507776
452.017241,,0.005283386156234777,451.982,0.4779999852180481,-2.559525773564695
452.482759,,0.006153281268831445,452.448,0.48899999260902405,-2.535259208566518
452.94827599999996,,0.008386940530557208,452.911,0.4880000054836273,-2.5371171706644464
453.413793,,0.010494444994117658,453.374,0.4699999988079071,-2.576003292587563
453.87931,,0.010725616750786232,453.842,0.4699999988079071,-2.57567591434552
454.344828,,0.009230024235746596,454.304,0.4880000054836273,-2.536145361303224
454.810345,,0.007923762193805514,454.775,0.4729999899864197,-2.5685323108717086
455.27586199999996,,0.008019901649163956,455.237,0.4779999852180481,-2.5573775903224374
455.741379,,0.008255795088264935,455.703,0.47999998927116394,-2.5527983581069407
456.206897,,0.00615860040931401,456.167,0.3100000023841858,-2.922996231813443
456.672414,,0.0010509193729047132,456.633,0.4790000021457672,-2.554689877460694
457.137931,,0.004660561181840347,457.098,0.47999998927116394,-2.5524545132848644
457.603448,,0.00748651396452855,457.564,0.4959999918937683,-2.5175950728668277
458.06896600000005,,0.006091517564275229,458.024,0.48899999260902405,-2.532899344621129
458.53448299999997,,0.002359312673207933,458.49,0.4860000014305115,-2.5395416904718653
459.0,,0.0007512352327375846,458.956,0.4690000116825104,-2.576734672796737
459.465517,,0.0019903864897405973,459.422,0.45899999141693115,-2.5987224057696157
459.931034,,0.002119429499442255,459.89,0.4779999852180481,-2.557568265240838
460.39655200000004,,0.0019853212297731796,460.352,0.47600001096725464,-2.5621964218939786
460.86206899999996,,0.001342191749610926,460.816,0.47600001096725464,-2.5624891136672265
461.327586,,0.00023840942111074035,461.285,0.49000000953674316,-2.532292983473733
461.793103,,0.002184457202108406,461.744,0.47600001096725464,-2.563101433478004
462.258621,,0.0032975230009949902,462.21,0.4860000014305115,-2.541615224085029
462.724138,,0.0029841787981406053,462.675,0.4690000116825104,-2.5789363259223754
463.18965499999996,,0.0017658932774211266,463.142,0.4970000088214874,-2.518193291677905
463.655172,,0.001018890409216671,463.608,0.5789999961853027,-2.339768165851422
464.12069,,0.002438121681531313,464.075,0.4860000014305115,-2.542563094453384
464.58620699999994,,0.00671229602991223,464.534,0.47200000286102295,-2.5731983290108404
465.051724,,0.011919087894711885,465.002,0.4749999940395355,-2.566748788308764
465.517241,,0.014408777692334614,465.467,0.4699999988079071,-2.5776788436150135
465.98275900000004,,0.012737233032109182,465.93,0.45899999141693115,-2.6016310651195234
466.448276,,0.009983955564767263,466.4,0.47200000286102295,-2.5732471500102005
466.913793,,0.010608169624979291,466.86,0.4869999885559082,-2.540459340032933
467.37931,,0.01532471375370776,467.33,0.49000000953674316,-2.5337715381339736
467.844828,,0.02041472939908664,467.793,0.4950000047683716,-2.5226874119489504
468.31034500000004,,0.021960719782954562,468.256,0.47600001096725464,-2.5638581460606953
468.77586199999996,,0.019470019137398285,468.721,0.503000020980835,-2.504785645812932
469.241379,,0.014888656873029258,469.184,0.4790000021457672,-2.556806690363195
469.706897,,0.009063308717428512,469.65,0.48399999737739563,-2.545637955135484
470.172414,,0.0006239497248900636,470.115,0.4779999852180481,-2.5584344283480593
470.63793100000004,,0.011229066904330448,470.581,0.46000000834465027,-2.5973836299795883
471.10344799999996,,0.02395310508921004,471.046,0.4779999852180481,-2.557919127410152
471.568966,,0.032929654800062984,471.512,0.5019999742507935,-2.505406927566093
472.034483,,0.0354941210632243,471.979,0.46399998664855957,-2.5880012325908357
472.5,,0.03308967506059629,472.444,0.4909999966621399,-2.5290197109568617
472.965517,,0.029390280740832525,472.905,0.4699999988079071,-2.5746542412025297
473.43103399999995,,0.026655449021385957,473.375,0.5289999842643738,-2.4460400121099144
473.89655200000004,,0.02401148941685383,473.838,0.4779999852180481,-2.557121197003704
474.362069,,0.019074459619206917,474.3,0.4790000021457672,-2.554957816075824
474.827586,,0.010936225519440589,474.768,0.4749999940395355,-2.56373299156254
475.293103,,0.0013775638842274745,475.231,0.49000000953674316,-2.5311565325501255
475.758621,,0.006727272426981811,475.697,0.46399998664855957,-2.587943878322091
476.22413800000004,,0.011984269700388572,476.163,0.48399999737739563,-2.54454788598075
476.689655,,0.01549788289529702,476.629,0.48100000619888306,-2.551289378782134
477.155172,,0.019495986526054183,477.093,0.4779999852180481,-2.5580526108771826
477.62069,,0.0249068022799639,477.559,0.4830000102519989,-2.547401034140941
478.086207,,0.030060866291057444,478.019,0.48500001430511475,-2.5432921372491353
478.55172400000004,,0.031746479193036914,478.485,0.47699999809265137,-2.560968696818303
479.01724099999996,,0.027956362501434153,478.949,0.47600001096725464,-2.5633862258252607
479.482759,,0.020062164479309388,479.415,0.46700000762939453,-2.5832176368415714
479.948276,,0.012142414458272601,479.886,0.45899999141693115,-2.60084884687684
480.413793,,0.007442592799421978,480.348,0.49000000953674316,-2.5334849490060725
480.87931000000003,,0.0050751072775032605,480.812,0.47999998927116394,-2.5554120999110133
481.344828,,0.0007137924213061482,481.274,0.47999998927116394,-2.5555148361711306
481.810345,,0.008772578466269214,481.74,0.4749999940395355,-2.5664704180130467
482.275862,,0.021653887302228187,482.204,0.4779999852180481,-2.5599550691601327
482.74137900000005,,0.03288694107133727,482.67,0.4650000035762787,-2.588256310222654
483.206897,,0.03875546742976398,483.134,0.4650000035762787,-2.588194934897532
483.672414,,0.039051268552877216,483.6,0.48899999260902405,-2.5358078900854113
484.13793100000004,,0.03548768072983807,484.067,0.5090000033378601,-2.492099470056312
484.603448,,0.029757661665931075,484.533,0.4869999885559082,-2.5398622245027824
485.068966,,0.023191134449634877,484.997,0.49000000953674316,-2.5331324715577743
485.534483,,0.01668532598774174,485.463,0.5049999952316284,-2.500239176818365
486.0,,0.010084196138206419,485.931,0.47999998927116394,-2.554478793188705
486.46551700000003,,0.002168411372920679,486.393,0.4790000021457672,-2.5564257238904506
486.931034,,0.007896849797665485,486.856,0.492000013589859,-2.5278741660488437
487.396552,,0.018746100290317702,487.319,0.47200000286102295,-2.5712278271035003
487.862069,,0.026819508448149374,487.79,0.47699999809265137,-2.5601322603448113
488.327586,,0.028917228774006192,488.252,0.48899999260902405,-2.5338093690447945
488.79310300000003,,0.024790084694427967,488.718,0.47200000286102295,-2.570695695520275
489.258621,,0.01666441088735636,489.181,0.4749999940395355,-2.5640423254222693
489.724138,,0.006620709186601155,489.647,0.48899999260902405,-2.533460341593758
490.189655,,0.004319257928337683,490.112,0.4650000035762787,-2.5857055619435236
490.655172,,0.014560046244489002,490.578,0.4830000102519989,-2.5464872747000977
491.12069,,0.021106579601269056,491.045,0.4659999907016754,-2.5835612175017957
491.586207,,0.02162706798003111,491.504,0.47200000286102295,-2.570564133838637
492.05172400000004,,0.016955580363289844,491.975,0.4869999885559082,-2.537994181897292
492.517241,,0.010589730469821205,492.44,0.46700000762939453,-2.5817075346421516
492.982759,,0.005474314876587761,492.904,0.49000000953674316,-2.5317647989433443
493.448276,,0.0016486754738100325,493.367,0.47200000286102295,-2.5711666738362187
493.913793,,0.002796274220300706,493.83,0.48899999260902405,-2.534329494081657
494.37931000000003,,0.008707672360160186,494.3,0.47099998593330383,-2.573752133570617
494.844828,,0.014209398929821496,494.761,0.47699999809265137,-2.5608877593051718
495.310345,,0.016529498350261827,495.23,0.4779999852180481,-2.5589107117437506
495.775862,,0.015597416190419454,495.696,0.4740000069141388,-2.5678143794951827
496.241379,,0.014927498458001849,496.159,0.48500001430511475,-2.544019879783082
496.70689699999997,,0.01799254524354594,496.625,0.48100000619888306,-2.5528811686666786
497.172414,,0.024205395842134526,497.091,0.5019999742507935,-2.507247430149657
497.637931,,0.029586848441378693,497.549,0.47999998927116394,-2.555262948269822
498.103448,,0.03129576586255169,498.015,0.492000013589859,-2.5291697296129554
498.568966,,0.030445962984117877,498.481,0.546999990940094,-2.409357871621511
499.03448299999997,,0.030147464685879657,498.953,0.48100000619888306,-2.553124757004604
499.5,,0.031709430512126976,499.411,0.492000013589859,-2.529100602175883
499.96551700000003,,0.03371745914801508,499.875,0.48500001430511475,-2.5442606257923144
500.431034,,0.03433491573078937,500.345,0.4699999988079071,-2.576822280451141
500.89655200000004,,0.03292723286563847,500.808,0.4819999933242798,-2.550537680511275
501.362069,,0.029032014810087124,501.271,0.49000000953674316,-2.532949689749015
501.827586,,0.021288659246308336,501.736,0.47600001096725464,-2.5632793841350305
502.293103,,0.008607336458033436,502.199,0.4740000069141388,-2.5674589658360203
502.758621,,0.008139440445891901,502.665,0.492000013589859,-2.5280651822821847
503.224138,,0.02615344242856658,503.134,0.5009999871253967,-2.5082840229805967
503.68965499999996,,0.04184068236365795,503.599,0.4860000014305115,-2.540800289594718
504.15517200000005,,0.05171079389784931,504.064,0.48100000619888306,-2.551545708719504
504.62068999999997,,0.05349510984004324,504.529,0.47200000286102295,-2.5710266023225885
505.08620699999994,,0.047945379901769586,504.99,0.46000000834465027,-2.597068752230097
505.55172400000004,,0.039582031312108634,505.455,0.47200000286102295,-2.5708519380924866
506.017241,,0.03413828063664157,505.923,0.4749999940395355,-2.5642731173230056
506.48275899999993,,0.033810831377665426,506.386,0.4650000035762787,-2.5860474474423647
506.948276,,0.035198708988617586,506.849,0.4790000021457672,-2.555564714759027
507.413793,,0.03303734493784839,507.319,0.4659999907016754,-2.5839345818572195
507.87931,,0.026077314124441055,507.782,0.4790000021457672,-2.5556862255735675
508.344828,,0.018320176888390934,508.245,0.47600001096725464,-2.5623195888556665
508.810345,,0.014216344919818786,508.711,0.49900001287460327,-2.5123269263678423
509.27586199999996,,0.013760092403757663,509.177,0.47999998927116394,-2.553851502212954
509.74137900000005,,0.013213672214381699,509.642,0.5,-2.510417670388867
510.20689699999997,,0.00978789273281151,510.108,0.4970000088214874,-2.517096415536703
510.67241399999995,,0.004042699544167777,510.574,0.4749999940395355,-2.56516834532487
511.13793100000004,,0.0019422543438825392,511.039,0.49000000953674316,-2.532624772109681
511.603448,,0.006704327487626765,511.504,0.46399998664855957,-2.5893963194239893
512.0689659999999,,0.00937059260408846,511.964,0.48399999737739563,-2.545936596183241
512.534483,,0.009497331134283018,512.429,0.47600001096725464,-2.5634620791372265
513.0,,0.007930525373696241,512.897,0.49000000953674316,-2.533037149556355
513.465517,,0.006643284472593006,513.359,0.49000000953674316,-2.533090678116292
513.931034,,0.006893918017019621,513.83,0.49000000953674316,-2.533120071049938
514.396552,,0.008136434601530051,514.293,0.47699999809265137,-2.5614476778227364
514.862069,,0.00904256334738338,514.761,0.4830000102519989,-2.5483575294466037
515.327586,,0.00896413503971434,515.224,0.45100000500679016,-2.6180346560575805
515.793103,,0.008173358478116965,515.69,0.46700000762939453,-2.5831179775699162
516.258621,,0.007342150013205964,516.149,0.4339999854564667,-2.6549397550669536
516.724138,,0.007177251094563091,516.614,0.48500001430511475,-2.5437424847607675
517.189655,,0.008097052792565647,517.086,0.46799999475479126,-2.5806834412152853
517.655172,,0.009946828784893993,517.545,0.4650000035762787,-2.5871165520497406
518.1206900000001,,0.012405676432032388,518.012,0.4790000021457672,-2.5565098509895487
518.5862070000001,,0.0157176335076263,518.478,0.4819999933242798,-2.5498687118900407
519.051724,,0.020377092063882864,518.95,0.5120000243186951,-2.484407049176485
519.517241,,0.026100777107915096,519.408,0.47200000286102295,-2.5714570627145825
519.982759,,0.0321134410639017,519.871,0.47999998927116394,-2.553941987530178
520.448276,,0.038656317080149556,520.334,0.4779999852180481,-2.558226742313148
520.9137929999999,,0.04681227012238518,520.805,0.4779999852180481,-2.5581697243021235
521.37931,,0.05576973549381139,521.267,0.4970000088214874,-2.51673519134659
521.844828,,0.061226756744907906,521.733,0.49300000071525574,-2.5254269278633372
522.310345,,0.05819426816851614,522.196,0.48399999737739563,-2.545029549518646
522.7758620000001,,0.045513991168631356,522.661,0.4880000054836273,-2.5363274968578318
523.241379,,0.02650023210825075,523.126,0.5979999899864197,-2.29670362439537
523.7068969999999,,0.005061137275451098,523.592,0.4790000021457672,-2.5560020929159175
524.172414,,0.01734698798437505,524.056,0.5009999871253967,-2.508123233336565
524.637931,,0.04007950013405197,524.522,0.4860000014305115,-2.540866272478189
525.103448,,0.059822971860771096,524.989,0.49399998784065247,-2.5235101079230415
525.568966,,0.07073005413710794,525.455,0.4880000054836273,-2.5366621520769157
526.034483,,0.06898684104130573,525.916,0.49799999594688416,-2.51496015195048
526.5,,0.056821669829084605,526.385,0.5339999794960022,-2.436613732752926
526.9655170000001,,0.041076715224628135,526.846,0.5009999871253967,-2.5085907259752482
527.4310340000001,,0.027647058318578038,527.315,0.5040000081062317,-2.5021308162561997
527.8965519999999,,0.018009679735906163,527.779,0.5220000147819519,-2.4629834426428765
528.362069,,0.011132643654279807,528.241,0.5170000195503235,-2.473934508201925
528.827586,,0.006973746471551842,528.707,0.5400000214576721,-2.4238706385509188
529.293103,,0.0065374507786503675,529.17,0.527999997138977,-2.4500450626974604
529.7586210000001,,0.009363694771561258,529.636,0.5009999871253967,-2.5088846138424734
530.224138,,0.012894466636013256,530.1,0.5189999938011169,-2.4696711560553593
530.689655,,0.014578001988096317,530.566,0.5249999761581421,-2.456587913047398
531.155172,,0.013551295391545603,531.031,0.5180000066757202,-2.4718138236272273
531.62069,,0.010279557344972975,531.496,0.5,-2.510993588239828
532.086207,,0.005815978827147575,531.962,0.5299999713897705,-2.445588803147814
532.5517239999999,,0.001819570595100932,532.428,0.5070000290870667,-2.49564442250785
533.017241,,5.132082155622694e-05,532.89,0.5170000195503235,-2.4737992519753047
533.482759,,0.0006441610399855045,533.36,0.5320000052452087,-2.441057435268589
533.9482760000001,,0.0011617015474969703,533.823,0.5270000100135803,-2.4518868812971975
534.413793,,0.0015239344673614226,534.286,0.5180000066757202,-2.471431728317709
534.87931,,0.007920621261648032,534.757,0.5389999747276306,-2.4256202951025916
535.344828,,0.014823389102455163,535.219,0.5419999957084656,-2.419029041076963
535.810345,,0.01801890348855538,535.684,0.5419999957084656,-2.41897983003694
536.275862,,0.016298739058387322,536.149,0.5339999794960022,-2.4363676991845438
536.7413789999999,,0.012747353017264039,536.615,0.527999997138977,-2.4494078647336193
537.206897,,0.011762800356822724,537.075,0.5419999957084656,-2.418885901893811
537.672414,,0.014464050256961961,537.54,0.546999990940094,-2.4079827215586405
538.137931,,0.017237272960132922,538.005,0.5460000038146973,-2.4101621209590487
538.6034480000001,,0.015527241447242924,538.471,0.5139999985694885,-2.479890790007486
539.0689659999999,,0.009132980927399455,538.934,0.5519999861717224,-2.397125072507875
539.5344829999999,,0.0027017373764002236,539.404,0.5460000038146973,-2.4102292188061525
540.0,,0.00038387618474686354,539.867,0.5440000295639038,-2.4146263635476877
540.465517,,0.001151287856016275,540.33,0.6039999723434448,-2.2839525629036146
540.931034,,0.0006905637971900969,540.798,0.5630000233650208,-2.3733240991838436
541.396552,,0.002932842228699372,541.26,0.5299999713897705,-2.4452680121157253
541.862069,,0.0074118196941136754,541.726,0.5809999704360962,-2.3342059973972695
542.327586,,0.009893065967214251,542.196,0.5669999718666077,-2.364754202531758
542.7931030000001,,0.010352643045759995,542.654,0.578000009059906,-2.340831940296901
543.258621,,0.010122464656411798,543.119,0.5210000276565552,-2.4650532821731987
543.7241379999999,,0.008713932065331567,543.584,0.5910000205039978,-2.312581113584452
544.189655,,0.004488946216543815,544.049,0.5699999928474426,-2.358358848765947
544.655172,,0.0017445243838674416,544.515,0.6029999852180481,-2.286480460288417
545.12069,,0.006278980538179877,544.982,0.5989999771118164,-2.2952020222895877
545.5862070000001,,0.006474754990237722,545.448,0.5830000042915344,-2.3300571955124303
546.051724,,0.0033614433242938565,545.916,0.5889999866485596,-2.3169731965449065
546.517241,,0.0005420318574812016,546.378,0.5820000171661377,-2.3322036620090714
546.982759,,0.004075074002048561,546.845,0.578000009059906,-2.3408918245844523
547.448276,,0.006777940660074218,547.308,0.5879999995231628,-2.319073990402143
547.9137929999999,,0.0072652888426981786,547.771,0.6029999852180481,-2.286359026487215
548.3793099999999,,0.004666435935955662,548.234,0.5830000042915344,-2.329894167014459
548.844828,,0.0009967785295421513,548.7,0.5879999995231628,-2.318962752468401
549.310345,,0.00046509227378610605,549.171,0.6190000176429749,-2.2513874165945684
549.775862,,0.0004869196913117197,549.629,0.5210000276565552,-2.4648611429087377
550.241379,,0.0004406961671401747,550.101,0.6069999933242798,-2.277469802847301
550.706897,,0.0029798042500525554,550.559,0.6240000128746033,-2.2404109465469126
551.172414,,0.007822287730629585,551.024,0.6039999723434448,-2.2839671146229974
551.637931,,0.010587409484698452,551.49,0.5989999771118164,-2.2948495776388
552.103448,,0.010764697190438328,551.957,0.6019999980926514,-2.288309930469542
552.568966,,0.01051950316720515,552.423,0.593999981880188,-2.3057429335357136
553.034483,,0.010730696794927469,552.886,0.5989999771118164,-2.294860905419773
553.5,,0.010156935921883062,553.356,0.5889999866485596,-2.3166656998844113
553.965517,,0.009022010301662971,553.816,0.5960000157356262,-2.3014398953396737
554.4310340000001,,0.010549562972786433,554.285,0.5709999799728394,-2.3559368018447326
554.896552,,0.016944655185944874,554.744,0.5929999947547913,-2.3080419162911254
555.3620689999999,,0.02557964349697076,555.21,0.6060000061988831,-2.27975751812026
555.827586,,0.03133224139505389,555.675,0.5899999737739563,-2.314654341215631
556.293103,,0.031845448246915035,556.142,0.6060000061988831,-2.279832822324463
556.758621,,0.028827603629609,556.608,0.578000009059906,-2.34086898745617
557.224138,,0.02487180537545644,557.075,0.6019999980926514,-2.2886111203508284
557.689655,,0.020641184339886504,557.541,0.5529999732971191,-2.395389405980705
558.155172,,0.015162668787946964,558.001,0.5860000252723694,-2.3235124437937533
558.6206900000001,,0.00757666709180594,558.467,0.5699999928474426,-2.3583824674139042
559.0862070000001,,0.0022253417293994554,558.935,0.5830000042915344,-2.330063387768628
559.5517239999999,,0.01413415009831806,559.397,0.5730000138282776,-2.3518444585711347
560.017241,,0.02767328717875239,559.86,0.550000011920929,-2.401939496897972
560.482759,,0.041081722494246596,560.33,0.5540000200271606,-2.393203508452592
560.948276,,0.05178574520536322,560.793,0.5809999704360962,-2.3343513401058793
561.413793,,0.0582989204610526,561.256,0.550000011920929,-2.401853366151207
561.87931,,0.06069414395165584,561.721,0.5429999828338623,-2.4170624055204915
562.344828,,0.059113899768509066,562.184,0.5709999799728394,-2.3560145810048856
562.8103450000001,,0.05324011697975953,562.649,0.5320000052452087,-2.4409332683762206
563.275862,,0.04360411700584208,563.116,0.5270000100135803,-2.4517775277584244
563.7413789999999,,0.03201829165527728,563.582,0.5450000166893005,-2.4125145800682866
564.206897,,0.019968596488353096,564.049,0.515999972820282,-2.475651463081536
564.672414,,0.007547020903391238,564.514,0.527999997138977,-2.44946873917152
565.137931,,0.005166984284921914,564.979,0.5339999794960022,-2.4363644152060115
565.603448,,0.016428716818696357,565.445,0.5070000290870667,-2.49516290915065
566.068966,,0.023986674510901498,565.905,0.4970000088214874,-2.516933970173699
566.534483,,0.02802108400207978,566.374,0.515999972820282,-2.4755347093449367
567.0,,0.03140645761478055,566.838,0.4880000054836273,-2.536542401383368
567.465517,,0.03614369066227424,567.3,0.515999972820282,-2.475556367323502
567.931034,,0.04058399921269457,567.764,0.4970000088214874,-2.516976368814701
568.396552,,0.04127137782962142,568.234,0.5210000276565552,-2.464722902522346
568.862069,,0.036771403395827046,568.699,0.5090000033378601,-2.49090770510157
569.327586,,0.028439684570317793,569.164,0.5529999732971191,-2.3950926238843393
569.793103,,0.017829366049990115,569.629,0.47600001096725464,-2.5628967884232057
570.2586210000001,,0.0050792720974000725,570.093,0.48899999260902405,-2.534625577152135
570.724138,,0.009213957026989425,570.559,0.492000013589859,-2.528142772846696
571.189655,,0.021686620489010513,571.023,0.5130000114440918,-2.482443650558958
571.655172,,0.027780034617154357,571.489,0.5180000066757202,-2.471599376690712
572.12069,,0.02620920991593255,571.949,0.5040000081062317,-2.5021437639783968
572.586207,,0.020798674413660803,572.415,0.49900001287460327,-2.513073578911528
573.051724,,0.016939109130209733,572.882,0.4959999918937683,-2.519638589866386
573.517241,,0.016388026514918153,573.345,0.515999972820282,-2.476085848962995
573.982759,,0.01617762260075598,573.812,0.43799999356269836,-2.6460318165060555
574.4482760000001,,0.012700276172219976,574.275,0.503000020980835,-2.5044229314307738
574.913793,,0.006008090154586862,574.74,0.49000000953674316,-2.532739783477683
575.37931,,0.0007170032607782482,575.204,0.49399998784065247,-2.524009851576551
575.844828,,0.005252791627973566,575.67,0.5009999871253967,-2.508734477749699
576.310345,,0.008384314688254782,576.134,0.5090000033378601,-2.491271175079605
576.775862,,0.011821631275536731,576.6,0.5040000081062317,-2.5021217928497355
577.241379,,0.015650309592171497,577.067,0.4950000047683716,-2.5216800519311158
577.706897,,0.01879747208905193,577.533,0.5090000033378601,-2.4911242113496286
578.172414,,0.021199180777993876,577.998,0.5049999952316284,-2.4997804832887436
578.6379310000001,,0.024161944577080097,578.463,0.5249999761581421,-2.4561471456822614
579.1034480000001,,0.028287303495705608,578.931,0.492000013589859,-2.5279821357079184
579.5689659999999,,0.031830459989730726,579.393,0.5149999856948853,-2.4778155855365456
580.034483,,0.031740176385761404,579.856,0.5019999742507935,-2.506085203002223
580.5,,0.02609405420444322,580.319,0.492000013589859,-2.5278258648484226
580.965517,,0.01523103382454638,580.786,0.5009999871253967,-2.5081816978130367
581.431034,,0.0009674665576360753,581.256,0.503000020980835,-2.503798622039631
581.896552,,0.014511987144869823,581.714,0.503000020980835,-2.50378449696554
582.362069,,0.028812176970298396,582.186,0.4909999966621399,-2.5299267339868114
582.827586,,0.03919969537574988,582.644,0.5170000195503235,-2.4732929977064377
583.2931030000001,,0.043576893063569544,583.115,0.49000000953674316,-2.532140170895525
583.758621,,0.04208228616549188,583.581,0.5230000019073486,-2.4602801522978
584.2241379999999,,0.03705436627845197,584.046,0.503000020980835,-2.5038989121926414
584.689655,,0.030732375200977328,584.504,0.4970000088214874,-2.5170259637305024
585.155172,,0.023339169721353997,584.976,0.4959999918937683,-2.519268006120946
585.6206900000001,,0.014119371854936348,585.434,0.5080000162124634,-2.493193638928776
586.0862070000001,,0.003980183977327978,585.904,0.6060000061988831,-2.279757084393696
586.551724,,0.004123799962166256,586.367,0.5049999952316284,-2.4998689683851203
587.017241,,0.008121138661524637,586.834,0.5070000290870667,-2.495576835590805
587.482759,,0.00937704175412774,587.297,0.5019999742507935,-2.5065322123613187
587.948276,,0.011195352604387766,587.765,0.49000000953674316,-2.532733054578157
588.4137929999999,,0.014863198607689889,588.227,0.5130000114440918,-2.482674545600885
588.87931,,0.018167579030691394,588.693,0.4959999918937683,-2.519753261284303
589.344828,,0.018113505248251168,589.16,0.5019999742507935,-2.5067128042171514
589.810345,,0.014377589191126038,589.625,0.4959999918937683,-2.519804778026459
590.2758620000001,,0.009579479225375694,590.091,0.5070000290870667,-2.4958473642656345
590.741379,,0.006580328310881356,590.549,0.5019999742507935,-2.5067354585133885
591.2068969999999,,0.006101295983644571,591.016,0.503000020980835,-2.504538155595322
591.672414,,0.006825551482845271,591.482,0.515999972820282,-2.476184060463487
592.137931,,0.007136871010037913,591.949,0.4959999918937683,-2.519712598623496
592.603448,,0.006512508734362205,592.415,0.5139999985694885,-2.4804411391455625
593.068966,,0.005751683541175601,592.875,0.5099999904632568,-2.4890899341849093
593.534483,,0.006241350084412248,593.345,0.5059999823570251,-2.4977304388664283
594.0,,0.008553839914595657,593.805,0.503000020980835,-2.5041863835578213
594.4655170000001,,0.011373908416722906,594.275,0.48399999737739563,-2.5454980220207326
594.9310340000001,,0.012395334173986531,594.74,0.4950000047683716,-2.5214504136369076
595.3965519999999,,0.010954743416059719,595.204,0.47999998927116394,-2.5540508404096927
595.862069,,0.009437792721367,595.67,0.5120000243186951,-2.484260010172531
596.327586,,0.01133897754743536,596.135,0.5080000162124634,-2.4929075362451236
596.793103,,0.017841018839281467,596.6,0.515999972820282,-2.475419836089408
597.2586210000001,,0.026607907854475244,597.06,0.5,-2.5102301191050373
597.724138,,0.033795375345241144,597.525,0.5370000004768372,-2.429584083222198
598.189655,,0.03672233964107918,597.99,0.515999972820282,-2.4753125081522276
598.655172,,0.03457116833819748,598.456,0.492000013589859,-2.5275910887126174
599.12069,,0.027274014841298398,598.919,0.47200000286102295,-2.5711718678126294
599.586207,,0.014440245240611655,599.389,0.49000000953674316,-2.5319816060657545
600.0517239999999,,0.004460875377068702,599.849,0.5040000081062317,-2.501522587341287
600.517241,,0.02853224233634709,600.319,0.5049999952316284,-2.4994007375739398
600.982759,,0.053534019632037584,600.782,0.5139999985694885,-2.479862358762127
601.448276,,0.07219356355278453,601.245,0.5009999871253967,-2.5082649260526804
601.913793,,0.07833558869420654,601.711,0.49799999594688416,-2.514889644253761
602.37931,,0.071733216171083,602.177,0.5460000038146973,-2.410408769491682
602.844828,,0.058120281834284755,602.643,0.49000000953674316,-2.532509411935782
603.310345,,0.043697584235378915,603.108,0.492000013589859,-2.528248639046116
603.775862,,0.030230951931885804,603.574,0.5090000033378601,-2.491306077770977
604.2413789999999,,0.01604995077283097,604.039,0.5109999775886536,-2.4870375209801434
604.706897,,0.0005380994805013099,604.505,0.5090000033378601,-2.491474477487459
605.172414,,0.014260388556464642,604.965,0.5099999904632568,-2.4893640102707897
605.637931,,0.026105923542321396,605.43,0.49799999594688416,-2.5155623251523775
606.1034480000001,,0.03445093960547541,605.9,0.5080000162124634,-2.4938150552776976
606.5689659999999,,0.0394840445313814,606.362,0.49900001287460327,-2.51344546576925
607.0344829999999,,0.04119747901819795,606.831,0.5080000162124634,-2.493842483341134
607.5,,0.04012112761419995,607.293,0.4729999899864197,-2.57008248568702
607.965517,,0.03751937502987457,607.756,0.4860000014305115,-2.5417305734154736
608.431034,,0.03412303903801044,608.219,0.4880000054836273,-2.537327835202147
608.896552,,0.02958427402073191,608.685,0.4909999966621399,-2.530731132875841
609.362069,,0.02343994304108155,609.15,0.49799999594688416,-2.515405669054444
609.827586,,0.01563852797832819,609.616,0.503000020980835,-2.5044248122876773
610.293103,,0.005984862122775542,610.082,0.5139999985694885,-2.480361351759786
610.758621,,0.005816668384020982,610.548,0.49000000953674316,-2.5325424143420374
611.2241379999999,,0.019153018269971952,611.012,0.49000000953674316,-2.532431544093349
611.689655,,0.03226096407272489,611.477,0.40299999713897705,-2.7218641340702705
612.155172,,0.04315441115801703,611.949,0.4729999899864197,-2.569254896275373
612.62069,,0.05025255512040434,612.407,0.47200000286102295,-2.57133783782075
613.0862070000001,,0.05255957686804503,612.875,0.4790000021457672,-2.5560010578423173
613.551724,,0.050356203585264825,613.337,0.4779999852180481,-2.5581051806967063
614.017241,,0.0453647796128661,613.801,0.43799999356269836,-2.6451910345276657
614.4827590000001,,0.03900942888107363,614.271,0.4659999907016754,-2.5841459421788895
614.948276,,0.030940889981980562,614.729,0.5460000038146973,-2.409827640662968
615.4137929999999,,0.020635924082552482,615.199,0.4690000116825104,-2.577572546746342
615.8793099999999,,0.009969468455254508,615.665,0.5540000200271606,-2.3923917423144885
616.344828,,0.002438292979979696,616.13,0.4790000021457672,-2.5558100657555287
616.810345,,0.00045396866578048105,616.589,0.48100000619888306,-2.551488446406366
617.275862,,0.0008795642820045681,617.061,0.45899999141693115,-2.5994716027044147
617.741379,,0.0023282380232751256,617.519,0.47200000286102295,-2.571218490286058
618.206897,,0.006284540912980766,617.986,0.47699999809265137,-2.5604092540108137
618.672414,,0.011735877393327205,618.452,0.46799999475479126,-2.580113326659578
619.137931,,0.017319096149404856,618.92,0.4519999921321869,-2.615078145914323
619.603448,,0.022682640289703408,619.382,0.45899999141693115,-2.5999419426255783
620.068966,,0.027357574498082037,619.845,0.48100000619888306,-2.5521302617253943
620.534483,,0.0295799938815825,620.315,0.46399998664855957,-2.589286181319863
621.0,,0.027833622474366108,620.775,0.4650000035762787,-2.587223220416603
621.465517,,0.023586605354394583,621.246,0.49000000953674316,-2.5328658972391724
621.9310340000001,,0.021076270844380462,621.704,0.4729999899864197,-2.570001095330906
622.396552,,0.02320601190266048,622.174,0.46399998664855957,-2.58969351547794
622.862069,,0.027769545684443873,622.64,0.4880000054836273,-2.5374743948829677
623.327586,,0.028680176465589482,623.104,0.4950000047683716,-2.5222731377903806
623.793103,,0.021604642319849585,623.57,0.4749999940395355,-2.5658741508567595
624.258621,,0.008301400601009826,624.034,0.4490000009536743,-2.622525752222782
624.724138,,0.004871923599811369,624.5,0.4690000116825104,-2.578938708273657
625.189655,,0.012560673102019962,624.964,0.4729999899864197,-2.570189120236363
625.655172,,0.014316972199705146,625.429,0.49799999594688416,-2.5156665577827497
626.1206900000001,,0.013483776957724854,625.89,0.45100000500679016,-2.617986688759028
626.5862070000001,,0.013175451802730291,626.359,0.46399998664855957,-2.5895709226801187
627.0517239999999,,0.013641498789326049,626.82,0.4779999852180481,-2.5589621148053374
627.5172409999999,,0.013047268449529763,627.289,0.45100000500679016,-2.617666222654707
627.982759,,0.010285359140336636,627.753,0.47200000286102295,-2.5717872516246487
628.448276,,0.006588331854393417,628.215,0.46399998664855957,-2.589084649991114
628.913793,,0.003891268624551133,628.681,0.4569999873638153,-2.60420268715681
629.37931,,0.00187236265372779,629.145,0.47200000286102295,-2.5713937034230203
629.844828,,0.0020637457592121615,629.611,0.453000009059906,-2.612665816748755
630.3103450000001,,0.009219132015911522,630.076,0.45500001311302185,-2.608197315609239
630.7758620000001,,0.01710998730667633,630.541,0.4519999921321869,-2.614636793078397
631.2413789999999,,0.021633659140376484,631.008,0.45399999618530273,-2.6102005993099087
631.706897,,0.021354135800044794,631.473,0.44699999690055847,-2.6253924082936875
632.172414,,0.01887087571446907,631.936,0.4690000116825104,-2.57742515187856
632.637931,,0.018044039432897622,632.399,0.4650000035762787,-2.5861252015508778
633.103448,,0.020426614870735948,632.868,0.453000009059906,-2.6122773223216784
633.568966,,0.024518747714294808,633.329,0.46399998664855957,-2.5883437142662507
634.034483,,0.027836982568233432,633.797,0.3720000088214874,-2.7888347998973066
634.5,,0.02887268730011715,634.26,0.45500001311302185,-2.608086404243507
634.9655170000001,,0.027273932807493625,634.725,0.44699999690055847,-2.625615687199256
635.431034,,0.023511947860013052,635.196,0.453000009059906,-2.6126600295695903
635.8965519999999,,0.01909825944308761,635.654,0.4659999907016754,-2.584466308434078
636.362069,,0.016093638126138607,636.12,0.46399998664855957,-2.588960297473948
636.827586,,0.015098994039214499,636.585,0.4569999873638153,-2.6043514109849473
637.293103,,0.013912231979629219,637.05,0.4259999990463257,-2.6720306697662046
637.7586210000001,,0.009171687753328243,637.515,0.4620000123977661,-2.5937374207788206
638.224138,,0.0006077442363030028,637.982,0.47699999809265137,-2.5611876659137423
638.689655,,0.014234443757740033,638.448,0.4580000042915344,-2.602698958738907
639.155172,,0.029474577543628866,638.916,0.46399998664855957,-2.5897279188434825
639.62069,,0.04401296405312194,639.378,0.46700000762939453,-2.5832736753333485
640.086207,,0.05502689265709236,639.841,0.45100000500679016,-2.618192422788661
640.551724,,0.05988675713856406,640.304,0.46399998664855957,-2.5899075260929445
641.017241,,0.05817728109285917,640.775,0.45500001311302185,-2.609528875810354
641.482759,,0.05198017446365543,641.238,0.45500001311302185,-2.609518238453634
641.9482760000001,,0.04373827298594712,641.703,0.46799999475479126,-2.581161286842673
642.413793,,0.03469382570971951,642.167,0.45899999141693115,-2.600711426687671
642.87931,,0.025423516186488148,642.633,0.45100000500679016,-2.6180617320094965
643.344828,,0.016661542530596398,643.098,0.4650000035762787,-2.587463239044192
643.810345,,0.009000949953835505,643.564,0.48899999260902405,-2.535061844013201
644.275862,,0.0024255280494231567,644.024,0.46799999475479126,-2.5806858827819377
644.7413789999999,,0.003242340492249419,644.489,0.46399998664855957,-2.589263452056551
645.206897,,0.0076104220112911385,644.956,0.44699999690055847,-2.6261590159557793
645.672414,,0.009943968359918079,645.422,0.46399998664855957,-2.588980850937296
646.1379310000001,,0.010208512456747516,645.89,0.4690000116825104,-2.577950571918146
646.6034480000001,,0.009495278195768543,646.352,0.4429999887943268,-2.63446682136071
647.0689659999999,,0.009177879703173039,646.82,0.46399998664855957,-2.5885991767238563
647.534483,,0.009763506276395597,647.282,0.4860000014305115,-2.5405682775752036
648.0,,0.01055107866956751,647.753,0.4580000042915344,-2.6014876142957357
648.465517,,0.010287798840880059,648.215,0.47200000286102295,-2.570924303542098
648.931034,,0.008400934986659952,648.681,0.4440000057220459,-2.6318872613117588
649.396552,,0.0058431040630292,649.145,0.46799999475479126,-2.5795850090021766
649.862069,,0.0043809740391110245,649.611,0.4519999921321869,-2.614453570458032
650.327586,,0.004675259564943267,650.071,0.46399998664855957,-2.588344399274845
650.7931030000001,,0.005522700713888428,650.536,0.45899999141693115,-2.599295529928006
651.258621,,0.0055357120209028,651.001,0.48899999260902405,-2.5340148284510833
651.7241379999999,,0.004923096441184103,651.467,0.46000000834465027,-2.5972923742738154
652.189655,,0.00471547804274908,651.93,0.4519999921321869,-2.614834062849158
652.655172,,0.004913615163959571,652.4,0.4560000002384186,-2.60624497577869
653.12069,,0.0046031220035271415,652.861,0.4690000116825104,-2.5780570514743033
653.5862070000001,,0.00331906688217434,653.33,0.4749999940395355,-2.5651239857404584
654.051724,,0.0010846341904579332,653.793,0.46000000834465027,-2.597942343596144
654.517241,,0.002170068842588927,654.256,0.46399998664855957,-2.5893624967966353
654.982759,,0.005795944937063736,654.721,0.45399999618530273,-2.6112759891974977
655.448276,,0.00767019101042818,655.184,0.45899999141693115,-2.6004984761740264
655.9137929999999,,0.005889149254988913,655.649,0.46399998664855957,-2.5897060834760834
656.37931,,0.0012171929981476797,656.115,0.4519999921321869,-2.6159327247369064
656.844828,,0.003162468883825671,656.581,0.4779999852180481,-2.5593501041578475
657.310345,,0.004459203920870963,657.046,0.4569999873638153,-2.6051411216783804
657.7758620000001,,0.002565325632315595,657.512,0.47600001096725464,-2.56376202740224
658.241379,,4.204355432457471e-05,657.978,0.460999995470047,-2.5964325161833233
658.7068969999999,,0.00030278047593004044,658.444,0.4869999885559082,-2.539753823343028
659.172414,,0.0030231005915091814,658.906,0.46399998664855957,-2.589805200515477
659.637931,,0.008165230825986953,659.376,0.48500001430511475,-2.5439740137705984
660.103448,,0.011505467688447596,659.838,0.4659999907016754,-2.585269480157361
660.568966,,0.010730790697651406,660.3,0.47600001096725464,-2.5633678394556014
661.034483,,0.007380617110992325,660.768,0.4429999887943268,-2.635136238293363
661.5,,0.005685432650633925,661.23,0.4690000116825104,-2.57835679295261
661.965517,,0.008144049211316586,661.696,0.4779999852180481,-2.558610693817654
662.4310340000001,,0.01270546532547107,662.161,0.492000013589859,-2.5279706120566816
662.8965519999999,,0.01525537304836976,662.627,0.44699999690055847,-2.625874761416258
663.362069,,0.014585750284372973,663.093,0.4519999921321869,-2.614855761539677
663.827586,,0.013522978338733123,663.559,0.46799999475479126,-2.579885164301394
664.293103,,0.01475781038990184,664.019,0.4569999873638153,-2.603754601393164
664.7586210000001,,0.017074605322707312,664.486,0.4440000057220459,-2.632000991887045
665.224138,,0.016987477402800464,664.952,0.47999998927116394,-2.5535156073969483
665.689655,,0.013110174284632372,665.418,0.4569999873638153,-2.6035933110330887
666.155172,,0.007237925067795762,665.886,0.46399998664855957,-2.5883352203295926
666.62069,,0.0013328181040387851,666.349,0.46700000762939453,-2.5818155577826634
667.086207,,0.005074118975443278,666.812,0.4830000102519989,-2.546996176107808
667.5517239999999,,0.013741153582773898,667.274,0.47600001096725464,-2.5623065531259135
668.017241,,0.02432484167144193,667.74,0.4779999852180481,-2.5580279525712366
668.482759,,0.03316626969312507,668.204,0.4659999907016754,-2.5842669857633966
668.948276,,0.03644841832814217,668.67,0.46299999952316284,-2.590912297121204
669.413793,,0.03407558588074388,669.135,0.45500001311302185,-2.608462095361443
669.87931,,0.02910824092526102,669.601,0.4699999988079071,-2.5759106466144854
670.3448279999999,,0.023867214395223657,670.068,0.5789999961853027,-2.3385673958498017
670.810345,,0.018379384957496313,670.533,0.46000000834465027,-2.597951375124084
671.275862,,0.012330886979852056,670.998,0.46799999475479126,-2.58064084614446
671.7413789999999,,0.006367678826724906,671.464,0.47699999809265137,-2.561143921795016
672.206897,,0.001130386189317687,671.927,0.45899999141693115,-2.600459578624816
672.672414,,0.0031468006417308884,672.389,0.4729999899864197,-2.5700449433202484
673.137931,,0.005576489729852542,672.86,0.4690000116825104,-2.5788299451412735
673.6034480000001,,0.005039547565191873,673.322,0.460999995470047,-2.596311750347871
674.068966,,0.0026495664064772814,673.786,0.46399998664855957,-2.5898094398497786
674.5344829999999,,0.0019917494791231736,674.256,0.45899999141693115,-2.6007166001382243
675.0,,0.005143131305296131,674.714,0.48100000619888306,-2.5527799162340767
675.465517,,0.009532654198947943,675.185,0.47999998927116394,-2.5549314825389575
675.931034,,0.010743078256718958,675.651,0.46399998664855957,-2.5897427843553635
676.396552,,0.008065404086012274,676.115,0.4620000123977661,-2.5940350513652057
676.862069,,0.005294543719456565,676.581,0.4690000116825104,-2.578703825267547
677.327586,,0.005642049602844181,677.045,0.46399998664855957,-2.5895029642246654
