Trial: ,24
Threshold: ,0.0
Maximum EMG: ,0.0662714179502003
Success: ,True

EMG Time,Raw EMG,Filtered EMG,Force Time,Raw Force (V),Filtered Force (N)
0.0,samples,4.935326108420973e-09,0.47,0.5659999847412109,-2.365811747470185
0.46551699999999996,time,6.185477294852421e-09,0.932,0.5830000042915344,-2.3289426729395135
0.9310339999999999,value,7.46757329372499e-09,1.395,0.5690000057220459,-2.359639053754963
1.396552,,8.778424094697852e-09,1.865,0.5929999947547913,-2.307568285174018
1.862069,,1.0114599431106927e-08,2.329,0.5849999785423279,-2.325229110693709
2.327586,,1.1472430629985923e-08,2.791,0.5770000219345093,-2.3428979663251956
2.793103,,1.2848013391709895e-08,3.256,0.5960000157356262,-2.3017447520210226
3.258621,,1.4237211529502303e-08,3.727,0.574999988079071,-2.3477317730627987
3.724138,,1.563566169693146e-08,4.185,0.5680000185966492,-2.3632055394356644
4.189654999999999,,1.7038779129215598e-08,4.652,0.5979999899864197,-2.298050960273122
4.655172,,1.8441764421657416e-08,5.117,0.5950000286102295,-2.304766260554673
5.12069,,1.9839611365839505e-08,5.584,0.5860000252723694,-2.324522581036401
5.586207,,2.1227115861333202e-08,6.049,0.6190000176429749,-2.252740063155247
6.051723999999999,,2.2598885917606716e-08,6.514,0.5400000214576721,-2.4249277177924666
6.517241,,2.3949352757566966e-08,6.98,0.5920000076293945,-2.3116729726337244
6.982759,,2.5272783030736865e-08,7.441,0.5839999914169312,-2.3290963490519307
7.448276,,2.6563292140460474e-08,7.91,0.5929999947547913,-2.30944099126408
7.913793000000001,,2.7814858685747556e-08,8.373,0.5929999947547913,-2.3093528757374955
8.379309999999998,,2.902134001442272e-08,8.836,0.5979999899864197,-2.298333079385177
8.844828000000001,,3.017648888013934e-08,9.303,0.5960000157356262,-2.302528732744041
9.310345,,3.127397119156288e-08,9.766,0.5709999799728394,-2.3568034884462614
9.775862,,3.2307384837630355e-08,10.232,0.574999988079071,-2.3478737610375497
10.241379,,3.327027956826216e-08,10.695,0.5830000042915344,-2.330212217069521
10.706897,,3.415617790525027e-08,11.161,0.5920000076293945,-2.3103609921306325
11.172414,,3.4958597053283325e-08,11.626,0.6150000095367432,-2.260003725466322
11.637931,,3.567107177620708e-08,12.092,0.593999981880188,-2.3055087078156813
12.103447999999998,,3.628717819867117e-08,12.559,0.5849999785423279,-2.3248792144268156
12.568966000000001,,3.680055848829385e-08,13.025,0.5929999947547913,-2.307229592776361
13.034483,,3.7204946368400335e-08,13.485,0.6150000095367432,-2.2591018367986053
13.5,,3.7494193406273043e-08,13.951,0.5809999704360962,-2.333007088227158
13.965517,,3.7662296016709953e-08,14.421,0.593999981880188,-2.304549998553742
14.431034,,3.770342311553777e-08,14.884,0.5889999866485596,-2.3153472956891092
14.896552,,3.761194435258766e-08,15.352,0.5820000171661377,-2.330543638096818
15.362069,,3.738245884853135e-08,15.814,0.5400000214576721,-2.4220375243404573
15.827586000000002,,3.7009824354914966e-08,16.285,0.5809999704360962,-2.332749813500088
16.293103,,3.648918675173547e-08,16.747,0.5690000057220459,-2.3589750178248385
16.758621,,3.5816009792002653e-08,17.205,0.5960000157356262,-2.3002745054810125
17.224138,,3.498610499793796e-08,17.673,0.5809999704360962,-2.3331148469036296
17.689655,,3.399566160880361e-08,18.139,0.6100000143051147,-2.270126707836269
18.155172,,3.2841276475851885e-08,18.606,0.5429999828338623,-2.416316133427952
18.62069,,3.1519983795559865e-08,19.065,0.5759999752044678,-2.3446625295903547
19.086207,,3.002928456819063e-08,19.533,0.5820000171661377,-2.331847022117085
19.551724,,2.836717566482263e-08,19.999,0.6060000061988831,-2.2798216642475313
20.017241000000002,,2.6532178382337652e-08,20.466,0.6150000095367432,-2.260472709486334
20.482758999999998,,2.4523366362478235e-08,20.929,0.5860000252723694,-2.3239011261534297
20.948276,,2.234039274800147e-08,21.392,0.5830000042915344,-2.3306670829128464
21.413793000000002,,1.9983516446191592e-08,21.855,0.5989999771118164,-2.2960145835868717
21.87931,,1.7453627367572315e-08,22.325,0.593999981880188,-2.307082947121275
22.344828,,1.4752270505604766e-08,22.787,0.6039999723434448,-2.2854354009626117
22.810344999999998,,1.1881668721491446e-08,23.253,0.5929999947547913,-2.309499029864071
23.275862,,8.844744096953603e-09,23.716,0.609000027179718,-2.2746957472369456
23.741379,,5.645137717030936e-09,24.182,0.5879999995231628,-2.3204576660761993
24.206897,,2.287227744590527e-09,24.648,0.6019999980926514,-2.289921837151151
24.672414,,1.2238543516528884e-09,25.113,0.5839999914169312,-2.329059135649474
25.137931,,4.8822095531904035e-09,25.58,0.5860000252723694,-2.3245824719143644
25.603448,,8.68115916830161e-09,26.046,0.5830000042915344,-2.3309621979542077
26.068966,,1.2613234963957126e-08,26.51,0.5709999799728394,-2.3569177642586223
26.534483,,1.6670171685614505e-08,26.976,0.5929999947547913,-2.3087728354589165
27.0,,2.0842902094695728e-08,27.436,0.5989999771118164,-2.29546564483474
27.465517,,2.5121554650166177e-08,27.906,0.5960000157356262,-2.3017518011440568
27.931034,,2.9495453956670807e-08,28.369,0.5699999928474426,-2.3581404924870792
28.396552,,3.3953124097111195e-08,28.832,0.6200000047683716,-2.248952872255587
28.862069,,3.848229496235752e-08,29.296,0.6000000238418579,-2.292278287131522
29.327586,,4.306991168497427e-08,29.765,0.6039999723434448,-2.283330923197592
29.793103000000002,,4.770214727739073e-08,30.231,0.5820000171661377,-2.331050421236232
30.258620999999998,,5.2364418567864016e-08,30.695,0.6010000109672546,-2.28947426276409
30.724138,,5.704140551985952e-08,31.161,0.5820000171661377,-2.3307210723939744
31.189655000000002,,6.171707401211237e-08,31.626,0.5860000252723694,-2.3218979508949604
31.655172000000004,,6.637470214763607e-08,32.091,0.5730000138282776,-2.3501546001109777
32.12069,,7.099691015031467e-08,32.555,0.5709999799728394,-2.354491245723734
32.586207,,7.556569389746057e-08,33.02,0.6029999852180481,-2.284799119682778
33.051724,,8.006246212585028e-08,33.485,0.5839999914169312,-2.3262618953279888
33.517241000000006,,8.446807733727764e-08,33.951,0.6069999933242798,-2.2762627979931054
33.982759,,8.876290041760234e-08,34.414,0.593999981880188,-2.30473292332526
34.448276,,9.292683897064028e-08,34.876,0.5680000185966492,-2.3615593435290214
34.913793,,9.693939935505978e-08,35.344,0.5709999799728394,-2.355234813005121
35.37931,,1.0077974239873804e-07,35.806,0.5669999718666077,-2.364184607421567
35.844828,,1.0442674275082237e-07,36.273,0.5929999947547913,-2.307791248421591
36.310345,,1.0785905181705791e-07,36.738,0.5699999928474426,-2.3581601026836734
36.775862,,1.1105516420882152e-07,37.204,0.5669999718666077,-2.364956952577808
37.241378999999995,,1.1399348762077307e-07,37.669,0.6110000014305115,-2.26934995249578
37.706897000000005,,1.1665241603614077e-07,38.136,0.6029999852180481,-2.287016473306172
38.172414,,1.1901040614243645e-07,38.596,0.5889999866485596,-2.3177310999448504
38.637931,,1.2104605682389084e-07,39.062,0.6129999756813049,-2.2656271624214064
39.103448,,1.2273819158015963e-07,39.529,0.6060000061988831,-2.281025380301009
39.568965999999996,,1.2406594370392255e-07,39.994,0.5960000157356262,-2.302919382229455
40.034483,,1.250088440329375e-07,40.455,0.6100000143051147,-2.2724827852221714
40.5,,1.255469110749685e-07,40.925,0.5720000267028809,-2.3552915031435933
40.965517,,1.2566074328684455e-07,41.388,0.5860000252723694,-2.32476657397328
41.431034,,1.253316132717815e-07,41.85,0.5839999914169312,-2.329057314758015
41.896552,,1.2454156364207475e-07,42.318,0.5789999961853027,-2.3398431963634088
42.362069000000005,,1.232735042774142e-07,42.78,0.593999981880188,-2.3070187053552402
42.827586000000004,,1.2151131069244766e-07,43.246,0.5460000038146973,-2.411416475325661
43.293103,,1.1923992321089817e-07,43.717,0.5720000267028809,-2.354568028664672
43.758621,,1.1644544662759344e-07,44.175,0.5830000042915344,-2.3303790364420713
44.224138,,1.1311525002426514e-07,44.64,0.6209999918937683,-2.2473511134561726
44.689655,,1.0923806638999672e-07,45.106,0.5929999947547913,-2.308104576723304
45.155172,,1.048040916828173e-07,45.573,0.5830000042915344,-2.3296407834288626
45.620689999999996,,9.980508295523164e-08,46.039,0.5889999866485596,-2.3163252956463283
46.086206999999995,,9.423445515352271e-08,46.503,0.5929999947547913,-2.3073807670688886
46.551724,,8.808737618853895e-08,46.968,0.5979999899864197,-2.296277757214284
47.017241,,8.136085986446609e-08,47.436,0.6159999966621399,-2.256878008246921
47.482759,,7.405385624185975e-08,47.898,0.5920000076293945,-2.3090123696477742
47.948276,,6.616733900205956e-08,48.366,0.5820000171661377,-2.3306818041493855
48.413793,,5.770438937209905e-08,48.828,0.5799999833106995,-2.334962655817608
48.879310000000004,,4.867027616244328e-08,49.296,0.5799999833106995,-2.334929193160606
49.344828,,3.907253146440698e-08,49.758,0.5920000076293945,-2.3087957354048676
49.810345,,2.8921021550005834e-08,50.224,0.5540000200271606,-2.391638532315772
50.275862,,1.8228012514345147e-08,50.685,0.6069999933242798,-2.2762666378814362
50.741379,,7.008230199527107e-09,51.15,0.5669999718666077,-2.363547939222991
51.206897,,4.721086060470655e-09,51.615,0.574999988079071,-2.3462890596403376
51.672414,,1.6940136332359352e-08,52.081,0.6179999709129333,-2.2528070617125238
52.137931,,2.962652006810102e-08,52.547,0.5929999947547913,-2.3074953090717116
52.603448,,4.2755203630376904e-08,53.013,0.574999988079071,-2.3469490523563
53.068966,,5.629849580038108e-08,53.477,0.5799999833106995,-2.3363037516071916
53.534483,,7.022603169997121e-08,53.943,0.6200000047683716,-2.2494075427671643
54.0,,8.450476554887683e-08,54.411,0.6000000238418579,-2.2932234905968505
54.465517,,9.909897266434459e-08,54.873,0.5960000157356262,-2.302167175449673
54.931034,,1.1397026109525168e-07,55.336,0.5669999718666077,-2.3655575569823455
55.396552,,1.2907759326531088e-07,55.806,0.5950000286102295,-2.3047395923614054
55.862069,,1.4437731798049517e-07,56.265,0.5979999899864197,-2.2983569835705313
56.327586,,1.5982321313420654e-07,56.735,0.6169999837875366,-2.2570793732646464
56.793102999999995,,1.7536653941999033e-07,57.2,0.578000009059906,-2.342123419315353
57.258621000000005,,1.909561053357419e-07,57.665,0.5509999990463257,-2.4009832928017865
57.724138,,2.065383437353706e-07,58.131,0.5929999947547913,-2.309475897156929
58.189655,,2.2205740015378286e-07,58.596,0.5960000157356262,-2.3028943827825996
58.655172,,2.374552330988399e-07,59.062,0.5899999737739563,-2.3158800815961245
59.120689999999996,,2.5267172646965495e-07,59.521,0.5809999704360962,-2.335363823289721
59.586207,,2.676448142242575e-07,59.987,0.5669999718666077,-2.3657074108687035
60.051724,,2.823106173813057e-07,60.455,0.5820000171661377,-2.332841774161574
60.517241,,2.966035934002255e-07,60.917,0.5450000166893005,-2.4132435598738455
60.982758999999994,,3.1045669794195185e-07,61.38,0.5759999752044678,-2.345481450802963
61.448276,,3.238015589684145e-07,61.851,0.6169999837875366,-2.25592215282509
61.913793,,3.365686630931263e-07,62.314,0.5899999737739563,-2.3145056200920973
62.379310000000004,,3.486875540477816e-07,62.777,0.5929999947547913,-2.3077312656318343
62.84482800000001,,3.600870430807526e-07,63.242,0.6019999980926514,-2.2878939411867854
63.310345000000005,,3.7069543105289445e-07,63.706,0.5789999961853027,-2.33778903391746
63.775862000000004,,3.804407419442465e-07,64.172,0.5960000157356262,-2.300560387222205
64.241379,,3.892509674321773e-07,64.636,0.5929999947547913,-2.306932576744873
64.706897,,3.970543221474e-07,65.102,0.5419999957084656,-2.417913231719714
65.172414,,4.037795091592293e-07,65.566,0.6129999756813049,-2.2631365671560806
65.637931,,4.0935599518561667e-07,66.031,0.5699999928474426,-2.3567655039571993
66.103448,,4.137142949670543e-07,66.496,0.5540000200271606,-2.3916126986635278
66.56896599999999,,4.167862641865508e-07,66.962,0.5789999961853027,-2.337178447005042
67.03448300000001,,4.185054002607405e-07,67.425,0.6019999980926514,-2.287142448054146
67.5,,4.1880715026998663e-07,67.895,0.5889999866485596,-2.315575579057036
67.965517,,4.176292252382739e-07,68.355,0.5669999718666077,-2.363651474250524
68.431034,,4.149119199169703e-07,68.825,0.550000011920929,-2.4008660050824453
68.896552,,4.105984371703873e-07,69.288,0.5720000267028809,-2.3531406439055367
69.362069,,4.046352160057076e-07,69.751,0.5669999718666077,-2.364259811625972
69.827586,,3.9697226223551263e-07,70.217,0.6190000176429749,-2.2512086470262185
70.293103,,3.875634807080613e-07,70.68,0.5709999799728394,-2.356027398630343
70.75862099999999,,3.763670079888974e-07,71.146,0.5979999899864197,-2.2974452494393938
71.22413800000001,,3.6334554432753845e-07,71.61,0.5669999718666077,-2.3652160427684445
71.689655,,3.484666836951779e-07,72.076,0.6010000109672546,-2.2913588955608133
72.15517200000001,,3.3170324063377577e-07,72.54,0.6579999923706055,-2.167369191797477
72.62069,,3.1303357261387853e-07,73.005,0.6019999980926514,-2.289535724220736
73.086207,,2.9244189655825785e-07,73.478,0.5920000076293945,-2.3114499502371655
73.551724,,2.69918598151254e-07,73.936,0.5950000286102295,-2.305005161469549
74.017241,,2.454605325198193e-07,74.406,0.6019999980926514,-2.2898069070005933
74.482759,,2.1907131484194325e-07,74.869,0.5830000042915344,-2.331213299179041
74.94827599999999,,1.9076159941166346e-07,75.333,0.6140000224113464,-2.263647028212044
75.41379300000001,,1.60549345667491e-07,75.795,0.5849999785423279,-2.326760566543305
75.87931,,1.2846006967305575e-07,76.261,0.5519999861717224,-2.3985527340015893
76.344828,,9.452707952536418e-08,76.731,0.5860000252723694,-2.3243439242723754
76.810345,,5.879169315750263e-08,77.19,0.5830000042915344,-2.3307173970631916
77.275862,,2.1303436999155034e-08,77.655,0.5669999718666077,-2.3653901141335623
77.741379,,1.7879776039832694e-08,78.121,0.5960000157356262,-2.302005818444854
78.206897,,5.8691490790196676e-08,78.588,0.6110000014305115,-2.26910996037377
78.67241399999999,,1.010565777624844e-07,79.054,0.6050000190734863,-2.281958146130733
79.137931,,1.4489112629980292e-07,79.518,0.5989999771118164,-2.294805455066737
79.603448,,1.9010236441382074e-07,79.984,0.6039999723434448,-2.2836932581189107
80.068966,,2.3658860674212837e-07,80.447,0.5789999961853027,-2.337952887612113
80.53448300000001,,2.842392320269407e-07,80.917,0.5889999866485596,-2.315978851883391
81.0,,3.3293469147036775e-07,81.381,0.5839999914169312,-2.3267090257061986
81.465517,,3.8254654926995863e-07,81.843,0.5860000252723694,-2.322217634088966
81.931034,,4.3293755657982977e-07,82.311,0.6060000061988831,-2.2785430600627135
82.396552,,4.839617600773385e-07,82.773,0.5920000076293945,-2.3089771256278766
82.86206899999999,,5.354646462428778e-07,83.239,0.5720000267028809,-2.352519926885694
83.327586,,5.872833223809187e-07,83.705,0.6269999742507935,-2.232701724671162
83.79310299999999,,6.392467353238698e-07,84.171,0.5920000076293945,-2.3089978636301978
84.258621,,6.911759286666874e-07,84.636,0.5910000205039978,-2.3112549532161735
84.72413800000001,,7.428843392794493e-07,85.095,0.5839999914169312,-2.3266174388011636
85.189655,,7.94178133737389e-07,85.567,0.5839999914169312,-2.326759660351289
85.65517200000001,,8.448565851932312e-07,86.025,0.6100000143051147,-2.2702827258470517
86.12069,,8.947124910951882e-07,86.492,0.5960000157356262,-2.3009719327424225
86.586207,,9.435326320258195e-07,86.957,0.5730000138282776,-2.351284104499154
87.051724,,9.910982718022756e-07,87.427,0.6119999885559082,-2.2665296974791893
87.517241,,1.0371856988374574e-06,87.889,0.574999988079071,-2.3473557223533117
87.98275899999999,,1.081566808614537e-06,88.351,0.5699999928474426,-2.358462642348603
88.448276,,1.1240097269743783e-06,88.821,0.5929999947547913,-2.3085593798571615
88.913793,,1.1642794737569571e-06,89.281,0.5709999799728394,-2.3566810811712964
89.37931,,1.2021386661742272e-06,89.751,0.5929999947547913,-2.3089223278246114
89.844828,,1.2373482611233867e-06,90.216,0.5789999961853027,-2.339570052616319
90.310345,,1.269668335476546e-06,90.681,0.5720000267028809,-2.3549382552570535
90.775862,,1.2988589032058039e-06,91.147,0.5720000267028809,-2.355024178870311
91.241379,,1.3246807680221782e-06,91.606,0.6079999804496765,-2.2766439709628803
91.706897,,1.3468964100231863e-06,92.072,0.546999990940094,-2.4095560295556675
92.17241399999999,,1.365270904657646e-06,92.537,0.5730000138282776,-2.3528896439327354
92.63793100000001,,1.3795728721280345e-06,93.002,0.5929999947547913,-2.3092596416610904
93.103448,,1.3895754551610868e-06,93.474,0.5809999704360962,-2.3353113526139255
93.568966,,1.3950573228868286e-06,93.933,0.5720000267028809,-2.3547946677280853
94.03448300000001,,1.395803698375591e-06,94.396,0.5690000057220459,-2.361178094724942
94.5,,1.3916074071924048e-06,94.865,0.5540000200271606,-2.3936819327760324
94.965517,,1.3822699441392195e-06,95.325,0.625,-2.238802946803738
95.431034,,1.3676025551683595e-06,95.795,0.5799999833106995,-2.336632172791245
95.896552,,1.347427331266288e-06,96.261,0.5879999995231628,-2.3189840248196063
96.36206899999999,,1.321578310925836e-06,96.723,0.6019999980926514,-2.2882617127365097
96.827586,,1.2899025876484002e-06,97.189,0.5440000295639038,-2.414406596587307
97.293103,,1.252261418745987e-06,97.654,0.6190000176429749,-2.250802574734648
97.758621,,1.208531331547263e-06,98.12,0.5820000171661377,-2.3312235764368823
98.224138,,1.1586052229527654e-06,98.584,0.6140000224113464,-2.2613390738423567
98.689655,,1.1023934481330246e-06,99.05,0.5809999704360962,-2.3330933496928674
99.155172,,1.0398248940203695e-06,99.51,0.6110000014305115,-2.2676233979462794
99.62069,,9.708480331115713e-07,99.976,0.574999988079071,-2.3459788968859945
100.086207,,8.954319529750361e-07,100.447,0.5849999785423279,-2.3241541394125464
100.551724,,8.135673567439339e-07,100.909,0.5910000205039978,-2.311083100712289
101.017241,,7.252675297762583e-07,101.373,0.6060000061988831,-2.2784431682351585
101.482759,,6.305692675752906e-07,101.835,0.5210000276565552,-2.463706980134282
101.948276,,5.295337599901092e-07,102.303,0.5690000057220459,-2.3592494233916432
102.413793,,4.222474266565244e-07,102.766,0.5339999794960022,-2.4356558481372623
102.87931,,3.0882269859495406e-07,103.231,0.5839999914169312,-2.326908142076939
103.344828,,1.8939874085412063e-07,103.695,0.5789999961853027,-2.3380107329160196
103.810345,,6.414211107883492e-08,104.161,0.5770000219345093,-2.3425949584224313
104.275862,,6.675265111268395e-08,104.625,0.5920000076293945,-2.3101529514714505
104.741379,,2.0306250903078236e-07,105.091,0.5789999961853027,-2.338716403716409
105.206897,,3.4453549313949944e-07,105.555,0.5709999799728394,-2.3563829901956383
105.672414,,4.90890349583818e-07,106.02,0.5830000042915344,-2.3304659968976016
106.13793100000001,,6.418162779125695e-07,106.485,0.5950000286102295,-2.3045310567866317
106.603448,,7.969727627839589e-07,106.95,0.6169999837875366,-2.256784347118068
107.068966,,9.559895043124337e-07,107.421,0.6129999756813049,-2.2656504212353528
107.534483,,1.1184664515652544e-06,107.884,0.5870000123977661,-2.322410281026429
108.0,,1.2839739435441813e-06,108.347,0.5979999899864197,-2.298521217871612
108.46551699999999,,1.452052961791833e-06,108.81,0.5929999947547913,-2.3094493433023455
108.931034,,1.6222154985431967e-06,109.281,0.6019999980926514,-2.2898340272881024
109.396552,,1.793945044100268e-06,109.743,0.5669999718666077,-2.366037658862934
109.862069,,1.9666971968417036e-06,110.209,0.5669999718666077,-2.3659494821644658
110.32758600000001,,2.139900398989637e-06,110.673,0.6019999980926514,-2.289572155259006
110.793103,,2.3129568009424153e-06,111.138,0.5929999947547913,-2.3090216701346282
111.258621,,2.485243256645095e-06,111.603,0.5910000205039978,-2.31319124493295
111.724138,,2.656112452109236e-06,112.069,0.5960000157356262,-2.302086789876368
112.189655,,2.8248941688101826e-06,112.533,0.5830000042915344,-2.3301809251289347
112.655172,,2.990896683283891e-06,112.999,0.5860000252723694,-2.323406695477048
113.12069,,3.153408303817055e-06,113.462,0.5960000157356262,-2.3013791873995646
113.586207,,3.311699044674239e-06,113.925,0.5879999995231628,-2.318571544508657
114.051724,,3.4650224378346924e-06,114.395,0.5789999961853027,-2.3379540929532996
114.51724100000001,,3.612617481720232e-06,114.858,0.6230000257492065,-2.2418861715715437
114.982759,,3.7537107258849216e-06,115.326,0.6290000081062317,-2.228629695585314
115.448276,,3.88751849010822e-06,115.788,0.5820000171661377,-2.3308696966462925
115.913793,,4.013249215786952e-06,116.254,0.5879999995231628,-2.3176758390169923
116.37931,,4.1301059469590325e-06,116.716,0.5720000267028809,-2.3524514221416157
116.84482799999999,,4.237288937714633e-06,117.182,0.6100000143051147,-2.269621671842588
117.310345,,4.333998382159935e-06,117.648,0.6060000061988831,-2.2783371107540185
117.77586199999999,,4.419437262496149e-06,118.113,0.5920000076293945,-2.308880737487306
118.241379,,4.492814310163936e-06,118.58,0.5950000286102295,-2.3024283862725974
118.70689700000001,,4.553347074382217e-06,119.046,0.5889999866485596,-2.315622981370803
119.172414,,4.600265091782719e-06,119.51,0.5929999947547913,-2.307066448382681
119.63793100000001,,4.63281315020923e-06,119.976,0.5789999961853027,-2.337756636890306
120.103448,,4.650254639115628e-06,120.436,0.578000009059906,-2.3401502044331948
120.568966,,4.651874978361281e-06,120.906,0.5799999833106995,-2.336027543926441
121.034483,,4.636985116568868e-06,121.366,0.5699999928474426,-2.358061245407256
121.5,,4.604925089580127e-06,121.836,0.5989999771118164,-2.2951325658717163
121.96551699999999,,4.555067628922123e-06,122.299,0.5889999866485596,-2.317167571225478
122.431034,,4.486821809582709e-06,122.762,0.5979999899864197,-2.297796667102847
122.896552,,4.399636725791641e-06,123.227,0.5929999947547913,-2.308907875839211
123.362069,,4.293005182915749e-06,123.695,0.6029999852180481,-2.2873134776820265
123.827586,,4.166467393005644e-06,124.161,0.574999988079071,-2.3484760991948206
124.293103,,4.019614660980147e-06,124.625,0.6169999837875366,-2.257096734162897
124.758621,,3.852093047905993e-06,125.09,0.5860000252723694,-2.32471774930601
125.22413800000001,,3.6636069973271307e-06,125.557,0.5879999995231628,-2.3204002779210766
125.68965500000002,,3.453922910123069e-06,126.015,0.5929999947547913,-2.3095027119013953
126.15517200000001,,3.2228726529320306e-06,126.484,0.5839999914169312,-2.3290621152287567
126.62069000000001,,2.970356984765232e-06,126.95,0.6019999980926514,-2.2897551460176877
127.086207,,2.6963488860662304e-06,127.412,0.593999981880188,-2.307052634753095
127.55172400000001,,2.4008967741369505e-06,127.882,0.5720000267028809,-2.354814940517337
128.017241,,2.0841275885626495e-06,128.344,0.5759999752044678,-2.3459024061685665
128.48275900000002,,1.7462497300245458e-06,128.806,0.5669999718666077,-2.365288447340219
128.948276,,1.3875558356939877e-06,129.273,0.5910000205039978,-2.3127616857011684
129.413793,,1.0084253742586886e-06,129.738,0.574999988079071,-2.3473705684240738
129.87931,,6.093270435424237e-07,130.204,0.5960000157356262,-2.3013660669023164
130.344828,,1.9082095364732444e-07,130.669,0.593999981880188,-2.305474575286082
130.81034499999998,,2.4643942142489417e-07,131.135,0.5989999771118164,-2.2943435392084344
131.275862,,7.017055406273275e-07,131.599,0.6209999918937683,-2.246193163585804
131.741379,,1.174132357999052e-06,132.065,0.5899999737739563,-2.313535429479497
132.206897,,1.6627771666543295e-06,132.53,0.5789999961853027,-2.337335822399065
132.67241399999997,,2.166598740922602e-06,132.995,0.5759999752044678,-2.343744535040523
133.13793099999998,,2.6844567925730037e-06,133.458,0.5809999704360962,-2.3327656958253655
133.60344800000001,,3.2151117566258072e-06,133.921,0.578000009059906,-2.3392603114851673
134.06896600000002,,3.7572249217480058e-06,134.389,0.5929999947547913,-2.306584837890984
134.53448300000002,,4.309358919649765e-06,134.851,0.5830000042915344,-2.3284206995070336
135.0,,4.869978587241547e-06,135.321,0.5849999785423279,-2.3241566709406483
135.465517,,5.4374522145773695e-06,135.784,0.5799999833106995,-2.3351844164883384
135.931034,,6.010053190797187e-06,136.25,0.6069999933242798,-2.2765323065387677
136.396552,,6.5859620593902796e-06,136.712,0.5799999833106995,-2.335558673996676
136.862069,,7.163268993131602e-06,137.178,0.593999981880188,-2.305285918026611
137.327586,,7.73997669799432e-06,137.643,0.5830000042915344,-2.329498149856691
137.793103,,8.314003754214621e-06,138.109,0.5929999947547913,-2.307970105133479
138.258621,,8.883188401479897e-06,138.573,0.5830000042915344,-2.3300184629128435
138.724138,,9.445292773929476e-06,139.039,0.6079999804496765,-2.2758093759840063
139.189655,,9.99800758929961e-06,139.507,0.6140000224113464,-2.262980988800072
139.655172,,1.053895729511284e-05,139.966,0.5889999866485596,-2.3176697649773206
140.12069,,1.1065705673308159e-05,140.436,0.5899999737739563,-2.315686527932717
140.586207,,1.1575761903134706e-05,140.899,0.5879999995231628,-2.320206604127367
141.05172399999998,,1.206658708049074e-05,141.366,0.6190000176429749,-2.252793237206445
141.51724099999998,,1.2535601190184323e-05,141.828,0.5789999961853027,-2.3400218357277365
141.982759,,1.2980190525825588e-05,142.292,0.5809999704360962,-2.335703318942054
142.44827600000002,,1.3397715550236688e-05,142.762,0.5809999704360962,-2.335697658230158
142.913793,,1.3785519187388154e-05,143.22,0.6060000061988831,-2.281180909765398
143.37931,,1.4140935534944132e-05,143.685,0.5849999785423279,-2.326838296510862
143.844828,,1.4461298984528285e-05,144.15,0.5809999704360962,-2.3354179114142517
144.310345,,1.4743953734812403e-05,144.618,0.5770000219345093,-2.3439613301762154
144.77586200000002,,1.4986263680486318e-05,145.083,0.5709999799728394,-2.3568316009442927
145.241379,,1.5185622658096437e-05,145.548,0.5669999718666077,-2.3653202016216714
145.706897,,1.533946502764713e-05,146.014,0.6190000176429749,-2.2517859998068346
146.172414,,1.5445276566751077e-05,146.48,0.5830000042915344,-2.32996076302185
146.637931,,1.550060565199812e-05,146.946,0.625,-2.238195789357865
147.103448,,1.5503074700094726e-05,147.407,0.5929999947547913,-2.307653321492321
147.568966,,1.545039183921483e-05,147.877,0.5809999704360962,-2.3335488284610664
148.034483,,1.5340362778905863e-05,148.34,0.5879999995231628,-2.3180692534281016
148.5,,1.5170902844818996e-05,148.802,0.628000020980835,-2.23071982517011
148.965517,,1.4940049142488507e-05,149.268,0.5720000267028809,-2.3525519691367527
149.43103399999998,,1.464597281238033e-05,149.732,0.6050000190734863,-2.2805216428904047
149.89655199999999,,1.4286991336472968e-05,150.198,0.5849999785423279,-2.32400151210858
150.362069,,1.386158085473439e-05,150.665,0.5849999785423279,-2.323953153400592
150.82758600000003,,1.3368388448025065e-05,151.131,0.5809999704360962,-2.332666353455118
151.293103,,1.2806244342199926e-05,151.596,0.5799999833106995,-2.3348908915666216
151.758621,,1.2174173986509679e-05,152.055,0.5950000286102295,-2.3023028999667967
152.224138,,1.147140995782475e-05,152.521,0.5910000205039978,-2.311152176226339
152.68965500000002,,1.0697403640732452e-05,152.987,0.5929999947547913,-2.306968289773099
153.155172,,9.85183663219984e-06,153.451,0.5839999914169312,-2.326783222972666
153.62069,,8.934631818260782e-06,153.921,0.5709999799728394,-2.355340863264671
154.086207,,7.945964069085962e-06,154.381,0.578000009059906,-2.3403469806986257
154.551724,,6.886270497838206e-06,154.851,0.5910000205039978,-2.312294756633249
155.017241,,5.756260227912674e-06,155.314,0.5950000286102295,-2.303854976635096
155.482759,,4.556923612521378e-06,155.776,0.5789999961853027,-2.3389843725158648
155.948276,,3.2895408501135106e-06,156.242,0.5960000157356262,-2.302206237071883
156.413793,,1.9556899388363407e-06,156.706,0.5669999718666077,-2.365626353332601
156.87931,,5.57253913144755e-07,157.172,0.6100000143051147,-2.2721563545644687
157.34482799999998,,9.035726942305227e-07,157.638,0.5849999785423279,-2.3268003031765616
157.81034499999998,,2.4242782214371955e-06,158.104,0.5649999976158142,-2.370511467511445
158.275862,,4.002029133735814e-06,158.57,0.5960000157356262,-2.3030683714097258
158.741379,,5.633666222026467e-06,159.036,0.5889999866485596,-2.3183671616941584
159.20689700000003,,7.315701797905269e-06,159.495,0.5960000157356262,-2.3031157400863327
159.672414,,9.044317938278147e-06,159.961,0.5640000104904175,-2.3727830294916226
160.137931,,1.0815365831108063e-05,160.429,0.5669999718666077,-2.3661513249498505
160.60344800000001,,1.2624366272173952e-05,160.891,0.5809999704360962,-2.335511003424306
161.06896600000002,,1.4466511360770636e-05,161.355,0.6100000143051147,-2.272150357751417
161.534483,,1.6336667440074872e-05,161.825,0.5950000286102295,-2.304614072922041
162.0,,1.8229379325440424e-05,162.285,0.5910000205039978,-2.313082962139902
162.465517,,2.013887586116213e-05,162.754,0.5830000042915344,-2.3302447209534414
162.931034,,2.205907684326392e-05,163.22,0.6190000176429749,-2.2515319238789115
163.396552,,2.3983601342617856e-05,163.685,0.6060000061988831,-2.2795667161742648
163.862069,,2.5905777459190854e-05,164.151,0.5830000042915344,-2.329390819755123
164.327586,,2.781865353444383e-05,164.61,0.574999988079071,-2.3465481670608916
164.793103,,2.9715010844876828e-05,165.076,0.6079999804496765,-2.2744024380393895
165.258621,,3.158737779542629e-05,165.543,0.5929999947547913,-2.3068604458512034
165.72413799999998,,3.3428045626881504e-05,166.009,0.5979999899864197,-2.295781010533724
166.189655,,3.522908564670134e-05,166.47,0.5929999947547913,-2.306529714364209
166.655172,,3.698236798758643e-05,166.94,0.6039999723434448,-2.282466376465764
167.12069,,3.867958189290317e-05,167.403,0.5929999947547913,-2.3063827331287325
167.58620699999997,,4.031225752257327e-05,167.865,0.5929999947547913,-2.306385542722607
168.051724,,4.1871789267345754e-05,168.336,0.6000000238418579,-2.2911896148409263
168.517241,,4.334946055346838e-05,168.798,0.5669999718666077,-2.36319070409225
168.98275900000002,,4.473647011368476e-05,169.264,0.5770000219345093,-2.3415584903375426
169.44827600000002,,4.6023959694215565e-05,169.727,0.6169999837875366,-2.254610807979142
169.913793,,4.720304316095125e-05,170.193,0.5669999718666077,-2.363778647312962
170.37931,,4.826483696150662e-05,170.658,0.5879999995231628,-2.3182930719570733
170.844828,,4.9200491893079894e-05,171.124,0.5429999828338623,-2.416622076989861
171.310345,,5.000122611924087e-05,171.588,0.5849999785423279,-2.3254237601370296
171.775862,,5.065835937186197e-05,172.053,0.5630000233650208,-2.373664228519714
172.241379,,5.116334826742477e-05,172.518,0.5839999914169312,-2.328218137699883
172.706897,,5.150782265990288e-05,172.983,0.6010000109672546,-2.2914713017641852
173.172414,,5.168362294536504e-05,173.451,0.5910000205039978,-2.313522634265358
173.637931,,5.1682838226381695e-05,173.914,0.5690000057220459,-2.3616843461865047
174.103448,,5.149784523728116e-05,174.377,0.5759999752044678,-2.3466251412800143
174.568966,,5.112134792431224e-05,174.84,0.6190000176429749,-2.253087297432126
175.034483,,5.054641756785722e-05,175.31,0.5920000076293945,-2.3120017964988833
175.5,,4.976653332702867e-05,175.773,0.5830000042915344,-2.3316445601769433
175.96551699999998,,4.877562308030643e-05,176.239,0.5759999752044678,-2.346873604748255
176.43103399999998,,4.7568104429355106e-05,176.704,0.5809999704360962,-2.3359030248714014
176.896552,,4.6138925726838526e-05,177.171,0.5709999799728394,-2.357558612522974
177.36206900000002,,4.448360698294649e-05,177.636,0.5730000138282776,-2.3530208541631414
177.827586,,4.259828049950228e-05,178.101,0.5929999947547913,-2.3092231176951534
178.293103,,4.047973107495841e-05,178.566,0.5770000219345093,-2.3438185352342065
178.758621,,3.812543561834516e-05,179.031,0.5770000219345093,-2.3435257481566314
179.224138,,3.553360200534442e-05,179.496,0.5920000076293945,-2.3105324003356733
179.68965500000002,,3.270320700515173e-05,179.961,0.5929999947547913,-2.308028419791962
180.155172,,2.9634033102696563e-05,180.425,0.5979999899864197,-2.2968078512460126
180.62069,,2.6326704037145445e-05,180.888,0.574999988079071,-2.346598013042198
181.086207,,2.2782718874448375e-05,181.351,0.5529999732971191,-2.3942294078008173
181.551724,,1.900448442903694e-05,181.821,0.640999972820282,-2.2022383610938316
182.01724099999998,,1.4995345847675437e-05,182.281,0.5889999866485596,-2.3152939654615596
182.482759,,1.0759615166934e-05,182.751,0.6200000047683716,-2.247564847444217
182.948276,,6.30259765482644e-06,183.216,0.6880000233650208,-2.0992738376994966
183.413793,,1.6306157468639487e-06,183.68,0.5910000205039978,-2.3105118595059766
183.87931,,3.248969612851736e-06,184.146,0.5950000286102295,-2.3017639825130964
184.34482799999998,,8.32774041380914e-06,184.611,0.574999988079071,-2.345365342479917
184.81034499999998,,1.359620599107497e-05,185.076,0.5860000252723694,-2.3214902923419443
185.27586200000002,,1.9043790591100612e-05,185.537,0.5830000042915344,-2.328176236376066
185.74137900000002,,2.4658824272072194e-05,186.002,0.5789999961853027,-2.3370964828680036
186.206897,,3.0428537315456625e-05,186.474,0.5799999833106995,-2.335173441038749
186.672414,,3.6339058320518105e-05,186.932,0.5680000185966492,-2.361615338634714
187.137931,,4.237541614787872e-05,187.395,0.6079999804496765,-2.2748008447535093
187.60344800000001,,4.8521545871657777e-05,187.865,0.5960000157356262,-2.3012978589861937
188.06896600000002,,5.476029889233428e-05,188.326,0.5730000138282776,-2.351771079389272
188.534483,,6.10734573542256e-05,188.795,0.5849999785423279,-2.325991975418593
189.0,,6.744175300235365e-05,189.261,0.5849999785423279,-2.326345228698057
189.465517,,7.38448906034752e-05,189.724,0.578000009059906,-2.3419260697627484
189.931034,,8.026157604518023e-05,190.189,0.5799999833106995,-2.337865681841111
190.39655199999999,,8.666954921521475e-05,190.655,0.5920000076293945,-2.311975113471012
190.862069,,9.304562175056404e-05,191.121,0.5860000252723694,-2.3252476685228696
191.327586,,9.936571973234829e-05,191.581,0.6060000061988831,-2.281815438353039
191.793103,,0.00010560493138824406,192.047,0.5950000286102295,-2.3058556517990665
192.25862099999998,,0.0001117375598489671,192.511,0.5929999947547913,-2.310219516111502
192.72413799999998,,0.00011773718098935182,192.977,0.6269999742507935,-2.236082068569117
193.189655,,0.00012357670636776153,193.44,0.578000009059906,-2.3427034885795024
193.655172,,0.00012922845125998766,193.909,0.6060000061988831,-2.2815043539609463
194.12069000000002,,0.0001346642077654729,194.37,0.6119999885559082,-2.2681763465082496
194.586207,,0.00013985532294465852,194.839,0.5809999704360962,-2.335406673470964
195.051724,,0.0001447727819265416,195.3,0.5839999914169312,-2.32852155773491
195.517241,,0.00014938729590518117,195.769,0.5929999947547913,-2.3085344177158738
195.98275900000002,,0.00015366939492295222,196.235,0.5460000038146973,-2.41053380557617
196.448276,,0.00015758952531686577,196.699,0.5809999704360962,-2.3338796765492793
196.913793,,0.00016111815168230438,197.164,0.5820000171661377,-2.331307337264353
197.37931,,0.00016422586318611942,197.629,0.6209999918937683,-2.245965489113226
197.844828,,0.00016688348403826576,198.095,0.5699999928474426,-2.3567325416828293
198.310345,,0.00016906218790807003,198.562,0.5460000038146973,-2.4087193918291527
198.775862,,0.00017073361604791356,199.02,0.5429999828338623,-2.415009822977929
199.241379,,0.00017186999886363073,199.488,0.5540000200271606,-2.390862686787662
199.706897,,0.00017244428064735638,199.954,0.6129999756813049,-2.262208872265054
200.172414,,0.00017243024716497807,200.422,0.597000002861023,-2.2970237575879295
200.63793099999998,,0.00017180265576684784,200.884,0.5759999752044678,-2.3428038640289772
201.103448,,0.00017053736766706735,201.347,0.5720000267028809,-2.3516193562300733
201.568966,,0.0001686114820135729,201.81,0.5849999785423279,-2.323468213335753
202.034483,,0.00016600347134850107,202.281,0.6190000176429749,-2.249629438523706
202.5,,0.00016269331803601145,202.743,0.574999988079071,-2.345781973985485
202.965517,,0.00015866265121297578,203.209,0.5929999947547913,-2.306906602138927
203.431034,,0.00015389488379681285,203.673,0.5830000042915344,-2.3290718327847104
203.896552,,0.00014837534906436082,204.139,0.5789999961853027,-2.3381921481030385
204.36206900000002,,0.00014209143629613302,204.603,0.5699999928474426,-2.3582206215292176
204.827586,,0.00013503272496170925,205.069,0.6200000047683716,-2.2497100671484955
205.293103,,0.00012719111690447665,205.536,0.5669999718666077,-2.365587865737048
205.758621,,0.00011856096596755957,205.995,0.574999988079071,-2.3485433429720723
206.224138,,0.00010913920448767722,206.462,0.5770000219345093,-2.344534508213191
206.689655,,9.892546606994485e-05,206.932,0.6140000224113464,-2.264224755495587
207.155172,,8.792220404440087e-05,207.395,0.5989999771118164,-2.297145713039515
207.62069,,7.613480499440276e-05,207.858,0.5860000252723694,-2.3256422097420244
208.086207,,6.357169673809553e-05,208.326,0.5789999961853027,-2.3409950710774994
208.551724,,5.024445013702278e-05,208.788,0.6190000176429749,-2.253875529326565
209.01724099999998,,3.616787410072411e-05,209.253,0.5740000009536743,-2.3518636841158385
209.482759,,2.13601031529434e-05,209.717,0.5910000205039978,-2.314699722034574
209.948276,,5.842676923957713e-06,210.183,0.5929999947547913,-2.310143532054349
210.413793,,1.0359389065380199e-05,210.648,0.5699999928474426,-2.3599873176554147
210.87930999999998,,2.721754195892192e-05,211.113,0.5860000252723694,-2.3248059512043717
211.344828,,4.469964008511752e-05,211.578,0.5669999718666077,-2.3658296804979204
211.810345,,6.276991205861702e-05,212.043,0.5680000185966492,-2.363244065578907
212.27586200000002,,8.138892706994502e-05,212.51,0.5830000042915344,-2.330133830890691
212.741379,,0.00010051357695628767,212.976,0.593999981880188,-2.3057269816093595
213.206897,,0.00012009707063044362,213.436,0.578000009059906,-2.3401455695168107
213.672414,,0.00014008894142628382,213.906,0.593999981880188,-2.304863268682356
214.137931,,0.0001604350678975918,214.366,0.6190000176429749,-2.2500012444998485
214.60344800000001,,0.00018107770858287486,214.836,0.5789999961853027,-2.336791797097698
215.068966,,0.00020195555122161325,215.296,0.5929999947547913,-2.3059876062161573
215.534483,,0.00022300377687742789,215.766,0.6039999723434448,-2.281781584889341
216.0,,0.00024415413939077936,216.231,0.6140000224113464,-2.2598233107581107
216.465517,,0.0002653350605480605,216.695,0.5680000185966492,-2.3599449154230676
216.93103399999998,,0.00028647174131531225,217.16,0.5830000042915344,-2.327249177005301
217.39655199999999,,0.0003074862894432982,217.626,0.5809999704360962,-2.3316721856330522
217.862069,,0.00032829786370634073,218.091,0.5879999995231628,-2.3165670773594345
218.327586,,0.00034882283499019297,218.551,0.5960000157356262,-2.2993588559473914
218.793103,,0.00036897496439433777,219.017,0.5830000042915344,-2.327971284076673
219.25862099999998,,0.0003886655984615432,219.481,0.6079999804496765,-2.273855336627158
219.724138,,0.00040780388159231964,219.947,0.5950000286102295,-2.302577237731827
220.18965500000002,,0.0004262969856442227,220.41,0.5860000252723694,-2.322622098895472
220.65517200000002,,0.0004440503566558111,220.88,0.5920000076293945,-2.310011851160776
221.12069,,0.0004609679785726279,221.34,0.6060000061988831,-2.2799824835080837
221.586207,,0.0004769526537879398,221.81,0.5709999799728394,-2.356702532335897
222.051724,,0.0004919063002442916,222.281,0.593999981880188,-2.3070424940112586
222.517241,,0.0005057302647733581,222.736,0.5669999718666077,-2.366282793456455
222.98275900000002,,0.0005183256522812724,223.202,0.6190000176429749,-2.253363941157681
223.448276,,0.0005295936703147621,223.667,0.6290000081062317,-2.2318892368055794
223.913793,,0.0005394359884702156,224.132,0.5979999899864197,-2.299669086266293
224.37931,,0.0005477551120334482,224.599,0.5839999914169312,-2.3303350951582535
224.844828,,0.0005544547691626473,225.065,0.6209999918937683,-2.2498080895827415
225.31034499999998,,0.0005594403108509996,225.529,0.6230000257492065,-2.245447632084638
225.775862,,0.0005626191228290681,225.995,0.6840000152587891,-2.112458613640642
226.241379,,0.0005639010484903621,226.458,0.5759999752044678,-2.3475752151480105
226.706897,,0.0005631988218469827,226.921,0.5920000076293945,-2.312460849940672
227.172414,,0.0005604285094460242,227.392,0.6039999723434448,-2.285991860556195
227.63793099999998,,0.0005555099601018645,227.855,0.5789999961853027,-2.3400730209801317
228.103448,,0.0005483672612248899,228.318,0.6140000224113464,-2.263387319206964
228.56896600000002,,0.0005389292004538526,228.78,0.5830000042915344,-2.3304577001094953
229.03448300000002,,0.0005271297312272724,229.246,0.5759999752044678,-2.3452207170620523
229.5,,0.0005129084408594145,229.717,0.5920000076293945,-2.309870466008828
229.965517,,0.0004962110196188046,230.175,0.5979999899864197,-2.2963172432730596
230.431034,,0.0004769897292423023,230.64,0.5649999976158142,-2.367756720221545
230.896552,,0.0004552038692556524,231.106,0.6140000224113464,-2.260586717090641
231.362069,,0.00043082023941245286,231.573,0.5699999928474426,-2.3560835593419798
231.827586,,0.0004038135965082185,232.039,0.6129999756813049,-2.2621015199556904
232.293103,,0.0003741671037753432,232.504,0.5889999866485596,-2.31416162916531
232.758621,,0.00034187277101841807,232.969,0.5860000252723694,-2.320550109082409
233.224138,,0.0003069318836070638,233.432,0.578000009059906,-2.3379174832338085
233.689655,,0.00026935541840533906,233.902,0.6010000109672546,-2.287834254796486
234.155172,,0.0002291644446847989,234.362,0.5640000104904175,-2.368556927070948
234.62069,,0.00018639050804440373,234.825,0.6169999837875366,-2.253284827110401
235.086207,,0.00014107599534319136,235.296,0.5920000076293945,-2.3080241374288324
235.55172399999998,,9.327447863637073e-05,235.758,0.5709999799728394,-2.354117904200328
236.01724099999998,,4.3051036092524645e-05,236.224,0.5789999961853027,-2.3370903717469655
236.482759,,9.517452130740715e-06,236.688,0.5809999704360962,-2.3331821961532766
236.94827600000002,,6.434203505466143e-05,237.154,0.5720000267028809,-2.3532724675039374
237.413793,,0.00012132145106472699,237.621,0.6039999723434448,-2.2840566257756953
237.87931,,0.00018034191908020757,238.087,0.5820000171661377,-2.3324897432865628
238.344828,,0.00024127696268042142,238.551,0.5759999752044678,-2.3460514882610206
238.810345,,0.00030398726911682716,239.017,0.6069999933242798,-2.2789747082098937
239.27586200000002,,0.00036832058501031704,239.481,0.5540000200271606,-2.3948616051695
239.741379,,0.00043411165041727716,239.947,0.6209999918937683,-2.2492549055162043
240.206897,,0.0005011821730006608,240.407,0.5950000286102295,-2.306194191080211
240.672414,,0.0005693408441806311,240.877,0.5860000252723694,-2.3260188613932913
241.137931,,0.000638383398978962,241.34,0.597000002861023,-2.302186655924354
241.603448,,0.0007080927206758675,241.803,0.6370000243186951,-2.21508432309454
242.068966,,0.0007782389910484488,242.268,0.5669999718666077,-2.3675424860040954
242.534483,,0.0008485798876803102,242.732,0.5929999947547913,-2.3107618413631204
243.0,,0.0009188608308785559,243.198,0.5799999833106995,-2.3388649846548355
243.465517,,0.0009888152818201936,243.662,0.6190000176429749,-2.2536006504762223
243.93103399999998,,0.0010581650903795968,244.127,0.578000009059906,-2.342559425107196
244.39655199999999,,0.0011266208901295775,244.594,0.5649999976158142,-2.370459459405291
244.862069,,0.0011938825434320878,245.059,0.6039999723434448,-2.2850267866412937
245.327586,,0.0012596396454820616,245.525,0.5979999899864197,-2.2976035498261282
245.793103,,0.001323572089389422,245.99,0.5839999914169312,-2.3275949485563645
246.258621,,0.001385350676357564,246.451,0.6079999804496765,-2.2747991158238166
246.724138,,0.0014446377541665672,246.921,0.6150000095367432,-2.2590566839397845
247.18965500000002,,0.0015010879031322668,247.384,0.6190000176429749,-2.249881255676751
247.655172,,0.0015543487187040224,247.847,0.6019999980926514,-2.2865030205802164
248.12069,,0.001604061689379912,248.314,0.5799999833106995,-2.3340775955700632
248.586207,,0.001649863066202617,248.776,0.5950000286102295,-2.301113737843194
249.051724,,0.0016913846417236447,249.242,0.546999990940094,-2.4054864886910297
249.517241,,0.001728254583664884,249.706,0.5879999995231628,-2.316048126317109
249.982759,,0.0017600986048780542,250.171,0.5649999976158142,-2.366135585003156
250.44827600000002,,0.0017865413919932484,250.636,0.5139999985694885,-2.477319267440883
250.913793,,0.0018072076476679357,251.101,0.6100000143051147,-2.2683338195814655
251.37931000000003,,0.0018217223867664925,251.566,0.6050000190734863,-2.279476545103176
251.844828,,0.001829711520820223,252.032,0.5680000185966492,-2.3604118378520957
252.31034499999998,,0.0018308042896809321,252.496,0.5879999995231628,-2.3172308116737343
252.77586200000002,,0.0018246366507241847,252.962,0.578000009059906,-2.3394636486586133
253.241379,,0.0018108517035999123,253.425,0.5540000200271606,-2.392238421376077
253.706897,,0.001789095843967584,253.895,0.5920000076293945,-2.3099628651617126
254.172414,,0.001759017660733571,254.358,0.593999981880188,-2.3061273839904883
254.63793099999998,,0.001720277850431173,254.821,0.5830000042915344,-2.330605869256187
255.10344800000001,,0.0016725623160318758,255.285,0.6039999723434448,-2.2853431284400063
255.56896600000002,,0.0016155751800492719,255.754,0.5699999928474426,-2.3598660798656446
256.03448299999997,,0.0015490092457828028,256.22,0.6079999804496765,-2.277472508744447
256.5,,0.001472539778476363,256.68,0.6060000061988831,-2.2821578198628485
256.965517,,0.0013858832581665444,257.146,0.5960000157356262,-2.3041946402738884
257.431034,,0.00128885999437582,257.614,0.5960000157356262,-2.304359900288094
257.896552,,0.001181326197960406,258.079,0.6179999709129333,-2.25650458886758
258.362069,,0.0010629939423944892,258.54,0.5860000252723694,-2.3262033121970864
258.827586,,0.0009334300756577045,259.005,0.578000009059906,-2.343523486253549
259.29310300000003,,0.0007924283454876376,259.477,0.6150000095367432,-2.2627171129337778
259.758621,,0.0006403111916809758,259.935,0.6190000176429749,-2.2537239028485856
260.224138,,0.0004774079272693503,260.403,0.5690000057220459,-2.362304608227465
260.689655,,0.00030302045688298027,260.865,0.5849999785423279,-2.3270340825101843
261.155172,,0.0001156736494053475,261.333,0.597000002861023,-2.300430883601211
261.62068999999997,,8.455590560836822e-05,261.796,0.5820000171661377,-2.3326181956346113
262.086207,,0.0002946949468515633,262.261,0.597000002861023,-2.299428697638287
262.551724,,0.0005125871921284656,262.731,0.597000002861023,-2.2989173307007285
263.017241,,0.0007426193927063324,263.19,0.5830000042915344,-2.3289215726385972
263.482759,,0.0009926510782392775,263.655,0.5690000057220459,-2.3589567509689657
263.94827599999996,,0.0012597897855799764,264.121,0.5849999785423279,-2.323678540456878
264.413793,,0.0015253561438439704,264.588,0.5920000076293945,-2.308066702467225
264.87931,,0.0017801161862843458,265.054,0.5879999995231628,-2.3164894545965544
265.34482799999995,,0.002054759488500392,265.521,0.5989999771118164,-2.2923106716099277
265.810345,,0.0023923195085706877,265.98,0.5960000157356262,-2.2987172546522436
266.27586199999996,,0.002763491517508235,266.448,0.5680000185966492,-2.359678846458577
266.741379,,0.0030558408288703146,266.91,0.5429999828338623,-2.4141959049988717
267.206897,,0.003239695256882526,267.38,0.5910000205039978,-2.309761443027522
267.672414,,0.0035237451534716707,267.843,0.5820000171661377,-2.3295942107076577
268.137931,,0.004137903724549017,268.307,0.6050000190734863,-2.279785933815421
268.603448,,0.00482453675067095,268.777,0.5849999785423279,-2.32372533280152
269.06896600000005,,0.004808391820464664,269.235,0.597000002861023,-2.2980017939662334
269.53448299999997,,0.0037054424173673882,269.706,0.6119999885559082,-2.265782587022456
270.0,,0.0024267059246122413,270.172,0.5419999957084656,-2.4187746072169305
270.465517,,0.00270549813724212,270.636,0.5709999799728394,-2.356092884698853
270.931034,,0.005574263848178632,271.095,0.5690000057220459,-2.360946153381153
271.396552,,0.010571708968989247,271.562,0.6000000238418579,-2.293884228565753
271.86206899999996,,0.016329924397647078,272.027,0.574999988079071,-2.3487912951288785
272.327586,,0.02129438345397705,272.492,0.5920000076293945,-2.3121456471373008
272.793103,,0.023737044648331315,272.958,0.5440000295639038,-2.417051314897307
273.258621,,0.022037183758028843,273.421,0.5929999947547913,-2.310557469213904
273.724138,,0.01598413326463016,273.891,0.5960000157356262,-2.3042016054174934
274.18965499999996,,0.007656480165998775,274.352,0.5830000042915344,-2.332618085085619
274.655172,,0.00017778819546422674,274.821,0.5849999785423279,-2.3282663253869846
275.12069,,0.004639180091512424,275.284,0.5830000042915344,-2.33254073682133
275.586207,,0.007155892780413222,275.747,0.5490000247955322,-2.4064471092275395
276.051724,,0.008629413268468344,276.213,0.6060000061988831,-2.2820173861406583
276.517241,,0.009639630481739925,276.678,0.5960000157356262,-2.303484653114251
276.98275900000004,,0.009911936132008197,277.143,0.5799999833106995,-2.3379613234861902
277.448276,,0.009280568340871648,277.61,0.6000000238418579,-2.2939565382992475
277.913793,,0.008331289087892765,278.076,0.5709999799728394,-2.3566697446459957
278.37931,,0.007846199712164973,278.54,0.5950000286102295,-2.3038935510484326
278.844828,,0.007772600277415618,279.005,0.5130000114440918,-2.48205029709434
279.31034500000004,,0.007193887422665761,279.466,0.5879999995231628,-2.318171949543238
279.77586199999996,,0.005545751270111241,279.936,0.5699999928474426,-2.356935041583703
280.241379,,0.003535265633281207,280.399,0.6169999837875366,-2.2541256389021544
280.706897,,0.002468974128989695,280.862,0.593999981880188,-2.303873339080013
281.172414,,0.002829328991596878,281.325,0.6019999980926514,-2.2861457188759426
281.637931,,0.0038679438842406434,281.795,0.5709999799728394,-2.3534584258637983
282.10344799999996,,0.004435549980184235,282.26,0.5910000205039978,-2.3097405372897315
282.568966,,0.0038432211153577745,282.723,0.5640000104904175,-2.36850476759096
283.034483,,0.002181734942487434,283.189,0.6050000190734863,-2.279207966148948
283.5,,0.00039746681895854737,283.654,0.6019999980926514,-2.285857006945011
283.965517,,8.425371850711536e-05,284.12,0.6240000128746033,-2.2381202357363543
284.431034,,0.001432028532607666,284.584,0.5730000138282776,-2.3494994273365375
284.89655200000004,,0.0038780570029208826,285.05,0.6209999918937683,-2.2452590745338568
285.362069,,0.005148146069095289,285.514,0.5929999947547913,-2.3066518382704078
285.827586,,0.004155890665618677,285.98,0.5789999961853027,-2.3375874898666447
286.293103,,0.0018482502558394153,286.44,0.5669999718666077,-2.364197505812206
286.758621,,4.1403382285632996e-05,286.91,0.5709999799728394,-2.355966647782906
287.22413800000004,,0.0003142186865834315,287.373,0.5799999833106995,-2.3368447891512325
287.689655,,0.0004946168804195484,287.836,0.5839999914169312,-2.328602546793582
288.155172,,0.001704210238150433,288.307,0.6019999980926514,-2.2898299771761765
288.62069,,0.0026038463592914568,288.769,0.5690000057220459,-2.3621250904281546
289.086207,,0.0026338078205682446,289.235,0.5929999947547913,-2.3101815715887977
289.55172400000004,,0.0016875750013464986,289.698,0.5879999995231628,-2.321352048267844
290.01724099999996,,0.0004023033665687763,290.164,0.578000009059906,-2.3433400431044342
290.482759,,0.0002602533118421714,290.629,0.5809999704360962,-2.3369239369565737
290.948276,,0.0001124880911515617,291.094,0.503000020980835,-2.5068940971766307
291.413793,,0.000989624272855401,291.559,0.574999988079071,-2.349983145457495
291.87931,,0.001403248954148988,292.025,0.6150000095367432,-2.2627042290681025
292.344828,,0.0009151616771814259,292.485,0.5770000219345093,-2.345277130442151
292.81034500000004,,7.208100627876889e-05,292.95,0.550000011920929,-2.4038098338211795
293.275862,,0.00026131631358498414,293.418,0.5849999785423279,-2.3272012424592226
293.74137900000005,,4.3648715530270417e-05,293.88,0.593999981880188,-2.307182385206001
294.206897,,0.00030603467222605466,294.351,0.5699999928474426,-2.3590160924085897
294.672414,,1.0969216183161248e-05,294.813,0.6039999723434448,-2.2844596288367067
295.13793100000004,,0.0006846382957579418,295.284,0.6150000095367432,-2.2599974868571238
295.603448,,0.001201005348531048,295.74,0.6060000061988831,-2.279108726560274
296.068966,,0.001487576452461788,296.205,0.5720000267028809,-2.3527029949452207
296.534483,,0.0018898015111689871,296.67,0.5699999928474426,-2.356614265014288
297.0,,0.0025553263666398965,297.136,0.5830000042915344,-2.327894139479278
297.46551700000003,,0.00313274826913112,297.603,0.5929999947547913,-2.3057706254681656
297.931034,,0.0031283723582696005,298.069,0.5839999914169312,-2.3251125355195414
298.396552,,0.0024063311006453456,298.532,0.5720000267028809,-2.351070510757888
298.862069,,0.0012777636728995576,298.998,0.5920000076293945,-2.3073984871004383
299.327586,,0.00020558578562245573,299.466,0.6060000061988831,-2.276887676441419
299.79310300000003,,0.0004652099109063416,299.929,0.625,-2.23557241191966
300.258621,,0.0005263081304520125,300.391,0.5709999799728394,-2.353385304659564
300.724138,,9.755851061660904e-05,300.855,0.5630000233650208,-2.3710639388089527
301.189655,,0.001091743788620486,301.325,0.5989999771118164,-2.292959100498706
301.65517200000005,,0.0015085874751847325,301.787,0.5690000057220459,-2.358711235774434
302.12069,,0.00018949577438755248,302.253,0.6039999723434448,-2.2829052551148727
302.586207,,0.0031270975705996497,302.716,0.5830000042915344,-2.3291431845107087
303.05172400000004,,0.00710019506637321,303.182,0.6060000061988831,-2.279544795652893
303.517241,,0.009602191777284786,303.647,0.6079999804496765,-2.275705746064544
303.982759,,0.00958174327254323,304.113,0.550000011920929,-2.402577427971739
304.448276,,0.008041997931670727,304.581,0.5699999928474426,-2.359492103767933
304.913793,,0.007023905692316758,305.047,0.5879999995231628,-2.3207260088511834
305.37931000000003,,0.007721021687417652,305.511,0.5789999961853027,-2.340730125003485
305.844828,,0.009544156880268776,305.977,0.5770000219345093,-2.3454174826923055
306.310345,,0.010669683610790955,306.44,0.5950000286102295,-2.306454822018087
306.775862,,0.009498463644449942,306.902,0.5960000157356262,-2.3044430571616012
307.241379,,0.006092513752447036,307.37,0.5920000076293945,-2.313232285719812
307.70689699999997,,0.002374243394841183,307.833,0.5789999961853027,-2.3415346452877466
308.172414,,0.0005122187746984165,308.295,0.6079999804496765,-2.278239187771491
308.637931,,0.0007977653939535758,308.766,0.6000000238418579,-2.295461518559771
309.103448,,0.0012451520195407662,309.225,0.6069999933242798,-2.279917896633633
309.568966,,0.00045095035414037104,309.691,0.5830000042915344,-2.331835175478472
310.034483,,0.004532043905006362,310.157,0.6169999837875366,-2.257325278160943
310.5,,0.008913036553313323,310.622,0.6190000176429749,-2.252479159081536
310.96551700000003,,0.01126846434499683,311.088,0.5720000267028809,-2.3543495456875574
311.431034,,0.011046066448051705,311.554,0.5460000038146973,-2.4104498478248084
311.896552,,0.009345362838789256,312.02,0.6159999966621399,-2.2573990810916436
312.362069,,0.007331006525121469,312.484,0.6119999885559082,-2.2655829240217114
312.827586,,0.005329330318177205,312.95,0.5920000076293945,-2.3086558265588137
313.29310300000003,,0.003453530679993295,313.41,0.578000009059906,-2.3387047700298886
313.758621,,0.0024028287612754898,313.88,0.5759999752044678,-2.342673468667705
314.224138,,0.002809099521726373,314.344,0.6060000061988831,-2.2770011589672876
314.689655,,0.0038083348273428657,314.806,0.574999988079071,-2.344312254988773
315.155172,,0.0031897254031064237,315.273,0.5929999947547913,-2.3049630516894517
315.62068999999997,,0.00048609023974813704,315.738,0.625,-2.235210302890812
316.086207,,0.006320383540900387,316.204,0.5830000042915344,-2.326775991894296
316.551724,,0.011926056499637714,316.669,0.574999988079071,-2.3443656749074306
317.017241,,0.015531544467244435,317.135,0.5709999799728394,-2.3533353146327722
317.482759,,0.017175444731865934,317.601,0.574999988079071,-2.344962852194735
317.94827599999996,,0.018311617814105154,318.067,0.5960000157356262,-2.2996294595322766
318.413793,,0.02044210581218785,318.526,0.5669999718666077,-2.3632915130190724
318.87931000000003,,0.023625089868597064,318.992,0.5789999961853027,-2.337677020441435
319.344828,,0.025826331726428106,319.455,0.5849999785423279,-2.3251660177460143
319.810345,,0.023989061535175073,319.924,0.5649999976158142,-2.369313444906254
320.275862,,0.016340070920238575,320.385,0.5669999718666077,-2.365526582907074
320.741379,,0.0037469562122391365,320.855,0.5849999785423279,-2.3268588075811336
321.20689699999997,,0.011372589938469237,321.318,0.5929999947547913,-2.3099364818275374
321.672414,,0.02718651432207199,321.78,0.5929999947547913,-2.310385247280309
322.137931,,0.043096304319915076,322.246,0.5699999928474426,-2.360870408903776
322.603448,,0.058509849004272835,322.716,0.6029999852180481,-2.289266506542458
323.068966,,0.0715012642234067,323.175,0.6190000176429749,-2.25460396770442
323.53448299999997,,0.07898479361257241,323.64,0.5699999928474426,-2.3614511482419434
324.0,,0.07854874617348596,324.106,0.5789999961853027,-2.3418319378097854
324.465517,,0.07038357526176921,324.577,0.578000009059906,-2.343895023698321
324.931034,,0.057163954283287875,325.035,0.5799999833106995,-2.3393211162793706
325.396552,,0.041806286730452405,325.5,0.578000009059906,-2.343366991776773
325.86206899999996,,0.025678232570504375,325.966,0.574999988079071,-2.3495064992384282
326.327586,,0.009171325691204862,326.436,0.5979999899864197,-2.298927915903481
326.793103,,0.006711265232773412,326.898,0.5669999718666077,-2.3659376767794402
327.258621,,0.02028065400889519,327.366,0.5529999732971191,-2.3958691610761296
327.724138,,0.030708404735753096,327.828,0.5770000219345093,-2.3429892676576007
328.189655,,0.038890018293079934,328.296,0.5529999732971191,-2.39468066311708
328.655172,,0.046297950918883515,328.758,0.593999981880188,-2.304774218893841
329.12068999999997,,0.05325949622063991,329.224,0.5860000252723694,-2.3216535608390685
329.586207,,0.05863219880948004,329.688,0.6100000143051147,-2.268864955373332
330.051724,,0.06079924315952327,330.153,0.5879999995231628,-2.3163587447475718
330.517241,,0.058585925027081105,330.618,0.5699999928474426,-2.3552173723650762
330.982759,,0.05155447784376915,331.084,0.5820000171661377,-2.3288085591102283
331.44827599999996,,0.040214272065309975,331.551,0.6990000009536743,-2.0737403991462275
331.913793,,0.026320557345958007,332.01,0.5370000004768372,-2.4266184087863754
332.37931,,0.012446317780904914,332.477,0.5889999866485596,-2.3133742288259374
332.844828,,0.00039631342381680345,332.943,0.5830000042915344,-2.3266008862881895
333.310345,,0.0100208619779189,333.41,0.5929999947547913,-2.3050733736141567
333.77586199999996,,0.01988780169048881,333.873,0.5849999785423279,-2.3228581165554187
334.241379,,0.028700792004749946,334.336,0.6119999885559082,-2.264475640971806
334.706897,,0.033880045970674795,334.806,0.574999988079071,-2.345598762119982
335.17241399999995,,0.033244861097656994,335.272,0.6129999756813049,-2.2633796804805457
335.637931,,0.02747437334265815,335.73,0.5789999961853027,-2.3380620329381836
336.103448,,0.01973153626804865,336.195,0.6010000109672546,-2.2907600060427065
336.56896600000005,,0.013099923511829602,336.662,0.5669999718666077,-2.365463168264644
337.034483,,0.00852470247221311,337.128,0.5989999771118164,-2.296356496245925
337.5,,0.004977428151509865,337.592,0.515999972820282,-2.4777571891946866
337.965517,,0.0013143928370794406,338.057,0.597000002861023,-2.301804585248918
338.431034,,0.0022364507346270507,338.521,0.5849999785423279,-2.328393596457823
338.89655200000004,,0.004561579513925164,338.987,0.6069999933242798,-2.2808193626960724
339.36206899999996,,0.005429886563949057,339.455,0.6050000190734863,-2.2854310415724597
339.827586,,0.006117481231577039,339.917,0.6050000190734863,-2.2855746627973486
340.293103,,0.0078006514799847096,340.381,0.6190000176429749,-2.2551008129276666
340.758621,,0.009802086292544756,340.85,0.5830000042915344,-2.3334415643640147
341.224138,,0.010304088940909973,341.314,0.6060000061988831,-2.2831268543168513
341.68965499999996,,0.00877141893473073,341.776,0.5830000042915344,-2.3329209249704603
342.155172,,0.006842950804352963,342.242,0.5839999914169312,-2.3303280451304835
342.62069,,0.006520029520300107,342.706,0.6019999980926514,-2.2906112415174986
343.086207,,0.007923925703027144,343.172,0.5709999799728394,-2.3575766644687257
343.551724,,0.009145075447740616,343.636,0.574999988079071,-2.3482360910056337
344.01724099999996,,0.00818913521049943,344.102,0.5799999833106995,-2.336683466108417
344.48275900000004,,0.004995561086174794,344.567,0.5830000042915344,-2.329474934073274
344.948276,,0.0016547019862399415,345.033,0.5960000157356262,-2.3004874555543844
345.413793,,0.0007003986205238061,345.499,0.5289999842643738,-2.4458212545853915
345.87931,,0.0030076827110391796,345.965,0.5910000205039978,-2.3101596943030476
346.344828,,0.007060026663461333,346.429,0.5540000200271606,-2.3902533261647134
346.81034500000004,,0.010177135692364812,346.891,0.5849999785423279,-2.3222839577118037
347.275862,,0.010621437943673843,347.359,0.6309999823570251,-2.22173245765161
347.741379,,0.008688640226966358,347.821,0.5830000042915344,-2.3260812507912947
348.206897,,0.005991582392628202,348.292,0.6449999809265137,-2.1908935555437306
348.672414,,0.00403142394914088,348.754,0.5879999995231628,-2.3150837544519964
349.13793100000004,,0.003394536621221627,349.219,0.5849999785423279,-2.3217473528090458
349.60344799999996,,0.0037314995958651937,349.685,0.5799999833106995,-2.332886714736499
350.068966,,0.004193040276980218,350.15,0.5799999833106995,-2.3332447402023258
350.534483,,0.004081098210666369,350.611,0.578000009059906,-2.338061602302279
351.0,,0.003150189848900121,351.076,0.5669999718666077,-2.362574606522138
351.465517,,0.0013171016126309742,351.544,0.5830000042915344,-2.328335643228367
351.93103399999995,,0.001441211458066756,352.01,0.6060000061988831,-2.278898105366188
352.396552,,0.004570118178555802,352.477,0.5669999718666077,-2.364567623810563
352.862069,,0.00678554624541559,352.936,0.5730000138282776,-2.3522075546269683
353.32758600000005,,0.007081099967521031,353.404,0.5879999995231628,-2.320227468132102
353.793103,,0.0058932494770910365,353.866,0.5950000286102295,-2.3056412816495437
354.258621,,0.004823028519947495,354.336,0.5989999771118164,-2.2975342627817
354.72413800000004,,0.004994036731858059,354.799,0.6110000014305115,-2.271920953520022
355.189655,,0.00595491233141465,355.264,0.5950000286102295,-2.307215511505968
355.655172,,0.006458842971258747,355.727,0.5950000286102295,-2.3075435467842857
356.12069,,0.00606448318571661,356.193,0.5799999833106995,-2.3404328708571516
356.586207,,0.00557339779355251,356.661,0.6119999885559082,-2.2707997084868503
357.05172400000004,,0.005958950944575696,357.127,0.5839999914169312,-2.3317558827233857
357.517241,,0.007159006266330039,357.591,0.5830000042915344,-2.333760038981371
357.982759,,0.00803755423395941,358.05,0.5809999704360962,-2.33781979777543
358.448276,,0.007560651978945599,358.522,0.6060000061988831,-2.282940945586524
358.913793,,0.005940151721683332,358.98,0.5960000157356262,-2.3042114729463266
359.37931000000003,,0.0044024075363457765,359.448,0.5920000076293945,-2.3123222884784322
359.844828,,0.0038629344634959857,359.91,0.574999988079071,-2.348686790957675
360.310345,,0.004180313373123771,360.381,0.6110000014305115,-2.2695347536804866
360.775862,,0.004697298789237828,360.843,0.5669999718666077,-2.364648788057362
361.241379,,0.004975907559654938,361.311,0.5730000138282776,-2.3508283476668717
361.706897,,0.004800929912634285,361.774,0.5929999947547913,-2.3065287318247303
362.172414,,0.003976436555302722,362.239,0.578000009059906,-2.3385258066591263
362.63793100000004,,0.002583389994000425,362.705,0.597000002861023,-2.296514303219955
363.103448,,0.0012524044643917563,363.171,0.5899999737739563,-2.311232532685748
363.568966,,0.0007246601277848948,363.636,0.5879999995231628,-2.315159258749741
364.034483,,0.001027567408195481,364.101,0.6039999723434448,-2.279986218384192
364.5,,0.0013673612891641645,364.566,0.6140000224113464,-2.2580104698092827
364.96551700000003,,0.0010542407084976116,365.032,0.5820000171661377,-2.3276702735857064
365.431034,,0.0003265725027747693,365.496,0.5419999957084656,-2.4148958377883893
365.896552,,9.06116090003265e-05,365.955,0.5789999961853027,-2.334501634085099
366.362069,,0.0001928652511006591,366.425,0.6119999885559082,-2.262951076699828
366.827586,,0.000984504693792574,366.888,0.5450000166893005,-2.4093836438605662
367.29310300000003,,0.003146752448315986,367.355,0.5849999785423279,-2.322806464406551
367.758621,,0.005561709723852023,367.817,0.6060000061988831,-2.277711168510775
368.224138,,0.005868213922614826,368.281,0.6119999885559082,-2.265361656548836
368.689655,,0.0030293537425845085,368.751,0.5839999914169312,-2.3271297869199876
369.155172,,0.0009206525094671582,369.216,0.5410000085830688,-2.421599284209366
369.62068999999997,,0.0023751037411937673,369.68,0.5789999961853027,-2.3395968255468933
370.086207,,0.0003526568165433561,370.146,0.5640000104904175,-2.37303629554135
370.55172400000004,,0.0053575740020352786,370.61,0.5920000076293945,-2.3127427827753273
371.017241,,0.009168616892816384,371.076,0.5960000157356262,-2.304662321400537
371.482759,,0.010058733434658003,371.54,0.5709999799728394,-2.3596677202812355
371.948276,,0.009044785588460093,372.005,0.625,-2.2424470204964995
372.413793,,0.008237839823897272,372.466,0.6190000176429749,-2.2558171325719014
372.87931000000003,,0.008970336459697342,372.936,0.5879999995231628,-2.323515173212233
373.344828,,0.011120973482947986,373.399,0.550000011920929,-2.406321604173577
373.810345,,0.013266300818659416,373.861,0.6060000061988831,-2.2841926464163427
374.275862,,0.013427027687826859,374.329,0.6150000095367432,-2.2643193964201003
374.741379,,0.010413997885631469,374.792,0.597000002861023,-2.303135469295896
375.20689699999997,,0.0048309734717124605,375.258,0.5879999995231628,-2.322222026272169
375.672414,,0.0014105917801138289,375.721,0.6019999980926514,-2.2910941782474423
376.137931,,0.006702365391257719,376.186,0.574999988079071,-2.349204827975031
376.603448,,0.0107793637664862,376.651,0.5669999718666077,-2.365857887543374
377.068966,,0.0141618318202384,377.116,0.5789999961853027,-2.338899226013139
377.53448299999997,,0.0169701592626925,377.581,0.5879999995231628,-2.3184627721715296
378.0,,0.01877882232806648,378.047,0.5640000104904175,-2.369933685718669
378.465517,,0.01940980856103694,378.514,0.593999981880188,-2.30379533985202
378.931034,,0.019061552543266472,378.98,0.49300000071525574,-2.523123370557843
379.396552,,0.01753451255655554,379.444,0.5879999995231628,-2.3155236391477896
379.862069,,0.014189995474846171,379.906,0.5709999799728394,-2.35203861965799
380.327586,,0.009193129949354709,380.373,0.5770000219345093,-2.338565827864969
380.79310300000003,,0.004235314278536885,380.836,0.5809999704360962,-2.3295847188642607
381.258621,,0.001277921007434284,381.307,0.5720000267028809,-2.349068639530935
381.724138,,0.0005897814410659428,381.769,0.609000027179718,-2.268481539118663
382.189655,,0.0005494460730137401,382.235,0.5210000276565552,-2.4603725384394513
382.655172,,0.00047804583109454455,382.698,0.5979999899864197,-2.292929823493284
383.12068999999997,,0.002544566084875605,383.164,0.6119999885559082,-2.2628744868463126
383.586207,,0.004545486527826373,383.628,0.6169999837875366,-2.252544084855192
384.051724,,0.005575569120561427,384.094,0.5690000057220459,-2.3577825345462173
384.517241,,0.005425297220362216,384.558,0.5920000076293945,-2.3084185448221213
384.982759,,0.004316855831416833,385.024,0.5860000252723694,-2.3222943656301758
385.44827599999996,,0.0028609000071240275,385.488,0.5789999961853027,-2.338383229401914
385.913793,,0.0020946257400497013,385.954,0.5759999752044678,-2.3457664029215812
386.37931,,0.0028344780194638334,386.422,0.5929999947547913,-2.3095591776276327
386.84482799999995,,0.0046641077013570035,386.884,0.5830000042915344,-2.3321320439546245
387.310345,,0.005954867492935125,387.347,0.5950000286102295,-2.306706479914773
387.775862,,0.005381693688033672,387.81,0.5960000157356262,-2.3051552830708872
388.241379,,0.003327208987402175,388.281,0.5839999914169312,-2.331815942860003
388.70689699999997,,0.0014817305147564034,388.743,0.5799999833106995,-2.3409209187799958
389.172414,,0.001240749737065309,389.209,0.6050000190734863,-2.286705925190444
389.637931,,0.0026899584131090375,389.673,0.593999981880188,-2.310774522595914
390.103448,,0.00470997013543681,390.139,0.5920000076293945,-2.3150835038100523
390.56896600000005,,0.005717149120828346,390.606,0.6140000224113464,-2.2669541785978393
391.03448299999997,,0.004738792368332689,391.065,0.6029999852180481,-2.2905747683844004
391.5,,0.0022270956600859777,391.53,0.6079999804496765,-2.279201445608346
391.965517,,0.00028934190507421906,391.995,0.5799999833106995,-2.339603139221946
392.431034,,0.0014883821548102526,392.466,0.5920000076293945,-2.312757461147814
392.896552,,0.0011205319126610055,392.929,0.5789999961853027,-2.3402985481565772
393.36206899999996,,0.00022180197116591625,393.392,0.6060000061988831,-2.2806378359382613
393.827586,,0.0017631200699391055,393.862,0.5929999947547913,-2.3080926248663824
394.293103,,0.002793994636049172,394.322,0.6050000190734863,-2.2810771625064237
394.75862099999995,,0.002649804810822646,394.791,0.5789999961853027,-2.3368738384942347
395.224138,,0.0011017164953722855,395.257,0.5669999718666077,-2.3622201474374416
395.68965499999996,,0.0010615444673134316,395.72,0.5950000286102295,-2.300496303665233
396.155172,,0.0023889910754392608,396.185,0.6019999980926514,-2.284621870206751
396.62069,,0.0021351618207187404,396.652,0.6169999837875366,-2.251434309168173
397.086207,,0.001056090353400016,397.11,0.6190000176429749,-2.246700522242031
397.551724,,0.0005933699021714115,397.577,0.5820000171661377,-2.327077993011433
398.017241,,0.0014659805086700858,398.042,0.5870000123977661,-2.3161050210568765
398.48275900000004,,0.003222906072633416,398.507,0.5299999713897705,-2.4403657526531664
398.94827599999996,,0.004855082094190954,398.973,0.5929999947547913,-2.3033447362382105
399.413793,,0.005502081984259633,399.436,0.5659999847412109,-2.3625508868018015
399.87931,,0.004854041190677235,399.906,0.578000009059906,-2.336926380827599
400.344828,,0.003493121714783032,400.366,0.593999981880188,-2.3027080465624725
400.810345,,0.0028525195502757273,400.835,0.5789999961853027,-2.3361282150130833
401.27586199999996,,0.004170956245205141,401.296,0.5370000004768372,-2.428450622640491
401.741379,,0.0071179734121574615,401.765,0.5920000076293945,-2.3094981984163487
402.206897,,0.009733134743941664,402.232,0.5899999737739563,-2.3147546310272653
402.672414,,0.010018971501563712,402.695,0.5669999718666077,-2.3657598257071117
403.137931,,0.007658518181924345,403.16,0.5789999961853027,-2.3404820907272237
403.60344799999996,,0.004295228143317528,403.625,0.5960000157356262,-2.304253473946826
404.068966,,0.002222355353267699,404.091,0.5830000042915344,-2.333300707269717
404.534483,,0.0026020444511659748,404.551,0.5960000157356262,-2.305596372527452
405.0,,0.004656192374838097,405.017,0.5889999866485596,-2.321338781404652
405.465517,,0.006438196285808039,405.484,0.5759999752044678,-2.3500113144522583
405.931034,,0.006445729789507323,405.95,0.5910000205039978,-2.317528880523752
406.39655200000004,,0.004671846956465744,406.41,0.6039999723434448,-2.2892441951495353
406.862069,,0.002257231109485923,406.88,0.6060000061988831,-2.2847623748545245
407.327586,,0.00027722728141360033,407.34,0.6050000190734863,-2.28665770444361
407.793103,,0.0009575086100630041,407.81,0.6159999966621399,-2.2622588369520713
408.258621,,0.0016006826686130534,408.281,0.6209999918937683,-2.2507941910307996
408.72413800000004,,0.0018852190401938821,408.736,0.6119999885559082,-2.2697104918955264
409.18965499999996,,0.0022420105876481,409.202,0.6010000109672546,-2.292885915020918
409.655172,,0.003335468491051656,409.67,0.578000009059906,-2.3421327931334703
410.12069,,0.005640674088617723,410.135,0.5669999718666077,-2.365191878557181
410.586207,,0.009073393735546076,410.595,0.6050000190734863,-2.2814814547257622
411.05172400000004,,0.013091873450696616,411.061,0.5699999928474426,-2.356825442700529
411.51724099999996,,0.017120530747448275,411.526,0.5920000076293945,-2.308027929846539
411.982759,,0.020941255273790635,411.992,0.5929999947547913,-2.3050507856597835
412.448276,,0.024780137997775602,412.455,0.6169999837875366,-2.252057620472416
412.913793,,0.029141061886755276,412.925,0.5799999833106995,-2.332076999047236
413.37931,,0.034588669067739775,413.388,0.5849999785423279,-2.320727639483512
413.844828,,0.04131015035592059,413.85,0.5929999947547913,-2.3029916833691755
414.31034500000004,,0.048425385457630754,414.318,0.5789999961853027,-2.3333451519188215
414.775862,,0.053964015080894934,414.78,0.5690000057220459,-2.3551485309220945
415.241379,,0.05621212881969406,415.246,0.6290000081062317,-2.2246101963074456
415.706897,,0.05527685417267531,415.717,0.5540000200271606,-2.3883470840823544
416.172414,,0.05291854362646689,416.175,0.5289999842643738,-2.443300944447829
416.63793100000004,,0.050469835059030764,416.64,0.6169999837875366,-2.2522022229869485
417.103448,,0.04696593996083443,417.106,0.5960000157356262,-2.298689148216683
417.568966,,0.03962315038321822,417.573,0.6179999709129333,-2.2515829556595417
418.034483,,0.026219975710088148,418.039,0.5830000042915344,-2.3287226381879496
418.5,,0.006816115459674076,418.507,0.5839999914169312,-2.327467174738688
418.96551700000003,,0.016567258242580846,418.965,0.6039999723434448,-2.2848248113306755
419.43103399999995,,0.04106074871140628,419.433,0.5920000076293945,-2.3118767750051075
419.896552,,0.06343265497685406,419.895,0.5809999704360962,-2.3366996686946884
420.362069,,0.08038448613129758,420.366,0.5929999947547913,-2.3113363600173273
420.827586,,0.08955822712919154,420.828,0.5910000205039978,-2.31637221145656
421.293103,,0.09071658598817281,421.292,0.6100000143051147,-2.275532651837983
421.758621,,0.0857432123680827,421.762,0.5669999718666077,-2.3696281639897085
422.22413800000004,,0.0771879718695253,422.22,0.5640000104904175,-2.3764244505971592
422.689655,,0.06665150787073047,422.685,0.5669999718666077,-2.369988418530136
423.15517200000005,,0.05448927141368241,423.151,0.597000002861023,-2.3045640993809062
423.62069,,0.04097159777477578,423.617,0.5960000157356262,-2.3065139076651313
424.086207,,0.02761344257004085,424.083,0.5950000286102295,-2.308306046533731
424.55172400000004,,0.01710603292623174,424.548,0.5809999704360962,-2.3382752738742303
425.017241,,0.011385876197593158,425.014,0.5849999785423279,-2.328900067909577
425.482759,,0.009374154465434477,425.48,0.5690000057220459,-2.3629901060416616
425.948276,,0.00701656330607817,425.946,0.5870000123977661,-2.322922490986345
426.413793,,0.0004518766296169157,426.407,0.5720000267028809,-2.3546930982117935
426.87931000000003,,0.010343343864816737,426.877,0.5929999947547913,-2.308003433690613
427.344828,,0.021135324082336374,427.34,0.5460000038146973,-2.4094625044107043
427.810345,,0.026809078159332637,427.802,0.5860000252723694,-2.321409672449649
428.275862,,0.025159821783127527,428.268,0.6330000162124634,-2.2181638548357645
428.741379,,0.017609202009809297,428.732,0.5989999771118164,-2.2914709595307756
429.20689699999997,,0.00710703025627783,429.198,0.5960000157356262,-2.297346669357262
429.672414,,0.0038879764728310838,429.663,0.6000000238418579,-2.2881004135774203
430.137931,,0.013910721131920297,430.128,0.5839999914169312,-2.322572940857154
430.603448,,0.022263231920098044,430.595,0.5519999861717224,-2.392063115033126
431.068966,,0.028544600352215396,431.061,0.574999988079071,-2.341895462243543
431.534483,,0.03189322547872914,431.526,0.5669999718666077,-2.3594359889808647
432.0,,0.031021877440565764,431.991,0.6039999723434448,-2.2791033244680348
432.46551700000003,,0.025750616544244098,432.455,0.5920000076293945,-2.305681094423897
432.931034,,0.0180545232964986,432.917,0.5929999947547913,-2.304079698820337
433.396552,,0.01056410449912734,433.38,0.6039999723434448,-2.280817225972767
433.862069,,0.004166131426944508,433.851,0.6129999756813049,-2.262015093958968
434.327586,,0.0021085121275336094,434.314,0.5870000123977661,-2.3195437189815777
434.79310300000003,,0.009041090175590972,434.776,0.5379999876022339,-2.427233833437889
435.258621,,0.01604578470346207,435.242,0.5759999752044678,-2.3454063454428513
435.724138,,0.022160291491146015,435.706,0.5929999947547913,-2.30932447849598
436.189655,,0.027384259362778416,436.172,0.609000027179718,-2.2753836916369137
436.655172,,0.0325944016795733,436.636,0.6200000047683716,-2.2522687664194487
437.12068999999997,,0.03853813617377696,437.102,0.5989999771118164,-2.2987760496724934
437.586207,,0.045141636456565666,437.567,0.5920000076293945,-2.3146644360632185
438.051724,,0.051352694154632644,438.032,0.593999981880188,-2.310807878217586
438.517241,,0.05541785164461449,438.5,0.5889999866485596,-2.3220488165403053
438.982759,,0.055899997179304925,438.965,0.5659999847412109,-2.3723418898719677
439.448276,,0.053080589945773575,439.425,0.6019999980926514,-2.2939252446059384
439.913793,,0.04915055411433872,439.895,0.5690000057220459,-2.3656648872349972
440.37931000000003,,0.04617273925702658,440.358,0.5929999947547913,-2.3130556173839305
440.844828,,0.04347897757142753,440.821,0.6029999852180481,-2.2907906579187243
441.310345,,0.037655221119324844,441.292,0.5830000042915344,-2.3337424402132134
441.775862,,0.025691865597869956,441.754,0.5709999799728394,-2.359142282327105
442.241379,,0.00793383379503232,442.22,0.6179999709129333,-2.255901806164642
442.70689699999997,,0.012250105554820201,442.684,0.6110000014305115,-2.270233006964164
443.172414,,0.031025503872997948,443.15,0.5860000252723694,-2.32373299283403
443.637931,,0.0459536654335197,443.614,0.6209999918937683,-2.2464977438625366
444.103448,,0.056216422589553325,444.08,0.5669999718666077,-2.3631767204664365
444.568966,,0.06186464589097107,444.54,0.5889999866485596,-2.314324053288983
445.03448299999997,,0.0627426818347753,445.006,0.6060000061988831,-2.276439248730413
445.5,,0.0581552594620033,445.477,0.5770000219345093,-2.338873155174157
445.965517,,0.048105784930296,445.935,0.5879999995231628,-2.3142862080854414
446.431034,,0.03470075129064198,446.403,0.6140000224113464,-2.2571638789322077
446.896552,,0.02140512489058291,446.865,0.5730000138282776,-2.3461704737372955
447.36206899999996,,0.010580446169631013,447.336,0.5929999947547913,-2.302449897290903
447.827586,,0.0021870649630420127,447.798,0.5929999947547913,-2.3024777656613193
448.29310300000003,,0.005124740235300257,448.264,0.3959999978542328,-2.7318779202863817
448.758621,,0.012272175238139534,448.727,0.5910000205039978,-2.307423540708369
449.224138,,0.019085185521311998,449.193,0.6019999980926514,-2.284001098366606
449.689655,,0.024647403547826706,449.658,0.5789999961853027,-2.33479248638892
450.155172,,0.028052777751600276,450.123,0.5879999995231628,-2.3159860279511646
450.62068999999997,,0.029270648226886666,450.588,0.5830000042915344,-2.327774691384752
451.086207,,0.029284237811685338,451.054,0.6330000162124634,-2.219802688859959
451.551724,,0.028947872037587936,451.518,0.597000002861023,-2.299228430296239
452.017241,,0.02790049919065765,451.984,0.5849999785423279,-2.3263699697141256
452.482759,,0.025184793090062607,452.447,0.5690000057220459,-2.362199539196172
452.94827599999996,,0.020736357466490277,452.917,0.5929999947547913,-2.3108267074476414
453.413793,,0.01566376081565251,453.377,0.5830000042915344,-2.3334422707170863
453.87931,,0.01119945623992618,453.84,0.5809999704360962,-2.3385170019651427
454.344828,,0.007789499449019667,454.31,0.6039999723434448,-2.2889909315452193
454.810345,,0.005023248770025161,454.773,0.5929999947547913,-2.3133853793898576
455.27586199999996,,0.0021785275760322835,455.238,0.5889999866485596,-2.322362297723086
455.741379,,0.0010122136101612816,455.705,0.5960000157356262,-2.3071988029417767
456.206897,,0.004030366885548468,456.17,0.5669999718666077,-2.370289126080744
456.672414,,0.00607790666116102,456.632,0.6039999723434448,-2.289413731309215
457.137931,,0.006849690925990562,457.098,0.5910000205039978,-2.317303470443411
457.603448,,0.006798734462965439,457.562,0.5989999771118164,-2.2992875909370816
458.06896600000005,,0.006819277057382301,458.028,0.5770000219345093,-2.3464954182048685
458.53448299999997,,0.007593415823380328,458.493,0.5799999833106995,-2.3391247539485565
459.0,,0.008961108138554632,458.958,0.5929999947547913,-2.3098811522269194
459.465517,,0.010010740903874391,459.421,0.5799999833106995,-2.3372246112989346
459.931034,,0.010025140483239466,459.891,0.625,-2.2381784883948628
460.39655200000004,,0.009094505163907378,460.353,0.6060000061988831,-2.2785685115847625
460.86206899999996,,0.007580608041599529,460.815,0.5720000267028809,-2.351672834195903
461.327586,,0.005572395476096874,461.287,0.574999988079071,-2.344233918461771
461.793103,,0.0033905826413425403,461.75,0.5799999833106995,-2.3325331368849898
462.258621,,0.0019488161805379402,462.216,0.5830000042915344,-2.3253102356760573
462.724138,,0.0018013988320392893,462.68,0.5830000042915344,-2.3247654164056417
463.18965499999996,,0.0022361812981300903,463.146,0.5809999704360962,-2.3287372515985445
463.655172,,0.001911388244684813,463.611,0.5849999785423279,-2.3198086096566595
464.12069,,9.652146693477055e-05,464.07,0.5910000205039978,-2.3067007370886037
464.58620699999994,,0.002814473564310136,464.537,0.5230000019073486,-2.4549934294620215
465.051724,,0.005380496839447354,465.003,0.5640000104904175,-2.365990941424877
465.517241,,0.005781672890327342,465.466,0.5730000138282776,-2.3468724052783876
465.98275900000004,,0.0034447844535929486,465.936,0.5460000038146973,-2.4063364773909024
466.448276,,0.000220329871282815,466.399,0.6069999933242798,-2.2742101728147595
466.913793,,0.0010347134872114726,466.862,0.5989999771118164,-2.2925155181519266
467.37931,,0.0003929362561968877,467.33,0.5920000076293945,-2.3087186742330057
467.844828,,0.0018513165064774238,467.792,0.6190000176429749,-2.250894332660171
468.31034500000004,,0.0001851419439483896,468.258,0.5809999704360962,-2.334697321359008
468.77586199999996,,0.006552757980847501,468.721,0.5759999752044678,-2.3465889959942774
469.241379,,0.014736756577821199,469.186,0.5820000171661377,-2.334469171129018
469.706897,,0.02153201325850647,469.651,0.5329999923706055,-2.442099856730943
470.172414,,0.025553679630341757,470.116,0.5950000286102295,-2.3077980320427653
470.63793100000004,,0.027087608825770257,470.581,0.5849999785423279,-2.330231238189485
471.10344799999996,,0.02671073115308138,471.046,0.5849999785423279,-2.330728769042074
471.568966,,0.02485003982179776,471.51,0.5879999995231628,-2.3245256544299893
472.034483,,0.02191762941780766,471.976,0.6269999742507935,-2.2397152353921572
472.5,,0.018085435477186405,472.443,0.6179999709129333,-2.259297567061814
472.965517,,0.013368391481431692,472.906,0.6159999966621399,-2.2634473740488237
473.43103399999995,,0.00838472713062306,473.374,0.5799999833106995,-2.3414969285961384
473.89655200000004,,0.004435139048298163,473.837,0.5669999718666077,-2.3692768721245177
474.362069,,0.002146709938078435,474.307,0.6919999718666077,-2.0962585033482597
474.827586,,0.0004174617444306005,474.769,0.5879999995231628,-2.322025305347578
475.293103,,0.002326782499786278,475.235,0.5649999976158142,-2.3712238807344748
475.758621,,0.005705595368157103,475.698,0.593999981880188,-2.307066145661329
476.22413800000004,,0.0072631245420095945,476.164,0.5879999995231628,-2.3191248565827527
476.689655,,0.00545090194991382,476.628,0.5889999866485596,-2.315928571481571
477.155172,,0.0019619648183611398,477.094,0.5849999785423279,-2.323653292176683
477.62069,,0.00015731430314292315,477.559,0.5540000200271606,-2.390261145456799
478.086207,,0.001503873258478302,478.024,0.6169999837875366,-2.2521652066296767
478.55172400000004,,0.0043823674854755424,478.485,0.5540000200271606,-2.3886938260231068
479.01724099999996,,0.0062621299326726665,478.951,0.6060000061988831,-2.274815800143603
479.482759,,0.006167308888970914,479.418,0.6230000257492065,-2.2373456643687093
479.948276,,0.004813013816268069,479.881,0.6039999723434448,-2.278474576396705
480.413793,,0.0032603678874111434,480.351,0.6079999804496765,-2.269670548787343
480.87931000000003,,0.0021682722942945516,480.814,0.5759999752044678,-2.3394776345510664
481.344828,,0.0018136899616097027,481.285,0.5889999866485596,-2.311423193394066
481.810345,,0.002052191223070391,481.747,0.5929999947547913,-2.3031458929788498
482.275862,,0.0024619885492963107,482.205,0.6190000176429749,-2.2470928749340056
482.74137900000005,,0.0029901407950086284,482.677,0.5789999961853027,-2.3349664315562695
483.206897,,0.004185498458021737,483.135,0.6060000061988831,-2.276983632722324
483.672414,,0.006362817712546162,483.601,0.5899999737739563,-2.3127696145497456
484.13793100000004,,0.008677712820403749,484.067,0.6110000014305115,-2.2680027096918733
484.603448,,0.009484176646753698,484.533,0.5809999704360962,-2.334373385618392
485.068966,,0.00790625875017112,484.998,0.5709999799728394,-2.3571664227815496
485.534483,,0.0049467314857688125,485.466,0.5929999947547913,-2.3102069294417222
486.0,,0.0026302569893478346,485.929,0.6100000143051147,-2.274073363870693
486.46551700000003,,0.0019770100417247573,486.392,0.5960000157356262,-2.3053813673202335
486.931034,,0.0022932811067666124,486.855,0.5920000076293945,-2.3147811299913235
487.396552,,0.0026167470940116925,487.325,0.5989999771118164,-2.3000726964183706
487.862069,,0.003173057865095749,487.788,0.6209999918937683,-2.252523613251449
488.327586,,0.004724589899221295,488.254,0.5830000042915344,-2.3355203999530008
488.79310300000003,,0.006812646225567792,488.717,0.578000009059906,-2.3464432254130703
489.258621,,0.007717798248693898,489.182,0.5989999771118164,-2.3005422483152453
489.724138,,0.006693905026912322,489.647,0.6179999709129333,-2.2588231249116872
490.189655,,0.005476790610184996,490.113,0.6039999723434448,-2.2888333692015417
490.655172,,0.006516861035463372,490.58,0.5830000042915344,-2.333944059331492
491.12069,,0.009970190104973334,491.046,0.5879999995231628,-2.322281058716491
491.586207,,0.01357771361539129,491.505,0.5849999785423279,-2.3279428974629757
492.05172400000004,,0.015539168313977364,491.97,0.5950000286102295,-2.305205094032235
492.517241,,0.016332790734046008,492.441,0.593999981880188,-2.3063852244384604
492.982759,,0.01739306034643418,492.903,0.5759999752044678,-2.344586494128574
493.448276,,0.019088955583135503,493.366,0.5799999833106995,-2.334874171164924
493.913793,,0.020713023430446027,493.836,0.5709999799728394,-2.3535327641938824
494.37931000000003,,0.02180370725891397,494.296,0.5519999861717224,-2.394056718135456
494.844828,,0.022538353939700002,494.766,0.6129999756813049,-2.260394696823239
495.310345,,0.022742475591342407,495.225,0.6029999852180481,-2.281544857464448
495.775862,,0.02110478791440563,495.691,0.5699999928474426,-2.3529518663636804
496.241379,,0.01587553072165089,496.157,0.574999988079071,-2.3417347782979965
496.70689699999997,,0.006500234229286243,496.621,0.5680000185966492,-2.35683664253861
497.172414,,0.005426930338038878,497.087,0.5929999947547913,-2.3024013910034755
497.637931,,0.0169572589321402,497.554,0.5839999914169312,-2.3222180230884333
498.103448,,0.02580243534754446,498.021,0.5699999928474426,-2.3530992420554337
498.568966,,0.0316045972489789,498.48,0.4650000035762787,-2.5823995079835496
499.03448299999997,,0.03501034975119997,498.946,0.6140000224113464,-2.2584690613882366
499.5,,0.03577727533886604,499.414,0.5929999947547913,-2.305030213650358
499.96551700000003,,0.03263919496912635,499.877,0.5720000267028809,-2.3516850683340116
500.431034,,0.02534473493945967,500.34,0.6019999980926514,-2.2872947979071854
500.89655200000004,,0.016143546939904007,500.81,0.5929999947547913,-2.307906458038143
501.362069,,0.008572119684083682,501.277,0.5699999928474426,-2.3590224098484387
501.827586,,0.004808692003122123,501.74,0.5920000076293945,-2.3120712143493227
502.293103,,0.004401505586996965,502.205,0.5910000205039978,-2.315169879931383
502.758621,,0.005254295461776488,502.665,0.5720000267028809,-2.357396243836977
503.224138,,0.00541008021676523,503.131,0.5759999752044678,-2.3494003497855935
503.68965499999996,,0.004064611397927481,503.595,0.5889999866485596,-2.32166047047241
504.15517200000005,,0.0015504831984850325,504.061,0.5799999833106995,-2.3416962850443195
504.62068999999997,,0.0011920918110453211,504.525,0.5960000157356262,-2.307097623905943
505.08620699999994,,0.0032657057908593375,504.991,0.6079999804496765,-2.281036860370771
505.55172400000004,,0.004429502531379732,505.462,0.5820000171661377,-2.3375850761398063
506.017241,,0.005379199008236675,505.924,0.6010000109672546,-2.295918286660778
506.48275899999993,,0.0072888272551910795,506.392,0.597000002861023,-2.304193216146626
506.948276,,0.010820603151931339,506.855,0.5789999961853027,-2.342816238464837
507.413793,,0.015565980732366334,507.318,0.5960000157356262,-2.3050528302219777
507.87931,,0.020408928955825672,507.78,0.6150000095367432,-2.26282098377646
508.344828,,0.02417487292409162,508.246,0.503000020980835,-2.5059086213544175
508.810345,,0.026043771083773426,508.716,0.5899999737739563,-2.3153930563657665
509.27586199999996,,0.026033701924099487,509.182,0.5929999947547913,-2.3078612623605905
509.74137900000005,,0.02541280746854102,509.64,0.5950000286102295,-2.3025150670892836
510.20689699999997,,0.0260116278716284,510.106,0.5759999752044678,-2.3429590221113035
510.67241399999995,,0.028326749475144835,510.573,0.5860000252723694,-2.320290627846762
511.13793100000004,,0.030166137445636978,511.039,0.5699999928474426,-2.3543639701048877
511.603448,,0.027680579599609217,511.504,0.5699999928474426,-2.353700547915041
512.0689659999999,,0.01843142904167561,511.969,0.5899999737739563,-2.309606528198043
512.534483,,0.003705428782441939,512.432,0.5889999866485596,-2.3114218946788063
513.0,,0.012500988284846574,512.895,0.5929999947547913,-2.3025126585863265
513.465517,,0.02680355416961044,513.366,0.5820000171661377,-2.326457756493181
513.931034,,0.03815240322004151,513.828,0.6050000190734863,-2.2765037901247265
514.396552,,0.046282883553221674,514.292,0.6119999885559082,-2.2615774071168597
514.862069,,0.04983157215888888,514.762,0.6190000176429749,-2.246808865069168
515.327586,,0.04740973496122422,515.22,0.6320000290870667,-2.2191105716429513
515.793103,,0.040426346286566495,515.692,0.5960000157356262,-2.2982886967843292
516.258621,,0.033469953876913955,516.15,0.5860000252723694,-2.320922353895618
516.724138,,0.03098071024368062,516.617,0.6039999723434448,-2.28262864786142
517.189655,,0.033849299637425626,517.083,0.5789999961853027,-2.3380625304697826
517.655172,,0.039532253553507285,517.549,0.5690000057220459,-2.360833075148693
518.1206900000001,,0.04470756922165516,518.015,0.5960000157356262,-2.3029795161073143
518.5862070000001,,0.04727299236308436,518.477,0.6010000109672546,-2.2930108996574603
519.051724,,0.046628025087568296,518.942,0.5540000200271606,-2.3962578620448567
519.517241,,0.04312339108151225,519.41,0.5920000076293945,-2.3142198285097138
519.982759,,0.03731713286103678,519.873,0.5979999899864197,-2.3017744992715143
520.448276,,0.0294285054021326,520.34,0.5979999899864197,-2.302256302684109
520.9137929999999,,0.019547084333283813,520.803,0.5860000252723694,-2.328722037586845
521.37931,,0.008450967428528557,521.268,0.6340000033378601,-2.224298552526009
521.844828,,0.0020698834574570113,521.732,0.5669999718666077,-2.3702442397730077
522.310345,,0.010138770217351493,522.198,0.5920000076293945,-2.3155804018961152
522.7758620000001,,0.015166948257835822,522.663,0.6200000047683716,-2.2542130079596103
523.241379,,0.018066907611350765,523.128,0.5730000138282776,-2.356087373092487
523.7068969999999,,0.020040550530517322,523.596,0.6169999837875366,-2.259564603296269
524.172414,,0.021479982345951703,524.061,0.5809999704360962,-2.337214264240524
524.637931,,0.02209949956133744,524.526,0.578000009059906,-2.3428740124678464
525.103448,,0.021713909728235618,524.992,0.5879999995231628,-2.32014512193793
525.568966,,0.02072193370307176,525.454,0.6029999852180481,-2.2864856282190367
526.034483,,0.020006534220519234,525.917,0.6100000143051147,-2.2702476937950458
526.5,,0.02031332769036571,526.384,0.6269999742507935,-2.2322459873343607
526.9655170000001,,0.021659752501000266,526.847,0.5759999752044678,-2.3424454097357774
527.4310340000001,,0.023572300738184695,527.31,0.593999981880188,-2.302401039461027
527.8965519999999,,0.025802517956719367,527.78,0.5889999866485596,-2.312575099557717
528.362069,,0.028274038284595338,528.246,0.5659999847412109,-2.3620972994152627
528.827586,,0.030372659207881868,528.709,0.593999981880188,-2.3006597550407064
529.293103,,0.031173967290731283,529.175,0.597000002861023,-2.2938528035436563
529.7586210000001,,0.030895135596773798,529.64,0.5879999995231628,-2.313362196563028
530.224138,,0.031491154071618246,530.105,0.6010000109672546,-2.285116956756874
530.689655,,0.03487629290247604,530.569,0.5979999899864197,-2.2919032309671783
531.155172,,0.04063997417995605,531.035,0.6000000238418579,-2.2879612390314144
531.62069,,0.046402510065390104,531.499,0.593999981880188,-2.301600840718784
532.086207,,0.050421691665914585,531.964,0.6060000061988831,-2.276159078917869
532.5517239999999,,0.05265541068914275,532.425,0.6209999918937683,-2.244293358949127
533.017241,,0.05284546817896381,532.895,0.6299999952316284,-2.2255850103513417
533.482759,,0.048896491976029396,533.355,0.6079999804496765,-2.2744720553624345
533.9482760000001,,0.038469988311437046,533.825,0.6570000052452087,-2.168702050349476
534.413793,,0.02187119757945436,534.288,0.5950000286102295,-2.3047583421759814
534.87931,,0.0022826772936650327,534.751,0.6430000066757202,-2.2011295667475905
535.344828,,0.01704595005465993,535.216,0.6039999723434448,-2.286980240975992
535.810345,,0.0351374010027545,535.68,0.6629999876022339,-2.1592321597925603
536.275862,,0.052546158531807045,536.146,0.6340000033378601,-2.2230887031495685
536.7413789999999,,0.06878927847442264,536.613,0.6399999856948853,-2.210555089596809
537.206897,,0.08092489410367336,537.079,0.6489999890327454,-2.1913315933076998
537.672414,,0.08479263686370664,537.544,0.6439999938011169,-2.2024432420339837
538.137931,,0.07807256724305602,538.01,0.6909999847412109,-2.1000918759224882
538.6034480000001,,0.06255918968752003,538.477,0.6290000081062317,-2.2350383888005543
539.0689659999999,,0.043277166168692344,538.936,0.6299999952316284,-2.2325611569954233
539.5344829999999,,0.025163980875259374,539.403,0.6830000281333923,-2.1166350212083396
540.0,,0.010712501687787498,539.865,0.6460000276565552,-2.1966417316909133
540.465517,,0.00027268717259947917,540.336,0.6420000195503235,-2.2046270868053224
540.931034,,0.0067033730585534254,540.799,0.6779999732971191,-2.1253639334057244
541.396552,,0.01119915685865704,541.264,0.6480000019073486,-2.1898144618603412
541.862069,,0.01438669854107619,541.728,0.6430000066757202,-2.1997510535323443
542.327586,,0.016737668305584475,542.194,0.6990000009536743,-2.0767721571549824
542.7931030000001,,0.017274501689126826,542.658,0.7120000123977661,-2.047485656931737
543.258621,,0.014330570829549654,543.124,0.6650000214576721,-2.148958327241228
543.7241379999999,,0.007693559455441125,543.589,0.6460000276565552,-2.18950002038479
544.189655,,3.684984456729171e-05,544.054,0.6729999780654907,-2.1299231085936094
544.655172,,0.004896070177211441,544.521,0.6620000004768372,-2.15325709470408
545.12069,,0.0047069409942696525,544.98,0.6710000038146973,-2.13316006749097
545.5862070000001,,0.0005131344766150616,545.447,0.7269999980926514,-2.010822618152697
546.051724,,0.0051295457566498505,545.91,0.6700000166893005,-2.134837778714248
546.517241,,0.01071418991615698,546.38,0.6959999799728394,-2.0781963392223686
546.982759,,0.016382701240769168,546.843,0.7080000042915344,-2.0522268111386524
547.448276,,0.022610010030610413,547.307,0.6959999799728394,-2.078709795415932
547.9137929999999,,0.02932569590075272,547.776,0.6060000061988831,-2.27528348483341
548.3793099999999,,0.036686233870794324,548.235,0.6669999957084656,-2.143024366425885
548.844828,,0.04574990978535627,548.706,0.6850000023841858,-2.104569287215659
549.310345,,0.05715829357562623,549.171,0.7089999914169312,-2.0531382996217524
549.775862,,0.06936316387291402,549.636,0.6859999895095825,-2.104171990466088
550.241379,,0.07941751071802848,550.101,0.7390000224113464,-1.9896667952605316
550.706897,,0.08573959323490847,550.566,0.7369999885559082,-1.9949942379612704
551.172414,,0.08895605762731168,551.032,0.6809999942779541,-2.117945207967277
551.637931,,0.08958415597243403,551.492,0.6549999713897705,-2.1754863856131834
552.103448,,0.08627685820503976,551.957,0.7360000014305115,-1.9998341417045935
552.568966,,0.0776927688939166,552.425,0.7910000085830688,-1.8807198847963287
553.034483,,0.06505147482365509,552.887,0.7329999804496765,-2.0076615354280873
553.5,,0.050486373865133424,553.351,0.6740000247955322,-2.1366345428722613
553.965517,,0.03265973104549321,553.821,0.7250000238418579,-2.02579827337264
554.4310340000001,,0.006539093601448965,554.284,0.765999972820282,-1.9365808641170696
554.896552,,0.03057669922913114,554.747,0.6909999847412109,-2.0999148717548315
555.3620689999999,,0.0737544521750089,555.212,0.7080000042915344,-2.062645581595959
555.827586,,0.11296156128649958,555.677,0.7269999980926514,-2.0208596279890445
556.293103,,0.14084311775718628,556.143,0.7020000219345093,-2.0747868640635754
556.758621,,0.15646658591243076,556.611,0.6840000152587891,-2.1133344679280515
557.224138,,0.16135011654449016,557.076,0.7440000176429749,-1.9818394884516866
557.689655,,0.15461177204471174,557.537,0.734000027179718,-2.0027648094675206
558.155172,,0.1347804004149188,558.002,0.7289999723434448,-2.0127383771067526
558.6206900000001,,0.10555488211961574,558.466,0.7459999918937683,-1.9747518579861594
559.0862070000001,,0.07661232111945591,558.936,0.6859999895095825,-2.104522165741774
559.5517239999999,,0.05733658841878584,559.399,0.6729999780654907,-2.131928709495376
560.017241,,0.05070852868625956,559.862,0.7620000243186951,-1.9371742225719368
560.482759,,0.05354161790149142,560.325,0.7080000042915344,-2.05405258331365
560.948276,,0.060863583559911234,560.795,0.7080000042915344,-2.0533939432162245
561.413793,,0.06874415751279436,561.261,0.6869999766349792,-2.0986188900892433
561.87931,,0.07413717939738254,561.724,0.7110000252723694,-2.0459528676441985
562.344828,,0.07436555644863484,562.189,0.7419999837875366,-1.9781952865551604
562.8103450000001,,0.06776678428227788,562.655,0.6660000085830688,-2.1437180848704487
563.275862,,0.05449382524411082,563.12,0.6990000009536743,-2.071936151220024
563.7413789999999,,0.036460400207787916,563.58,0.722000002861023,-2.0221043685788525
564.206897,,0.016543193090779396,564.047,0.7239999771118164,-2.0181772521924604
564.672414,,0.0025206256622921676,564.514,0.6690000295639038,-2.138572509586834
565.137931,,0.019036796580629557,564.98,0.6790000200271606,-2.11747876983289
565.603448,,0.03260387932111071,565.44,0.6790000200271606,-2.1182730599121884
566.068966,,0.043886920177249475,565.91,0.6959999799728394,-2.082106093581985
566.534483,,0.05427232812831097,566.373,0.6660000085830688,-2.148383388660375
567.0,,0.06498192118567528,566.835,0.7080000042915344,-2.0578167293107397
567.465517,,0.07549655377823902,567.306,0.6869999766349792,-2.1044933810858586
567.931034,,0.08303355109551362,567.769,0.6190000176429749,-2.2535267091670064
568.396552,,0.08481267250737362,568.235,0.6949999928474426,-2.0887684787019136
568.862069,,0.08124166846387365,568.699,0.6809999942779541,-2.119995146388772
569.327586,,0.07593251142812651,569.164,0.6819999814033508,-2.118424732930301
569.793103,,0.07208643935487978,569.629,0.7289999723434448,-2.016499193764391
570.2586210000001,,0.0696709203966713,570.095,0.6700000166893005,-2.1453576122447178
570.724138,,0.06657356539926113,570.559,0.6470000147819519,-2.195623856057041
571.189655,,0.06147738014579172,571.025,0.6660000085830688,-2.1542227436982992
571.655172,,0.05477139629793852,571.485,0.6700000166893005,-2.145337249049347
572.12069,,0.047495815667716906,571.951,0.6539999842643738,-2.1798660605808067
572.586207,,0.040528292929301137,572.421,0.6439999938011169,-2.201175354880985
573.051724,,0.03455297300581698,572.884,0.6309999823570251,-2.2288891750859743
573.517241,,0.029946292800555965,573.347,0.675000011920929,-2.132307517466903
573.982759,,0.0264646513320753,573.81,0.6179999709129333,-2.2556795914875036
574.4482760000001,,0.02331119682634699,574.281,0.6060000061988831,-2.2809493329752533
574.913793,,0.019761395830188037,574.743,0.6439999938011169,-2.197251981404733
575.37931,,0.01582936378550817,575.209,0.6700000166893005,-2.139690335236752
575.844828,,0.012136089017148317,575.674,0.6729999780654907,-2.132256624235802
576.310345,,0.008945765701170125,576.14,0.6060000061988831,-2.277375767901439
576.775862,,0.005675601185381001,576.607,0.628000020980835,-2.228671283559599
577.241379,,0.0017568111126692813,577.065,0.6179999709129333,-2.2497845511638848
577.706897,,0.002273105924132054,577.532,0.6060000061988831,-2.275376816092274
578.172414,,0.005021707916634942,577.997,0.5879999995231628,-2.314180896693911
578.6379310000001,,0.005656720231497752,578.466,0.593999981880188,-2.3008505357897455
579.1034480000001,,0.004878345215021999,578.929,0.6179999709129333,-2.2484648617204677
579.5689659999999,,0.004332225518307822,579.392,0.6029999852180481,-2.281208620221617
580.034483,,0.005093902281981531,579.862,0.640999972820282,-2.198642988043942
580.5,,0.006961763672224029,580.322,0.6179999709129333,-2.249125598368167
580.965517,,0.009192689571531106,580.791,0.5979999899864197,-2.2932111274097533
581.431034,,0.011353590849656058,581.257,0.6110000014305115,-2.265524508403661
581.896552,,0.013140771816177265,581.719,0.6309999823570251,-2.2226897676820863
582.362069,,0.013951778195312728,582.185,0.5989999771118164,-2.29322315174065
582.827586,,0.013396377738693448,582.647,0.5860000252723694,-2.3224155939987674
583.2931030000001,,0.012191240194618855,583.112,0.5929999947547913,-2.3080621174146945
583.758621,,0.01184419994634448,583.576,0.5720000267028809,-2.354709578420856
584.2241379999999,,0.013067064636100507,584.042,0.574999988079071,-2.349040797566863
584.689655,,0.014983970045445117,584.507,0.5889999866485596,-2.3193506161653383
585.155172,,0.016408329819836844,584.973,0.6150000095367432,-2.263433752700366
585.6206900000001,,0.017351696114708357,585.436,0.5809999704360962,-2.338129602752556
586.0862070000001,,0.01844573898414696,585.906,0.597000002861023,-2.303767417987655
586.551724,,0.019288677255005333,586.369,0.5920000076293945,-2.3150161123796225
587.017241,,0.01856727102718217,586.832,0.5839999914169312,-2.33264896867309
587.482759,,0.0160643225872258,587.3,0.574999988079071,-2.352302935929664
587.948276,,0.013539887186961665,587.762,0.6060000061988831,-2.284652017850481
588.4137929999999,,0.012777682955876763,588.227,0.5669999718666077,-2.3693512771636374
588.87931,,0.013178597421708014,588.692,0.5680000185966492,-2.3667585155396913
589.344828,,0.012350101818266426,589.158,0.5830000042915344,-2.3335325577413135
589.810345,,0.00919419120308084,589.625,0.5659999847412109,-2.3699082382192875
590.2758620000001,,0.005353765771315262,590.09,0.5730000138282776,-2.353902251215183
590.741379,,0.0030875169001235974,590.555,0.5540000200271606,-2.3944714872195756
591.2068969999999,,0.0026702446059739464,591.02,0.5649999976158142,-2.3696379767067843
591.672414,,0.0027632052664577746,591.485,0.5849999785423279,-2.3251801566150787
592.137931,,0.0026770704063945744,591.951,0.47200000286102295,-2.570495056739168
592.603448,,0.0030607495268200747,592.414,0.5400000214576721,-2.4215167927295447
593.068966,,0.004302555816023874,592.876,0.5460000038146973,-2.4076824680812607
593.534483,,0.005300065558947559,593.344,0.5540000200271606,-2.389580299061297
594.0,,0.004610016012238245,593.806,0.5360000133514404,-2.428233195290031
594.4655170000001,,0.0024718856316952023,594.272,0.5419999957084656,-2.4147262518726746
594.9310340000001,,0.0007527725308642631,594.737,0.5540000200271606,-2.388288043101265
595.3965519999999,,0.0007063498574198781,595.203,0.5049999952316284,-2.4948972901475344
595.862069,,0.00161183679055735,595.67,0.5540000200271606,-2.3881531867437804
596.327586,,0.002096199500676374,596.135,0.6039999723434448,-2.2793822069938647
596.793103,,0.0020638449406080923,596.595,0.5180000066757202,-2.467052153684734
597.2586210000001,,0.0024507265786927065,597.061,0.5759999752044678,-2.341132679988204
597.724138,,0.0033935919793621414,597.526,0.5669999718666077,-2.3613039161870693
598.189655,,0.003738112912378232,597.991,0.5730000138282776,-2.3488977625870784
598.655172,,0.002688184630491115,598.462,0.5680000185966492,-2.360538268742418
599.12069,,0.0011001283330615203,598.924,0.5419999957084656,-2.4179889993637533
599.586207,,0.0004807228709166537,599.392,0.550000011920929,-2.4013998311517843
600.0517239999999,,0.0011387014989021065,599.854,0.5460000038146973,-2.410962857697883
600.517241,,0.0019144357399269623,600.318,0.574999988079071,-2.3486119268387227
600.982759,,0.0015536693660538551,600.78,0.5389999747276306,-2.4278286091224754
601.448276,,2.9349048215424383e-05,601.246,0.5419999957084656,-2.4220098401314862
601.913793,,0.0017875095998694675,601.716,0.550000011920929,-2.405208147396954
602.37931,,0.002632352815239399,602.175,0.5770000219345093,-2.3469023747438773
602.844828,,0.002497496801384742,602.64,0.5389999747276306,-2.4300829790311975
603.310345,,0.002390223400916731,603.105,0.5419999957084656,-2.423801957683168
603.775862,,0.003265813260486356,603.57,0.5490000247955322,-2.4086624370332155
604.2413789999999,,0.004644774279318295,604.035,0.5080000162124634,-2.4979516983104304
604.706897,,0.004603863435509787,604.5,0.5870000123977661,-2.325657996001885
605.172414,,0.0018072110641508524,604.965,0.5889999866485596,-2.3209790290301897
605.637931,,0.0024409552952520705,605.436,0.5440000295639038,-2.4185647803035764
606.1034480000001,,0.005013354960715584,605.898,0.5789999961853027,-2.341742583356581
606.5689659999999,,0.004139939915998957,606.366,0.5860000252723694,-2.3258237347757538
607.0344829999999,,0.0010872613042981385,606.828,0.5630000233650208,-2.375186388697058
607.5,,0.0015945560984334474,607.296,0.5400000214576721,-2.4244957143973966
607.965517,,0.0027159229164580964,607.758,0.5709999799728394,-2.3561306139048184
608.431034,,0.0028699399391881614,608.223,0.5649999976158142,-2.368373277689474
608.896552,,0.002936728871406902,608.688,0.5460000038146973,-2.40896221713218
609.362069,,0.0030666404306421632,609.154,0.5720000267028809,-2.3515611789847832
609.827586,,0.003027594796308738,609.619,0.550000011920929,-2.3988079693289714
610.293103,,0.0027433139383375668,610.084,0.5799999833106995,-2.33285857002295
610.758621,,0.002185081272666782,610.552,0.5429999828338623,-2.412990337271569
611.2241379999999,,0.0012095104985433691,611.01,0.5339999794960022,-2.43224732171648
611.689655,,0.00015241137585519506,611.482,0.5759999752044678,-2.340531457080542
612.155172,,0.0014952248880548452,611.94,0.5839999914169312,-2.323032581485231
612.62069,,0.002384996356143829,612.41,0.5519999861717224,-2.392823975046189
613.0862070000001,,0.0028225488067757025,612.873,0.5379999876022339,-2.4235425208988386
613.551724,,0.0032693181806576804,613.336,0.5690000057220459,-2.356358036580083
614.017241,,0.004217504940392446,613.806,0.5830000042915344,-2.326334260987863
614.4827590000001,,0.005629792969051943,614.265,0.5669999718666077,-2.3617775949154787
614.948276,,0.006684723270499048,614.735,0.5839999914169312,-2.325414422012714
615.4137929999999,,0.006206709040649994,615.201,0.5540000200271606,-2.3915157426927016
615.8793099999999,,0.0036756078573740984,615.66,0.5690000057220459,-2.3596231585378056
616.344828,,9.03958493151669e-06,616.127,0.5879999995231628,-2.319036169963504
616.810345,,0.0029466490808819955,616.591,0.5540000200271606,-2.393912179402518
617.275862,,0.0037164867197526656,617.057,0.5630000233650208,-2.375076743347105
617.741379,,0.0025039320719663295,617.522,0.5669999718666077,-2.367081354393274
618.206897,,0.0007341159202535912,617.988,0.550000011920929,-2.4047618158449144
618.672414,,0.00022104196959595688,618.451,0.5699999928474426,-2.3617371206829185
619.137931,,7.589563626097533e-05,618.921,0.5460000038146973,-2.414460816346202
619.603448,,0.0011412268327998414,619.381,0.5440000295639038,-2.4191292983419688
620.068966,,0.002181454119812594,619.85,0.5519999861717224,-2.401877457405903
620.534483,,0.0028347811229421553,620.311,0.5419999957084656,-2.423701831434411
621.0,,0.0033954129005272773,620.78,0.5669999718666077,-2.369132974606287
621.465517,,0.004240217616922068,621.246,0.5669999718666077,-2.368892346631782
621.9310340000001,,0.005186054203166947,621.71,0.5299999713897705,-2.449131683951061
622.396552,,0.005662686688550382,622.175,0.5419999957084656,-2.422499957316898
622.862069,,0.005487051830155334,622.64,0.5540000200271606,-2.395766352137286
623.327586,,0.005164151946404243,623.106,0.5730000138282776,-2.353697780470843
623.793103,,0.005194783825351888,623.566,0.5419999957084656,-2.4204978737983387
624.258621,,0.005251256973796496,624.031,0.5680000185966492,-2.363074356400682
624.724138,,0.004436730796325959,624.495,0.46299999952316284,-2.5910392593982436
625.189655,,0.002460462665515573,624.961,0.5899999737739563,-2.313568510682782
625.655172,,0.00029793392881207945,625.429,0.5699999928474426,-2.356391829127059
626.1206900000001,,0.0005152645556603285,625.891,0.5460000038146973,-2.4079844504740406
626.5862070000001,,0.0006856935734183251,626.359,0.5540000200271606,-2.3899375472525355
627.0517239999999,,0.0028773228363494162,626.82,0.550000011920929,-2.398131019164966
627.5172409999999,,0.004011613476176762,627.289,0.5389999747276306,-2.4216878697788182
627.982759,,0.002788367900694164,627.751,0.5339999794960022,-2.4322986001941853
628.448276,,4.5950348444713064e-05,628.217,0.515999972820282,-2.471366972374232
628.913793,,0.0023034372545227885,628.685,0.5339999794960022,-2.4321438913862568
629.37931,,0.002461683335349499,629.15,0.5540000200271606,-2.3887026271298155
629.844828,,0.0011678091747660962,629.61,0.5669999718666077,-2.360645574577021
630.3103450000001,,0.0004926383802485902,630.076,0.5299999713897705,-2.4416456805519067
630.7758620000001,,0.0016148195327155784,630.54,0.5249999761581421,-2.4530426932298375
631.2413789999999,,0.003384491706803644,631.006,0.5509999990463257,-2.3969997703393937
631.706897,,0.0033877930769669867,631.481,0.5410000085830688,-2.419466891032671
632.172414,,0.00042677504433634943,631.939,0.5680000185966492,-2.3613807081691713
632.637931,,0.004214126166912838,632.407,0.5669999718666077,-2.364329732685303
633.103448,,0.007977126215746764,632.87,0.5170000195503235,-2.4740417841257276
633.568966,,0.009428400521194964,633.333,0.5289999842643738,-2.448664668140815
634.034483,,0.00950963063138583,633.795,0.5460000038146973,-2.412357507628986
634.5,,0.01045937123183844,634.261,0.5260000228881836,-2.456600603290216
634.9655170000001,,0.013457298011880598,634.731,0.5540000200271606,-2.396187997361032
635.431034,,0.017426609047609603,635.197,0.5249999761581421,-2.459859567701184
635.8965519999999,,0.020305343021209343,635.655,0.5419999957084656,-2.4231993469372277
636.362069,,0.021299902471055433,636.12,0.5299999713897705,-2.4495948237369185
636.827586,,0.02139893249444502,636.585,0.5640000104904175,-2.375638888915393
637.293103,,0.021536992656448806,637.051,0.5440000295639038,-2.4191924516828043
637.7586210000001,,0.020867544208426153,637.518,0.5249999761581421,-2.4604311592412262
638.224138,,0.017557549905820518,637.983,0.5270000100135803,-2.455787739968002
638.689655,,0.01107819497998839,638.451,0.5389999747276306,-2.4292367663990153
639.155172,,0.002880935028513468,638.914,0.5199999809265137,-2.470115248810256
639.62069,,0.005290226773174199,639.377,0.5770000219345093,-2.3453232559073713
640.086207,,0.01299369078897333,639.847,0.550000011920929,-2.4034625565566077
640.551724,,0.020675056204924883,640.307,0.5120000243186951,-2.485513578963866
641.017241,,0.02823238298853268,640.77,0.5720000267028809,-2.354027412976832
641.482759,,0.03459845018041358,641.236,0.5210000276565552,-2.4643650270525215
641.9482760000001,,0.038690420264658104,641.706,0.5419999957084656,-2.4178581285905487
642.413793,,0.04025909528156891,642.165,0.5249999761581421,-2.4541819895445176
642.87931,,0.03957328565736893,642.636,0.5249999761581421,-2.4535332523378193
643.344828,,0.03673246583764603,643.102,0.5440000295639038,-2.411574584724765
643.810345,,0.03183923320755445,643.567,0.5419999957084656,-2.4154690040353466
644.275862,,0.025716203583633135,644.025,0.5249999761581421,-2.4521586829605138
644.7413789999999,,0.019870154288723737,644.492,0.5419999957084656,-2.414900760227595
645.206897,,0.015361785041321062,644.958,0.5490000247955322,-2.3995621216166017
645.672414,,0.011759985884326696,645.421,0.5379999876022339,-2.4235743311540814
646.1379310000001,,0.007673473679016786,645.891,0.5199999809265137,-2.462971052439284
646.6034480000001,,0.0027078767876363126,646.355,0.5389999747276306,-2.421886546577153
647.0689659999999,,0.0014859048674026741,646.817,0.5410000085830688,-2.4179576062035157
647.534483,,0.0028410991619683525,647.281,0.5419999957084656,-2.4163121380995856
648.0,,0.0014716293995042063,647.751,0.5419999957084656,-2.4169332623969737
648.465517,,0.00010182417522684541,648.216,0.5540000200271606,-2.3914788933456474
648.931034,,0.00046580743706088845,648.681,0.5460000038146973,-2.409644186899171
649.396552,,0.003065602508061764,649.14,0.5419999957084656,-2.419118743176878
649.862069,,0.005738100148771273,649.606,0.5360000133514404,-2.432951269274444
650.327586,,0.007026460730535428,650.072,0.5360000133514404,-2.433689409799767
650.7931030000001,,0.00709835159913604,650.537,0.550000011920929,-2.4038809480189616
651.258621,,0.0068376253716415725,651.003,0.5400000214576721,-2.4262927849097538
651.7241379999999,,0.00668004244493301,651.466,0.5519999861717224,-2.400687770168271
652.189655,,0.006478524814108829,651.936,0.5529999732971191,-2.3989443213948816
652.655172,,0.006009368136805816,652.399,0.5299999713897705,-2.4493717311707126
653.12069,,0.005493373417189368,652.861,0.5540000200271606,-2.397276507773077
653.5862070000001,,0.005730601245816537,653.329,0.5630000233650208,-2.377728688025606
654.051724,,0.007418177596561649,653.791,0.5709999799728394,-2.3602245858515127
654.517241,,0.010161639310092735,654.257,0.5690000057220459,-2.3643739215112567
654.982759,,0.012642018406317554,654.72,0.5260000228881836,-2.4577224421725687
655.448276,,0.014137379393966488,655.185,0.5540000200271606,-2.396273205872075
655.9137929999999,,0.015540469200761199,655.654,0.5419999957084656,-2.4218703896061027
656.37931,,0.018371861568512653,656.119,0.5690000057220459,-2.3624171848489985
656.844828,,0.022798332012673606,656.584,0.5429999828338623,-2.4183689002281183
657.310345,,0.027138610531132156,657.05,0.5429999828338623,-2.417634271893946
657.7758620000001,,0.029770257488434843,657.514,0.5460000038146973,-2.4103455916907803
658.241379,,0.03125427630572057,657.98,0.5860000252723694,-2.3224514033436154
658.7068969999999,,0.03382700351131404,658.44,0.550000011920929,-2.4001615304290036
659.172414,,0.03861024159834892,658.91,0.5649999976158142,-2.3668101819685443
659.637931,,0.04386360678851374,659.373,0.5529999732971191,-2.392353217362556
660.103448,,0.04627330262224933,659.835,0.5460000038146973,-2.407092658218912
660.568966,,0.04371146277937053,660.307,0.4480000138282776,-2.620197127954583
661.034483,,0.03669312637718697,660.769,0.5659999847412109,-2.362835306136515
661.5,,0.027556750670888537,661.235,0.5419999957084656,-2.414969765607822
661.965517,,0.018601478563071837,661.698,0.5460000038146973,-2.4062332439372693
662.4310340000001,,0.011081914820278975,662.164,0.5709999799728394,-2.351876485195446
662.8965519999999,,0.005767559133696949,662.628,0.5809999704360962,-2.330325794122067
663.362069,,0.003722070019495606,663.094,0.5339999794960022,-2.4330768166218166
663.827586,,0.005392898931627028,663.559,0.5669999718666077,-2.3616443536885265
664.293103,,0.008509636432335018,664.025,0.5540000200271606,-2.39052332710991
664.7586210000001,,0.007924530389475645,664.492,0.5509999990463257,-2.3976921007923075
665.224138,,0.0011294506684857138,664.95,0.5889999866485596,-2.3155922368367334
665.689655,,0.0194482302645052,665.418,0.5540000200271606,-2.39256749897912
666.155172,,0.043669298745598356,665.88,0.550000011920929,-2.4020168071625942
666.62069,,0.06881307045118489,666.351,0.6029999852180481,-2.287272317315466
667.086207,,0.09034485901500913,666.813,0.5419999957084656,-2.420859842249585
667.5517239999999,,0.10488593346967032,667.281,0.5440000295639038,-2.417138566241193
668.017241,,0.11071685269254274,667.743,0.5860000252723694,-2.3261983694614945
668.482759,,0.10808728362844759,668.209,0.5789999961853027,-2.3419203580766066
668.948276,,0.09856265968022586,668.674,0.5820000171661377,-2.3357492173026615
669.413793,,0.08390614217566893,669.139,0.550000011920929,-2.4057140476737247
669.87931,,0.06572163340678917,669.606,0.5820000171661377,-2.336121797999429
670.3448279999999,,0.046010927679139925,670.065,0.5899999737739563,-2.3186895834087653
670.810345,,0.027573018779941394,670.532,0.5630000233650208,-2.377382418051148
671.275862,,0.013265025200607256,670.997,0.5789999961853027,-2.342271128335456
671.7413789999999,,0.004407142162243619,671.466,0.5669999718666077,-2.368048080502602
672.206897,,0.0002459680423094385,671.929,0.5690000057220459,-2.363221807043458
672.672414,,0.003750057014819547,672.392,0.5979999899864197,-2.2994846302609817
673.137931,,0.008683432981086503,672.862,0.5820000171661377,-2.333715852951491
673.6034480000001,,0.01514535066327605,673.325,0.574999988079071,-2.348288554603661
674.068966,,0.021004309121175083,673.788,0.5820000171661377,-2.3323309290768113
674.5344829999999,,0.024248515750298686,674.253,0.5540000200271606,-2.392619457664182
675.0,,0.024868185825473753,674.716,0.5669999718666077,-2.363599735950337
675.465517,,0.024381384250254684,675.182,0.5669999718666077,-2.362940243958453
675.931034,,0.02423695278292796,675.648,0.5640000104904175,-2.3688746406332504
676.396552,,0.025225813913101598,676.113,0.6060000061988831,-2.276845689278725
676.862069,,0.027683662918426673,676.577,0.5460000038146973,-2.407130339756
677.327586,,0.031051877779032677,677.043,0.5879999995231628,-2.315297946621409
677.793103,,0.03332685333039791,677.51,0.4000000059604645,-2.7246728875475785
678.2586210000001,,0.032280018239597724,677.976,0.5920000076293945,-2.306287812228628
