Trial: ,11
Threshold: ,0.0
Maximum EMG: ,0.036261562281851144
Success: ,True

EMG Time,Raw EMG,Filtered EMG,Force Time,Raw Force (V),Filtered Force (N)
0.0,samples,6.585328062451259e-06,0.466,0.5210000276565552,-2.4635494287764663
0.46551699999999996,time,6.165740422230668e-06,0.933,0.5139999985694885,-2.478982470755136
0.9310339999999999,value,5.706070429092727e-06,1.398,0.5049999952316284,-2.4988114694946364
1.396552,,5.206225640918431e-06,1.863,0.5339999794960022,-2.435883820667157
1.862069,,4.666252784936312e-06,2.329,0.5239999890327454,-2.45794701434313
2.327586,,4.086343597094888e-06,2.793,0.5170000195503235,-2.4734892918398637
2.793103,,3.466840396382984e-06,3.259,0.503000020980835,-2.504288990372838
3.258621,,2.8082413627546564e-06,3.722,0.5139999985694885,-2.4806205199386557
3.724138,,2.1112054870165433e-06,4.184,0.5170000195503235,-2.474369684451963
4.189654999999999,,1.3765571608364068e-06,4.652,0.515999972820282,-2.4768128442215622
4.655172,,6.052903749373624e-07,5.114,0.515999972820282,-2.4770480824564087
5.12069,,2.0142750644229409e-07,5.585,0.531000018119812,-2.4445665008138313
5.586207,,1.0422524266140006e-06,6.048,0.527999997138977,-2.4512568219501576
6.051723999999999,,1.9156608045703147e-06,6.513,0.5090000033378601,-2.4927566368379908
6.517241,,2.8199472213528404e-06,6.976,0.527999997138977,-2.451415793914232
6.982759,,3.7532226553280224e-06,7.442,0.5350000262260437,-2.4361641773226124
7.448276,,4.713413296412626e-06,7.907,0.515999972820282,-2.477502584211533
7.913793000000001,,5.698259968527055e-06,8.373,0.5529999732971191,-2.396782816377144
8.379309999999998,,6.705318188653716e-06,8.837,0.5149999856948853,-2.479410853527456
8.844828000000001,,7.731958889836722e-06,9.303,0.5370000004768372,-2.4312741775219804
9.310345,,8.775369834276053e-06,9.768,0.515999972820282,-2.476780302373792
9.775862,,9.832557741341815e-06,10.233,0.5130000114440918,-2.4830393486611793
10.241379,,1.0900351153861191e-05,10.696,0.5130000114440918,-2.482740328772137
10.706897,,1.1975404064410635e-05,11.166,0.5249999761581421,-2.456284482059649
11.172414,,1.3054200321578635e-05,11.626,0.5370000004768372,-2.429824418688246
11.637931,,1.4133058834249684e-05,12.096,0.5239999890327454,-2.457836025682069
12.103447999999998,,1.5208139589898465e-05,12.559,0.5189999938011169,-2.468433894400714
12.568966000000001,,1.627545050067572e-05,13.022,0.515999972820282,-2.474699841129383
13.034483,,1.733085508871528e-05,13.488,0.5090000033378601,-2.4897145179708278
13.5,,1.8370081019597436e-05,13.955,0.5109999775886536,-2.4851635401303875
13.965517,,1.9388729490270157e-05,14.42,0.5130000114440918,-2.4806607515893835
14.431034,,2.0382285474959717e-05,14.886,0.5070000290870667,-2.493640238671452
14.896552,,2.1346128829700348e-05,15.344,0.5339999794960022,-2.434780243684467
15.362069,,2.2275546253082694e-05,15.811,0.5040000081062317,-2.5001598702552585
15.827586000000002,,2.3165744097669114e-05,16.277,0.503000020980835,-2.5024156787290406
16.293103,,2.4011862023255573e-05,16.742,0.5130000114440918,-2.4807615372213734
16.758621,,2.480898747978202e-05,17.207,0.515999972820282,-2.474408734192852
17.224138,,2.5552171004212694e-05,17.67,0.5230000019073486,-2.459385872785706
17.689655,,2.6236442312132908e-05,18.14,0.515999972820282,-2.474901696566178
18.155172,,2.6856827161148293e-05,18.603,0.5099999904632568,-2.4882682635006
18.62069,,2.740836495943526e-05,19.066,0.5299999713897705,-2.445010341252343
19.086207,,2.7886127088987748e-05,19.532,0.5130000114440918,-2.4823724799902527
19.551724,,2.828523590924574e-05,19.997,0.5170000195503235,-2.4739832467463696
20.017241000000002,,2.8600884402886958e-05,20.462,0.515999972820282,-2.47647756566052
20.482758999999998,,2.8828356421626512e-05,20.929,0.5210000276565552,-2.4658799086372003
20.948276,,2.896304748591249e-05,21.395,0.5049999952316284,-2.5010050278573863
21.413793000000002,,2.9000486088442162e-05,21.859,0.515999972820282,-2.477269408458163
21.87931,,2.8936355447466926e-05,22.325,0.515999972820282,-2.477454274271247
22.344828,,2.8766515651919037e-05,22.79,0.5450000166893005,-2.414406923608008
22.810344999999998,,2.848702613649426e-05,23.255,0.5130000114440918,-2.484201170592983
23.275862,,2.8094168420977572e-05,23.718,0.5299999713897705,-2.4471833428975804
23.741379,,2.7584469044319225e-05,24.18,0.5099999904632568,-2.490716683328681
24.206897,,2.6954722620272955e-05,24.648,0.5139999985694885,-2.481905216586762
24.672414,,2.6202014937812784e-05,25.11,0.5040000081062317,-2.503540908645762
25.137931,,2.5323746026067665e-05,25.578,0.5400000214576721,-2.4249090170456653
25.603448,,2.4317653100170703e-05,26.041,0.5139999985694885,-2.4813092267352204
26.068966,,2.31818333012302e-05,26.506,0.4399999976158142,-2.6422495645619977
26.534483,,2.1914766140610745e-05,26.969,0.5249999761581421,-2.4567600324867565
27.0,,2.0515335555882443e-05,27.435,0.5339999794960022,-2.436830496554019
27.465517,,1.8982851483172645e-05,27.9,0.515999972820282,-2.4757155287282018
27.931034,,1.7317070848256234e-05,28.365,0.5320000052452087,-2.4405278522695926
28.396552,,1.5518217876564985e-05,28.829,0.515999972820282,-2.475068816043527
28.862069,,1.358700362040224e-05,29.296,0.5149999856948853,-2.4769519048855986
29.327586,,1.1524644600033856e-05,29.763,0.4390000104904175,-2.6422666547838984
29.793103000000002,,9.332880454007917e-06,30.229,0.5139999985694885,-2.478648136633532
30.258620999999998,,7.01399049305113e-06,30.692,0.5109999775886536,-2.485012492091617
30.724138,,4.570809051216405e-06,31.154,0.5289999842643738,-2.445677074581814
31.189655000000002,,2.006739527630113e-06,31.622,0.5120000243186951,-2.4826496743828126
31.655172000000004,,6.74232987774925e-07,32.085,0.5210000276565552,-2.4630350302987525
32.12069,,3.4675306107382355e-06,32.556,0.4790000021457672,-2.5545901815160015
32.586207,,6.3679731867498924e-06,33.018,0.5189999938011169,-2.467553815045211
33.051724,,9.369770546898416e-06,33.484,0.5149999856948853,-2.476431808055671
33.517241000000006,,1.2466516598021e-05,33.948,0.5109999775886536,-2.485358069613036
33.982759,,1.565118534761863e-05,34.414,0.5289999842643738,-2.4463956812664853
34.448276,,1.891612896148501e-05,34.881,0.5249999761581421,-2.4553969783335945
34.913793,,2.2253077949031492e-05,35.339,0.5249999761581421,-2.455708058727191
35.37931,,2.5653143567861155e-05,35.811,0.5199999809265137,-2.4669274233352207
35.844828,,2.9106822535247198e-05,36.269,0.5299999713897705,-2.4454721605440146
36.310345,,3.260400412979689e-05,36.742,0.5130000114440918,-2.4828353212088956
36.775862,,3.6133979761728977e-05,37.2,0.515999972820282,-2.476611106403118
37.241378999999995,,3.968545508485566e-05,37.67,0.4749999940395355,-2.5662242181555124
37.706897000000005,,4.3246564717539535e-05,38.132,0.5210000276565552,-2.4662634778406116
38.172414,,4.68048896335908e-05,38.6,0.515999972820282,-2.47737389824609
38.637931,,5.0347477277283e-05,39.063,0.5260000228881836,-2.4557566073739667
39.103448,,5.386086444940048e-05,39.528,0.5149999856948853,-2.479838040872307
39.568965999999996,,5.733110300349314e-05,39.992,0.5109999775886536,-2.488612415521064
40.034483,,6.074378838331196e-05,40.457,0.5170000195503235,-2.4755420586278336
40.5,,6.408409102374199e-05,40.923,0.5139999985694885,-2.4820213115567187
40.965517,,6.733679062844954e-05,41.388,0.527999997138977,-2.4514064939648357
41.431034,,7.048631332793127e-05,41.856,0.5370000004768372,-2.431630684526009
41.896552,,7.3516771711711e-05,42.314,0.5070000290870667,-2.496772966600225
42.362069000000005,,7.641200771809439e-05,42.779,0.527999997138977,-2.4507622886435896
42.827586000000004,,7.915563835418085e-05,43.244,0.5379999876022339,-2.4286822516538633
43.293103,,8.173110420777126e-05,43.714,0.5260000228881836,-2.454506434734171
43.758621,,8.412172070142222e-05,44.177,0.5120000243186951,-2.4846724171476677
44.224138,,8.631073202721205e-05,44.641,0.5230000019073486,-2.4603675659932915
44.689655,,8.828136768882934e-05,45.11,0.5120000243186951,-2.483998832351384
45.155172,,9.00169015654031e-05,45.571,0.503000020980835,-2.503289515126606
45.620689999999996,,9.150071339909918e-05,46.041,0.5299999713897705,-2.444175455990158
46.086206999999995,,9.271635259594777e-05,46.499,0.515999972820282,-2.4744208631433513
46.551724,,9.364760421667883e-05,46.965,0.5360000133514404,-2.430634651934471
47.017241,,9.427855702156831e-05,47.431,0.46399998664855957,-2.587334357190064
47.482759,,9.459367342048041e-05,47.896,0.4909999966621399,-2.5284046440267485
47.948276,,9.457786116647479e-05,48.362,0.5249999761581421,-2.454284354640073
48.413793,,9.421654661858044e-05,48.826,0.5130000114440918,-2.4804415219567497
48.879310000000004,,9.349574938666848e-05,49.291,0.5210000276565552,-2.4630846322368303
49.344828,,9.240215815883457e-05,49.755,0.5299999713897705,-2.4436055912371275
49.810345,,9.09232074993815e-05,50.221,0.5109999775886536,-2.485180774522947
50.275862,,8.904715539342705e-05,50.689,0.5210000276565552,-2.4636219522742175
50.741379,,8.676316130240838e-05,51.151,0.5260000228881836,-2.4529962461532193
51.206897,,8.406136448336694e-05,51.619,0.5120000243186951,-2.4837962326096372
51.672414,,8.09329623139378e-05,52.081,0.5400000214576721,-2.4231150194136815
52.137931,,7.737028835449042e-05,52.549,0.5249999761581421,-2.4561274925158476
52.603448,,7.336688986893787e-05,53.011,0.515999972820282,-2.4760696554610955
53.068966,,6.891760451640685e-05,53.477,0.5249999761581421,-2.456788010834949
53.534483,,6.401863591730308e-05,53.945,0.5170000195503235,-2.474525219165361
54.0,,5.866762778937796e-05,54.41,0.5189999938011169,-2.4704486757501445
54.465517,,5.286373634226445e-05,54.87,0.5049999952316284,-2.5011948262078674
54.931034,,4.660770061266423e-05,55.336,0.5270000100135803,-2.4534665409110668
55.396552,,3.990191041699574e-05,55.8,0.5170000195503235,-2.47540547109548
55.862069,,3.275047159391439e-05,56.265,0.531000018119812,-2.445002329227262
56.327586,,2.5159268205751903e-05,56.729,0.515999972820282,-2.4777225760105317
56.793102999999995,,1.713602136565087e-05,57.199,0.5109999775886536,-2.4885978862102056
57.258621000000005,,8.690344356048706e-06,57.659,0.5049999952316284,-2.501594652416834
57.724138,,1.662062957489423e-07,58.129,0.5009999871253967,-2.5101797235149412
58.189655,,9.420084117820808e-06,58.593,0.5210000276565552,-2.4664264965618905
58.655172,,1.905571069996668e-05,59.055,0.5199999809265137,-2.4683793045860143
59.120689999999996,,2.905543873236774e-05,59.521,0.515999972820282,-2.4768287932930724
59.586207,,3.939952039738376e-05,59.984,0.5270000100135803,-2.452567292866043
60.051724,,5.006608142842313e-05,60.449,0.5289999842643738,-2.447891274391889
60.517241,,6.1031101141452844e-05,60.914,0.5199999809265137,-2.4671674712812335
60.982758999999994,,7.226839873481786e-05,61.38,0.5099999904632568,-2.488620045758394
61.448276,,8.374962614157992e-05,61.844,0.5170000195503235,-2.4730439326583453
61.913793,,9.544426770553804e-05,62.31,0.5170000195503235,-2.4727367090220627
62.379310000000004,,0.0001073196469374346,62.774,0.5070000290870667,-2.494243696610782
62.84482800000001,,0.00011934094059156147,63.24,0.5329999923706055,-2.437355589938708
63.310345000000005,,0.00013147120028504026,63.707,0.5139999985694885,-2.4785497970444137
63.775862000000004,,0.00014367138186245328,64.17,0.5139999985694885,-2.4783992322572357
64.241379,,0.00015590038268725105,64.64,0.527999997138977,-2.4478018498042
64.706897,,0.0001681150870184756,65.103,0.5339999794960022,-2.434690299263767
65.172414,,0.00018027041960680658,65.571,0.5070000290870667,-2.4935319066755617
65.637931,,0.00019231940761774984,66.033,0.5249999761581421,-2.4543924682085727
66.103448,,0.00020421325096197493,66.498,0.5260000228881836,-2.452345345373328
66.56896599999999,,0.00021590140108346226,66.965,0.515999972820282,-2.474314926735941
67.03448300000001,,0.0002273316482253239,67.43,0.5299999713897705,-2.444042744703068
67.5,,0.00023845021716084974,67.896,0.5080000162124634,-2.492240910204128
67.965517,,0.0002492018713433981,68.354,0.515999972820282,-2.475111155636351
68.431034,,0.00025953002539334303,68.819,0.5149999856948853,-2.477611518643445
68.896552,,0.00026937686580388057,69.285,0.5460000038146973,-2.4104069944201196
69.362069,,0.0002786834797102949,69.752,0.492000013589859,-2.52838926719426
69.827586,,0.00028738999152868303,70.218,0.5210000276565552,-2.4655359064799858
70.293103,,0.00029543570722936695,70.686,0.5139999985694885,-2.4810963113877667
70.75862099999999,,0.00030275926596816204,71.148,0.5189999938011169,-2.4704852884201896
71.22413800000001,,0.00030929879875780096,71.611,0.5139999985694885,-2.4816245037195945
71.689655,,0.00031499209382256506,72.081,0.5170000195503235,-2.4752906956651692
72.15517200000001,,0.0003197767682370547,72.544,0.5199999809265137,-2.468906871312836
72.62069,,0.00032359044540084594,73.007,0.5120000243186951,-2.4864330875125775
73.086207,,0.0003263709378507491,73.473,0.5270000100135803,-2.453792449397789
73.551724,,0.00032805643487540377,73.94,0.5540000200271606,-2.3949476884991188
74.017241,,0.0003285856943716498,74.406,0.4970000088214874,-2.5190495592687348
74.482759,,0.0003278982383392482,74.87,0.5230000019073486,-2.4622671427041043
74.94827599999999,,0.00032593455132988875,75.336,0.5170000195503235,-2.475149412088105
75.41379300000001,,0.0003226362810925176,75.8,0.5339999794960022,-2.4378760010903626
75.87931,,0.0003179464406672823,76.259,0.5130000114440918,-2.4833512928183517
76.344828,,0.00031180961124554124,76.729,0.5130000114440918,-2.483044109214598
76.810345,,0.00030417214505129683,77.192,0.5130000114440918,-2.4827157965117754
77.275862,,0.0002949823672255115,77.655,0.515999972820282,-2.475840470757817
77.741379,,0.0002841907755165821,78.125,0.5339999794960022,-2.43628408859078
78.206897,,0.0002717502369175159,78.586,0.5070000290870667,-2.4947758162466473
78.67241399999999,,0.00025761618094608375,79.055,0.5230000019073486,-2.459605332426028
79.137931,,0.0002417467889389809,79.514,0.5049999952316284,-2.498538249496329
79.603448,,0.00022410317725905454,79.983,0.5,-2.509187233178673
80.068966,,0.00020464957174527265,80.448,0.5360000133514404,-2.4305574638351306
80.53448300000001,,0.00018335347325010228,80.916,0.515999972820282,-2.4739832661566052
81.0,,0.00016018581723540698,81.374,0.5189999938011169,-2.467355660283525
81.465517,,0.0001351211276775719,81.841,0.5109999775886536,-2.4847522009430185
81.931034,,0.00010813765689920239,82.306,0.5170000195503235,-2.4717076341629567
82.396552,,7.921750162620615e-05,82.77,0.531000018119812,-2.441292952191273
82.86206899999999,,4.834670225364289e-05,83.236,0.515999972820282,-2.474115234783687
83.327586,,1.5515348318343525e-05,83.704,0.5080000162124634,-2.491738978318932
83.79310299999999,,1.9282308351489005e-05,84.166,0.515999972820282,-2.4745512617632133
84.258621,,5.604778142522744e-05,84.634,0.5289999842643738,-2.446509190066532
84.72413800000001,,9.477836306998333e-05,85.096,0.5410000085830688,-2.420675354978699
85.189655,,0.00013546715993928516,85.559,0.5339999794960022,-2.4362556017249806
85.65517200000001,,0.00017810301385145686,86.029,0.5350000262260437,-2.4344161437909575
86.12069,,0.00022267032708482036,86.495,0.5329999923706055,-2.439112333274058
86.586207,,0.00026914909477832944,86.958,0.515999972820282,-2.476477901692558
87.051724,,0.0003175153468689385,87.424,0.5059999823570251,-2.4985734862793754
87.517241,,0.00036774154104691825,87.889,0.5289999842643738,-2.4487452091079125
87.98275899999999,,0.0004197961265855151,88.355,0.5070000290870667,-2.4969188327065908
88.448276,,0.00047364260127205496,88.819,0.527999997138977,-2.4513660834152473
88.913793,,0.0005292399241877379,89.285,0.5400000214576721,-2.4253697638268488
89.37931,,0.0005865451089972954,89.744,0.5220000147819519,-2.464676675299528
89.844828,,0.0006455148264304904,90.21,0.5289999842643738,-2.449458612857021
90.310345,,0.0007061017914223494,90.679,0.5120000243186951,-2.4864685641386104
90.775862,,0.0007682490867299231,91.142,0.5099999904632568,-2.4907408483853484
91.241379,,0.0008318936242837139,91.604,0.5440000295639038,-2.4165257924450403
91.706897,,0.0008969811985507357,92.073,0.5130000114440918,-2.4838708028713206
92.17241399999999,,0.0009634720568092773,92.541,0.5189999938011169,-2.470559738532508
92.63793100000001,,0.0010313151277538332,93.004,0.5230000019073486,-2.461567336336742
93.103448,,0.001100416806843752,93.47,0.5429999828338623,-2.417685745927549
93.568966,,0.0011706699027106639,93.929,0.5379999876022339,-2.4282480526879664
94.03448300000001,,0.0012420418210694543,94.395,0.515999972820282,-2.475835400747372
94.5,,0.0013145863481867867,94.86,0.5170000195503235,-2.4733129568464336
94.965517,,0.0013882727333155366,95.325,0.5149999856948853,-2.477336766137353
95.431034,,0.0014628261778995486,95.792,0.5230000019073486,-2.459594140953419
95.896552,,0.001537953146474916,96.258,0.5299999713897705,-2.4440595560474483
96.36206899999999,,0.00161385022957542,96.719,0.5289999842643738,-2.445991601038988
96.827586,,0.0016911479366796924,97.188,0.5299999713897705,-2.4436113362200325
97.293103,,0.0017698207128858997,97.652,0.5120000243186951,-2.48267668618106
97.758621,,0.0018484342720326175,98.114,0.5149999856948853,-2.4760472449757205
98.224138,,0.0019257877244011827,98.582,0.5120000243186951,-2.4825493502958405
98.689655,,0.0020037724077374406,99.044,0.503000020980835,-2.502184547464582
99.155172,,0.0020862769678650804,99.51,0.515999972820282,-2.4739499935167144
99.62069,,0.0021724367156961432,99.98,0.5090000033378601,-2.4893458150382886
100.086207,,0.0022535013620714212,100.446,0.5339999794960022,-2.43507763552969
100.551724,,0.0023242186593009574,100.907,0.5419999957084656,-2.4178920440263654
101.017241,,0.002398356890282789,101.372,0.5419999957084656,-2.4181731239928435
101.482759,,0.0024976804704671587,101.836,0.5130000114440918,-2.481664308480771
101.948276,,0.0026112388981968425,102.302,0.5339999794960022,-2.436243755751657
102.413793,,0.002685562230014622,102.767,0.515999972820282,-2.4758011859324642
102.87931,,0.0027005531654595272,103.233,0.5199999809265137,-2.4674289065198587
103.344828,,0.0027501817367757203,103.701,0.5249999761581421,-2.4568683658022756
103.810345,,0.0029507788366306812,104.163,0.5130000114440918,-2.4833250421598576
104.275862,,0.003201915714612784,104.626,0.5090000033378601,-2.492323849554465
104.741379,,0.0031843704212069835,105.089,0.5329999923706055,-2.440283023912248
105.206897,,0.0028513833156843405,105.559,0.4909999966621399,-2.5319880150293392
105.672414,,0.002828313593869397,106.022,0.5210000276565552,-2.466779605469283
106.13793100000001,,0.0037216756459830026,106.487,0.5339999794960022,-2.438552571256047
106.603448,,0.004697997979408026,106.951,0.5170000195503235,-2.4756252790448765
107.068966,,0.0035412869921514737,107.417,0.5239999890327454,-2.460350110059437
107.534483,,0.0007819021198745015,107.881,0.515999972820282,-2.477695074596884
108.0,,0.0059783022200689245,108.346,0.5289999842643738,-2.4492311726918694
108.46551699999999,,0.008207305851589608,108.811,0.5049999952316284,-2.5013244478878236
108.931034,,0.006122279902305491,109.277,0.5239999890327454,-2.4596891166357477
109.396552,,0.0021283013196339486,109.741,0.5099999904632568,-2.4899097015782057
109.862069,,0.0003677632007578388,110.206,0.5149999856948853,-2.478704978665849
110.32758600000001,,3.269496526577794e-05,110.674,0.5249999761581421,-2.4565852932373837
110.793103,,0.0024651775629414997,111.137,0.546999990940094,-2.408309196849321
111.258621,,0.005415377093097152,111.6,0.5210000276565552,-2.4646055795061166
111.724138,,0.007999042490675073,112.07,0.5130000114440918,-2.4816950488583602
112.189655,,0.01038409967302402,112.541,0.5130000114440918,-2.4813750840173974
112.655172,,0.013861634443134166,112.996,0.5299999713897705,-2.444047556390078
113.12069,,0.02024708098541273,113.462,0.5270000100135803,-2.450330529193528
113.586207,,0.030236429329825246,113.929,0.492000013589859,-2.526376249260397
114.051724,,0.041992147599028744,114.395,0.5130000114440918,-2.480470867422027
114.51724100000001,,0.0516248488489203,114.86,0.5170000195503235,-2.471660277993444
114.982759,,0.05514697118670289,115.325,0.5080000162124634,-2.4912325265236226
115.448276,,0.05006170904666505,115.785,0.5139999985694885,-2.4781867172320107
115.913793,,0.0359709074440711,116.251,0.5170000195503235,-2.471737551373
116.37931,,0.014934970929908177,116.718,0.5249999761581421,-2.454453072216258
116.84482799999999,,0.008483138032424932,117.181,0.5080000162124634,-2.491688028125521
117.310345,,0.028642563371622024,117.648,0.5299999713897705,-2.444003318835145
117.77586199999999,,0.04159173793784281,118.11,0.5289999842643738,-2.4464669668944437
118.241379,,0.04682783717565309,118.578,0.5189999938011169,-2.46856920479579
118.70689700000001,,0.046220185455258134,119.041,0.5339999794960022,-2.4362265724499057
119.172414,,0.041443375276669914,119.506,0.5120000243186951,-2.484504999874448
119.63793100000001,,0.032838301408327886,119.969,0.5139999985694885,-2.480497158231101
120.103448,,0.02055634659416892,120.435,0.5339999794960022,-2.437264179998592
120.568966,,0.006110260880762947,120.9,0.5379999876022339,-2.4288689544139572
121.034483,,0.007582672967995319,121.366,0.5049999952316284,-2.501053624241196
121.5,,0.01742576893319544,121.83,0.5059999823570251,-2.499126552776396
121.96551699999999,,0.021202178211639076,122.296,0.5270000100135803,-2.4535812769780057
122.431034,,0.018160111780509795,122.763,0.5130000114440918,-2.484236837939187
122.896552,,0.009752029408135911,123.228,0.5199999809265137,-2.4690841765637597
123.362069,,0.00012859466412200706,123.689,0.515999972820282,-2.4778370115631647
123.827586,,0.0068568728054387565,124.158,0.5210000276565552,-2.4669209716580287
124.293103,,0.007946240886950137,124.619,0.5139999985694885,-2.4820886388010717
124.758621,,0.004325661748637079,125.088,0.5210000276565552,-2.466697285728762
125.22413800000001,,0.00095323666499462,125.556,0.5170000195503235,-2.475217463347051
125.68965500000002,,0.0047984725276289395,126.018,0.5289999842643738,-2.4488312067181544
126.15517200000001,,0.0052729678725225455,126.483,0.5199999809265137,-2.4681554587916748
126.62069000000001,,0.0018331278246947061,126.947,0.5090000033378601,-2.4918047291827117
127.086207,,0.005086777483722219,127.414,0.515999972820282,-2.476216151662488
127.55172400000001,,0.014900601422243573,127.878,0.5040000081062317,-2.502009829053543
128.017241,,0.027160993809853495,128.344,0.515999972820282,-2.475514762783075
128.48275900000002,,0.04062233977324837,128.804,0.5460000038146973,-2.4098123299791374
128.948276,,0.05235856870424364,129.27,0.49000000953674316,-2.5314922808730627
129.413793,,0.05885316979365414,129.737,0.5130000114440918,-2.481088345951634
129.87931,,0.05842771138665494,130.203,0.5149999856948853,-2.4764745615367603
130.344828,,0.05220276643813847,130.67,0.531000018119812,-2.4414049591833233
130.81034499999998,,0.042621806612719706,131.133,0.5170000195503235,-2.471746318019531
131.275862,,0.03170232708131393,131.6,0.5419999957084656,-2.4171764545893195
131.741379,,0.02078771748112362,132.062,0.5099999904632568,-2.486848738429566
132.206897,,0.010863938968401732,132.528,0.5339999794960022,-2.4345776004744555
132.67241399999997,,0.0022619323744297783,132.992,0.5260000228881836,-2.452083540071992
133.13793099999998,,0.005473331966027419,133.458,0.5210000276565552,-2.4631118267323204
133.60344800000001,,0.012771213506009845,133.922,0.5379999876022339,-2.4262642661257616
134.06896600000002,,0.019319682535809714,134.388,0.5090000033378601,-2.489683269434687
134.53448300000002,,0.024368516218783,134.855,0.527999997138977,-2.4485694033093117
135.0,,0.027271411649524013,135.314,0.5189999938011169,-2.4684916834832697
135.465517,,0.02765126977737389,135.779,0.5249999761581421,-2.4557587828391605
135.931034,,0.025850011194917116,136.244,0.46399998664855957,-2.58901084966039
136.396552,,0.02348465183420723,136.715,0.5239999890327454,-2.4586523436693475
136.862069,,0.022622394637328846,137.177,0.5019999742507935,-2.506937507633272
137.327586,,0.023804226244572565,137.645,0.5120000243186951,-2.485488877197995
137.793103,,0.02539885548822804,138.107,0.5339999794960022,-2.437869076236434
138.258621,,0.025292569171861165,138.574,0.5429999828338623,-2.4185333040397006
138.724138,,0.022947169775516172,139.036,0.5210000276565552,-2.4666885361768864
139.189655,,0.019794391893823076,139.502,0.5130000114440918,-2.4842896270922776
139.655172,,0.017899228902142912,139.966,0.515999972820282,-2.4778677383375025
140.12069,,0.018035807243073538,140.432,0.5329999923706055,-2.440882839418219
140.586207,,0.018763659021477128,140.897,0.6330000162124634,-2.2230039280915475
141.05172399999998,,0.01774021289238217,141.362,0.5189999938011169,-2.471288325015677
141.51724099999998,,0.01435557223891936,141.829,0.5099999904632568,-2.4907518297807965
141.982759,,0.010666376992357588,142.295,0.5239999890327454,-2.460050366421486
142.44827600000002,,0.00907542786598673,142.759,0.5389999747276306,-2.427119748587172
142.913793,,0.00934077730580822,143.225,0.4819999933242798,-2.551009179333053
143.37931,,0.008781460608903436,143.685,0.49900001287460327,-2.5136464195484294
143.844828,,0.005630192199082231,144.155,0.5410000085830688,-2.4217948517407826
144.310345,,0.0013665979693223654,144.618,0.5249999761581421,-2.4562912991982073
144.77586200000002,,0.000817319274236407,145.081,0.5189999938011169,-2.4689983028638487
145.241379,,0.0005757924171871469,145.544,0.5260000228881836,-2.453391421740495
145.706897,,0.003919242192646942,146.014,0.5170000195503235,-2.4726623689888214
146.172414,,0.00606312492487551,146.48,0.5189999938011169,-2.4679979458499486
146.637931,,0.004972286622925745,146.944,0.515999972820282,-2.474265910610098
147.103448,,0.0011870477799233224,147.41,0.527999997138977,-2.447901128375792
147.568966,,0.002761723558258783,147.871,0.5170000195503235,-2.471698846112149
148.034483,,0.004494267277059052,148.336,0.5230000019073486,-2.4585182947453967
148.5,,0.003779426535100145,148.804,0.5130000114440918,-2.4802581901184344
148.965517,,0.002541184652512806,149.27,0.5249999761581421,-2.4541314435236687
149.43103399999998,,0.0028806106667954015,149.734,0.5070000290870667,-2.4934270630762274
149.89655199999999,,0.005185463452286427,150.2,0.5400000214576721,-2.4216721671894064
150.362069,,0.008045056574555242,150.663,0.5120000243186951,-2.482870665581011
150.82758600000003,,0.00957189124201365,151.125,0.5289999842643738,-2.446080015414586
151.293103,,0.008701747747743436,151.593,0.5249999761581421,-2.4550834128344343
151.758621,,0.005760447107435622,152.055,0.5130000114440918,-2.481549721841037
152.224138,,0.002331905377082341,152.521,0.5410000085830688,-2.4208942159347755
152.68965500000002,,0.0004135030440436387,152.984,0.5180000066757202,-2.4713630381789637
153.155172,,0.0009872607260055606,153.449,0.5139999985694885,-2.480440325872623
153.62069,,0.003065551433308779,153.914,0.47999998927116394,-2.554870170712857
154.086207,,0.004540667980958893,154.38,0.5249999761581421,-2.4571695671340454
154.551724,,0.004315833757533929,154.844,0.515999972820282,-2.477087677587374
155.017241,,0.0032109886504729304,155.31,0.5210000276565552,-2.466466204488414
155.482759,,0.0024345327725793383,155.775,0.5120000243186951,-2.486299438519471
155.948276,,0.001742400935006409,156.241,0.5339999794960022,-2.438541069498624
156.413793,,0.00014646242904374021,156.711,0.5109999775886536,-2.488762762471242
156.87931,,0.0034999508263807793,157.173,0.5789999961853027,-2.3406639764096773
157.34482799999998,,0.0067231443708606516,157.641,0.5339999794960022,-2.4386864896943443
157.81034499999998,,0.007906592497095358,158.103,0.5210000276565552,-2.466927155123871
158.275862,,0.006905257442087485,158.571,0.5289999842643738,-2.449355206794314
158.741379,,0.005436459240891617,159.033,0.5130000114440918,-2.484014192895808
159.20689700000003,,0.005094868772047627,159.499,0.5260000228881836,-2.455442253445592
159.672414,,0.005635866150230886,159.965,0.5299999713897705,-2.44643556846243
160.137931,,0.0054057857566782545,160.43,0.546999990940094,-2.4090718128238127
160.60344800000001,,0.0031806672477301665,160.889,0.5170000195503235,-2.474079945532684
161.06896600000002,,0.0007348097559259966,161.354,0.5419999957084656,-2.4192489954299243
161.534483,,0.005094015158592303,161.819,0.5170000195503235,-2.4733482005181338
162.0,,0.008991365249056074,162.285,0.5049999952316284,-2.4991348131270983
162.465517,,0.012392394050987217,162.749,0.515999972820282,-2.4748338714310094
162.931034,,0.015574125814492608,163.214,0.47999998927116394,-2.552961455354538
163.396552,,0.018352488324633015,163.685,0.5049999952316284,-2.4982334119359018
163.862069,,0.020055796009152804,164.147,0.5389999747276306,-2.4239464658869143
164.327586,,0.020223012836182788,164.615,0.49000000953674316,-2.5305416328739385
164.793103,,0.019099101770631566,165.077,0.5130000114440918,-2.4803338470781475
165.258621,,0.017245409474024476,165.541,0.5199999809265137,-2.465046920217759
165.72413799999998,,0.01480434863824766,166.01,0.5139999985694885,-2.478144979210943
166.189655,,0.011599164784957218,166.476,0.5329999923706055,-2.436838169710909
166.655172,,0.008113957661442208,166.94,0.5099999904632568,-2.487092832629469
167.12069,,0.0057922765152249155,167.399,0.47200000286102295,-2.570081957365131
167.58620699999997,,0.005667413372604798,167.864,0.5070000290870667,-2.4940792667854974
168.051724,,0.006816776442099793,168.329,0.5289999842643738,-2.4464398947284756
168.517241,,0.006869085131697127,168.796,0.5329999923706055,-2.4380461602754027
168.98275900000002,,0.004293959608506176,169.262,0.5299999713897705,-2.444922636508397
169.44827600000002,,0.00018664389726119339,169.73,0.5210000276565552,-2.4648801757321843
169.913793,,0.004649645946143244,170.191,0.515999972820282,-2.4761225066924855
170.37931,,0.007945398232159097,170.659,0.5180000066757202,-2.472102982873339
170.844828,,0.01010949055584756,171.122,0.5099999904632568,-2.4898489253619136
171.310345,,0.011200579489281302,171.589,0.5149999856948853,-2.47924194016568
171.775862,,0.010770814142369401,172.052,0.5379999876022339,-2.4293797947672457
172.241379,,0.008801755811538133,172.518,0.5249999761581421,-2.4579015994915503
172.706897,,0.006310592013785975,172.98,0.5149999856948853,-2.4798344226701463
173.172414,,0.004328683195577326,173.446,0.5299999713897705,-2.4472442919833584
173.637931,,0.0027099977624915226,173.91,0.5370000004768372,-2.432023611226143
174.103448,,0.0006128512091090645,174.377,0.5339999794960022,-2.4385288696118312
174.568966,,0.0020694338324232617,174.842,0.5299999713897705,-2.4471534916014503
175.034483,,0.004383998074102302,175.307,0.5260000228881836,-2.4557221743161697
175.5,,0.005387867209374713,175.774,0.5210000276565552,-2.466418977031659
175.96551699999998,,0.005077529147689968,176.239,0.5299999713897705,-2.446570659556016
176.43103399999998,,0.004236426337720769,176.7,0.503000020980835,-2.5051172559209376
176.896552,,0.003685545971639463,177.17,0.5299999713897705,-2.4459898323156506
177.36206900000002,,0.0036519005637582493,177.633,0.5400000214576721,-2.4238808229454754
177.827586,,0.003597219964780567,178.096,0.5170000195503235,-2.473658454119256
178.293103,,0.0027340709796051985,178.563,0.5099999904632568,-2.4885798309924065
178.758621,,0.0009370758675615674,179.026,0.5879999995231628,-2.3183272733547526
179.224138,,0.000988471085787469,179.491,0.5199999809265137,-2.466177007962828
179.68965500000002,,0.0021571879963734573,179.955,0.5180000066757202,-2.470265375366176
180.155172,,0.002539823991866931,180.421,0.5120000243186951,-2.4831074647749016
180.62069,,0.002809861511308144,180.888,0.5249999761581421,-2.4546012879714385
181.086207,,0.003415441187372843,181.354,0.46700000762939453,-2.5808309915361667
181.551724,,0.0040843586042518375,181.819,0.5120000243186951,-2.482716545597675
182.01724099999998,,0.004270837269294949,182.284,0.5260000228881836,-2.4521979090292048
182.482759,,0.003915519327674528,182.745,0.49799999594688416,-2.51323938513284
182.948276,,0.0035191222506889457,183.211,0.5239999890327454,-2.4566890728349122
183.413793,,0.0033425217927806014,183.674,0.5090000033378601,-2.4895150017455996
183.87931,,0.0028214982428524603,184.144,0.5099999904632568,-2.4875292794964645
184.34482799999998,,0.0012220475651031626,184.607,0.44699999690055847,-2.62501871224447
184.81034499999998,,0.0011627328729285071,185.07,0.492000013589859,-2.527249419698049
185.27586200000002,,0.002961080573453275,185.541,0.5230000019073486,-2.4600067763230644
185.74137900000002,,0.003098055715709305,186.003,0.5270000100135803,-2.4516014538916693
186.206897,,0.0019240272256293798,186.469,0.5130000114440918,-2.482415285383182
186.672414,,0.0006609082245755138,186.934,0.5270000100135803,-2.452220692759612
187.137931,,9.462531537193131e-05,187.4,0.503000020980835,-2.5047991127167486
187.60344800000001,,0.0008756782621348539,187.859,0.503000020980835,-2.505066022899189
188.06896600000002,,0.002308860768933057,188.324,0.5130000114440918,-2.483514664377627
188.534483,,0.004065640064151979,188.789,0.5230000019073486,-2.4619239214591864
189.0,,0.00526396014652557,189.255,0.5070000290870667,-2.4969326274092
189.465517,,0.0056971710717339495,189.726,0.515999972820282,-2.4774259731171187
189.931034,,0.006117977870113282,190.188,0.531000018119812,-2.4447949770099835
190.39655199999999,,0.00719827843960509,190.652,0.5120000243186951,-2.486184633710084
190.862069,,0.008675364390908638,191.114,0.5120000243186951,-2.486127703381364
191.327586,,0.009899211182758869,191.582,0.5130000114440918,-2.483842684409549
191.793103,,0.010961414233727,192.045,0.5120000243186951,-2.485869415007758
192.25862099999998,,0.0126620156000944,192.511,0.5270000100135803,-2.452997444130623
192.72413799999998,,0.015184117384550541,192.974,0.5289999842643738,-2.4484135849438937
193.189655,,0.017398121214950494,193.439,0.421999990940094,-2.6812773349472714
193.655172,,0.018085224649966997,193.911,0.5270000100135803,-2.4522526262074873
194.12069000000002,,0.017570793810047246,194.369,0.49000000953674316,-2.532588705666672
194.586207,,0.017375810620020596,194.834,0.5249999761581421,-2.4560620918248817
195.051724,,0.018166447086244545,195.3,0.5080000162124634,-2.4928332982525276
195.517241,,0.01874126086758033,195.767,0.5170000195503235,-2.472975910089923
195.98275900000002,,0.017389988937750556,196.232,0.5139999985694885,-2.479286175204433
196.448276,,0.01377328525562659,196.7,0.5139999985694885,-2.4790909300272412
196.913793,,0.009035196387307117,197.162,0.515999972820282,-2.474574640116061
197.37931,,0.004362204947621282,197.63,0.515999972820282,-2.4744562111407604
197.844828,,9.08193963630638e-05,198.092,0.5239999890327454,-2.456952158812328
198.310345,,0.004869530927860425,198.556,0.5339999794960022,-2.435135765589219
198.775862,,0.010114903980557291,199.025,0.5130000114440918,-2.4809025572684558
199.241379,,0.014876063995104787,199.484,0.5379999876022339,-2.426495873598707
199.706897,,0.017470714346727454,199.949,0.5249999761581421,-2.454919442728535
200.172414,,0.016634533791996642,200.414,0.5230000019073486,-2.4594158505128534
200.63793099999998,,0.012626969910232582,200.881,0.5339999794960022,-2.435623372858396
201.103448,,0.0074586770252467365,201.347,0.515999972820282,-2.4750394096625503
201.568966,,0.003862560456980142,201.814,0.5139999985694885,-2.4796187413462465
202.034483,,0.003449635067941178,202.28,0.5180000066757202,-2.4711412321644612
202.5,,0.005455445373433262,202.744,0.5210000276565552,-2.4648497219900736
202.965517,,0.007510777077332709,203.21,0.5120000243186951,-2.4847017918007497
203.431034,,0.007981337857025038,203.67,0.5260000228881836,-2.4544371427910576
203.896552,,0.007280525013091574,204.14,0.5210000276565552,-2.465551552827324
204.36206900000002,,0.006520237236630954,204.603,0.5339999794960022,-2.4374281457185756
204.827586,,0.005469197803087099,205.066,0.4950000047683716,-2.5225665355715536
205.293103,,0.002816506397478224,205.532,0.5170000195503235,-2.4747753772695074
205.758621,,0.0017729053585380085,205.997,0.5139999985694885,-2.4814145785535344
206.224138,,0.006948432026674772,206.463,0.5149999856948853,-2.4793000890281642
206.689655,,0.011116206689210331,206.93,0.5180000066757202,-2.4727875328052975
207.155172,,0.013652707930199265,207.389,0.5210000276565552,-2.466233782610043
207.62069,,0.01431064119793491,207.855,0.5289999842643738,-2.4487463789444446
208.086207,,0.012056975170733657,208.321,0.5090000033378601,-2.4922227058067477
208.551724,,0.005221775511224898,208.785,0.5139999985694885,-2.4811984330762304
209.01724099999998,,0.006958959666693419,209.251,0.5170000195503235,-2.47450152418434
209.482759,,0.023072763681464138,209.719,0.5400000214576721,-2.4242064395238208
209.948276,,0.039960757981771386,210.181,0.5139999985694885,-2.480645574752397
210.413793,,0.05430199479473694,210.644,0.5199999809265137,-2.467355286962866
210.87930999999998,,0.0636147698611828,211.114,0.5419999957084656,-2.4192006687795
211.344828,,0.06621885440631044,211.578,0.531000018119812,-2.4429418949451964
211.810345,,0.06138919809632261,212.04,0.5070000290870667,-2.4950134510432997
212.27586200000002,,0.05022054537703557,212.506,0.5109999775886536,-2.4860985375257485
212.741379,,0.035849459436122354,212.969,0.5170000195503235,-2.4728479958904224
213.206897,,0.021953929280390663,213.435,0.5080000162124634,-2.4923043837049823
213.672414,,0.0106676060350147,213.9,0.515999972820282,-2.474755419402048
214.137931,,0.0019141469225122758,214.366,0.5189999938011169,-2.468134351627525
214.60344800000001,,0.005452719739555876,214.833,0.5540000200271606,-2.391832618831594
215.068966,,0.01216985333712685,215.299,0.527999997138977,-2.44846495128256
215.534483,,0.018176813226523248,215.763,0.527999997138977,-2.448489030241194
216.0,,0.023187595335470917,216.229,0.5299999713897705,-2.444191883748949
216.465517,,0.02701525577371334,216.689,0.515999972820282,-2.474787068039322
216.93103399999998,,0.029214783445940987,217.159,0.5049999952316284,-2.4988777225838654
217.39655199999999,,0.029043057766894885,217.622,0.5299999713897705,-2.4445645857772895
217.862069,,0.026431929893157822,218.085,0.5199999809265137,-2.466526017135319
218.327586,,0.02285116581778224,218.553,0.5130000114440918,-2.4819677509103766
218.793103,,0.02055337000145129,219.015,0.5170000195503235,-2.4734549448819836
219.25862099999998,,0.02072041774606362,219.481,0.5379999876022339,-2.4279089317389144
219.724138,,0.022617806855180698,219.947,0.5090000033378601,-2.491292245357729
220.18965500000002,,0.024654797482885852,220.413,0.527999997138977,-2.450091455923619
220.65517200000002,,0.02592311534116084,220.878,0.5230000019073486,-2.4611632103535928
221.12069,,0.02644392496741639,221.344,0.5289999842643738,-2.448249153756168
221.586207,,0.02620300206413287,221.804,0.5360000133514404,-2.433130651278784
222.051724,,0.024540387371703613,222.27,0.5180000066757202,-2.4724488756666143
222.517241,,0.020806750160986997,222.734,0.515999972820282,-2.4768768972714303
222.98275900000002,,0.015412365406718512,223.2,0.5389999747276306,-2.426804870840646
223.448276,,0.009772201438057371,223.67,0.5199999809265137,-2.4682011230678342
223.913793,,0.004996729829279144,224.133,0.5270000100135803,-2.452917952645221
224.37931,,0.0008434649005819885,224.596,0.515999972820282,-2.4768178379896026
224.844828,,0.003712739777926275,225.059,0.5299999713897705,-2.4462210841087617
225.31034499999998,,0.008846976326318664,225.524,0.5090000033378601,-2.4918500689100442
225.775862,,0.013155478992509092,225.995,0.5090000033378601,-2.491705241652242
226.241379,,0.014926718600289974,226.454,0.5260000228881836,-2.4545059315528475
226.706897,,0.014130818981519475,226.925,0.5049999952316284,-2.5000829864948937
227.172414,,0.012726042722908096,227.384,0.515999972820282,-2.4759366565274203
227.63793099999998,,0.012737670568663238,227.855,0.5189999938011169,-2.4692184246556717
228.103448,,0.014286981083967447,228.314,0.5130000114440918,-2.4821124566365125
228.56896600000002,,0.015701772540347086,228.785,0.5260000228881836,-2.453621913332478
229.03448300000002,,0.015268959289603312,229.244,0.527999997138977,-2.449110965522156
229.5,,0.012671531008056798,229.714,0.5339999794960022,-2.435903886389479
229.965517,,0.008984397036226582,230.176,0.515999972820282,-2.4750068577172146
230.431034,,0.005591036778979383,230.644,0.5339999794960022,-2.435704355579178
230.896552,,0.003188315342364209,231.107,0.5120000243186951,-2.4835761268252394
231.362069,,0.0017136633014197807,231.575,0.5389999747276306,-2.4247241471102714
231.827586,,0.0008239969180624323,232.038,0.5139999985694885,-2.4791920491749506
232.293103,,0.00011793942771184,232.503,0.515999972820282,-2.474866827814014
232.758621,,0.0007626626304230843,232.966,0.5339999794960022,-2.4357121934202595
233.224138,,0.0017244095280319368,233.432,0.5120000243186951,-2.4837299972803373
233.689655,,0.0021634732685759956,233.897,0.5080000162124634,-2.492556354690166
234.155172,,0.0018781023570717862,234.363,0.5139999985694885,-2.479617100853335
234.62069,,0.0017969968562884416,234.829,0.5149999856948853,-2.4775874338583415
235.086207,,0.0031235288864074505,235.295,0.5260000228881836,-2.4537823425140597
235.55172399999998,,0.005869930323744225,235.755,0.5109999775886536,-2.486628218226762
236.01724099999998,,0.008864340225084002,236.221,0.515999972820282,-2.475901939642379
236.482759,,0.011050180517178411,236.689,0.5099999904632568,-2.489136649317189
236.94827600000002,,0.01207129798224251,237.151,0.5299999713897705,-2.445717155546368
237.413793,,0.011758864775659008,237.615,0.5239999890327454,-2.458927823967839
237.87931,,0.010033354602798058,238.085,0.5419999957084656,-2.41983161942163
238.344828,,0.007575372828046131,238.548,0.5299999713897705,-2.446071792806604
238.810345,,0.005847508720817289,239.011,0.527999997138977,-2.450499631365884
239.27586200000002,,0.005919343431826785,239.476,0.5139999985694885,-2.4810442907684873
239.741379,,0.007395078552992704,239.94,0.5080000162124634,-2.494132399671922
240.206897,,0.008657295550184338,240.406,0.515999972820282,-2.4766924537734027
240.672414,,0.008207191702722067,240.871,0.5049999952316284,-2.500620335130798
241.137931,,0.005970924870383603,241.337,0.531000018119812,-2.4439131128119285
241.603448,,0.003409891063043987,241.804,0.515999972820282,-2.4765073490897436
242.068966,,0.0020823078395741765,242.269,0.515999972820282,-2.476401469884223
242.534483,,0.0018505890969628598,242.73,0.5299999713897705,-2.4457777945356693
243.0,,0.0007695966958379305,243.2,0.5090000033378601,-2.4913939535583136
243.465517,,0.0028002434235605317,243.663,0.5210000276565552,-2.465106561764307
243.93103399999998,,0.00806379477182778,244.125,0.5080000162124634,-2.4932820899264554
244.39655199999999,,0.012327818063777706,244.593,0.5199999809265137,-2.466992690272472
244.862069,,0.013756492637101528,245.055,0.5260000228881836,-2.453780444042016
245.327586,,0.013017833761239049,245.521,0.5249999761581421,-2.4558281956084818
245.793103,,0.012003598991978517,245.984,0.5009999871253967,-2.5079983163548083
246.258621,,0.011662562680838756,246.449,0.531000018119812,-2.442538707669703
246.724138,,0.0116717465712051,246.915,0.492000013589859,-2.5274262626905966
247.18965500000002,,0.011570830844248786,247.381,0.5139999985694885,-2.4794391896106025
247.655172,,0.011146369936383585,247.848,0.5419999957084656,-2.4184039415586094
248.12069,,0.009853952741300612,248.314,0.503000020980835,-2.5033617961483814
248.586207,,0.0070503920803356365,248.779,0.5419999957084656,-2.418408907292159
249.051724,,0.003187747405044673,249.244,0.5329999923706055,-2.438053551796742
249.517241,,9.79062994810204e-05,249.707,0.531000018119812,-2.4424681855520367
249.982759,,0.0016079671418371036,250.169,0.5080000162124634,-2.492653736410091
250.44827600000002,,0.0017313478574409315,250.637,0.5090000033378601,-2.4905692339490595
250.913793,,0.0016349626634940882,251.1,0.5170000195503235,-2.473248759948235
251.37931000000003,,0.00186222696319051,251.57,0.5289999842643738,-2.447224358232829
251.844828,,0.002136096913936813,252.033,0.5360000133514404,-2.4320990729893217
252.31034499999998,,0.0021249357025061315,252.499,0.5419999957084656,-2.419154019262739
252.77586200000002,,0.0018403959626052558,252.964,0.5120000243186951,-2.4846380351844384
253.241379,,0.0013420426800475997,253.43,0.5189999938011169,-2.469507096836794
253.706897,,0.000604270765618715,253.89,0.5139999985694885,-2.480511677614124
254.172414,,5.088841546386616e-05,254.356,0.5130000114440918,-2.4827902883837405
254.63793099999998,,0.00015068643886467347,254.822,0.5360000133514404,-2.432766831472493
255.10344800000001,,0.001540507357005021,255.288,0.5070000290870667,-2.496015918676206
255.56896600000002,,0.0032180004734064837,255.753,0.5099999904632568,-2.4895299430887468
256.03448299999997,,0.0038229092921068836,256.218,0.5049999952316284,-2.500453939504838
256.5,,0.003178557885092714,256.681,0.5379999876022339,-2.428569005735075
256.965517,,0.002611170493885304,257.144,0.515999972820282,-2.476488719988805
257.431034,,0.003400714441850834,257.615,0.5199999809265137,-2.4677431469529547
257.896552,,0.005373676893740468,258.077,0.5139999985694885,-2.4807652651667618
258.362069,,0.007382746511420027,258.545,0.5479999780654907,-2.4066239845985433
258.827586,,0.008720923216840414,259.007,0.5130000114440918,-2.482793638598939
259.29310300000003,,0.009405184908903989,259.473,0.4959999918937683,-2.519735707129887
259.758621,,0.009308362613908747,259.94,0.5249999761581421,-2.45645169832695
260.224138,,0.00793841794050423,260.406,0.5419999957084656,-2.4193053604319212
260.689655,,0.005373647846327714,260.871,0.5329999923706055,-2.438800287330294
261.155172,,0.0027293561433259853,261.329,0.5210000276565552,-2.464831138683688
261.62068999999997,,0.0010720799086396298,261.796,0.5149999856948853,-2.477794511702567
262.086207,,7.154844377678945e-05,262.262,0.5170000195503235,-2.4733364718607365
262.551724,,0.001697744184306654,262.73,0.5199999809265137,-2.466710857450911
263.017241,,0.005010500345149392,263.192,0.515999972820282,-2.475349167072708
263.482759,,0.008962097400741094,263.659,0.5199999809265137,-2.466573859505104
263.94827599999996,,0.011851634285442857,264.122,0.5149999856948853,-2.4774236634214546
264.413793,,0.012715937537996243,264.59,0.5299999713897705,-2.4447186867305777
264.87931,,0.011883331193767298,265.052,0.515999972820282,-2.475212954981369
265.34482799999995,,0.010591429217885376,265.517,0.5419999957084656,-2.41857934042702
265.810345,,0.010295992146676348,265.98,0.5249999761581421,-2.4556448585554995
266.27586199999996,,0.011605616206317474,266.446,0.5270000100135803,-2.4513320487001997
266.741379,,0.013322864970348331,266.911,0.5109999775886536,-2.4862501655158833
267.206897,,0.013090403011832908,267.376,0.515999972820282,-2.4754301451833114
267.672414,,0.009694596284108402,267.841,0.5210000276565552,-2.4646211675267
268.137931,,0.004584203169391963,268.306,0.5350000262260437,-2.4342123771180373
268.603448,,0.0006918349970488767,268.771,0.515999972820282,-2.4757038473926007
269.06896600000005,,0.00027926283741142277,269.237,0.5299999713897705,-2.4453016728283528
269.53448299999997,,0.0006238159741053474,269.7,0.527999997138977,-2.44975656438652
270.0,,0.0007134102927603847,270.17,0.5090000033378601,-2.4912445067084796
270.465517,,0.0015901368567659603,270.633,0.5070000290870667,-2.4956893580487662
270.931034,,0.005055608279366438,271.096,0.5090000033378601,-2.491411541448348
271.396552,,0.0069243897816063495,271.559,0.5180000066757202,-2.4718724180626337
271.86206899999996,,0.005893044130444966,272.029,0.5149999856948853,-2.4784641446616376
272.327586,,0.0033487083730182323,272.495,0.5170000195503235,-2.474147848757525
272.793103,,0.001518122370159653,272.958,0.5170000195503235,-2.474173137723123
273.258621,,0.001041347430056824,273.423,0.515999972820282,-2.4763607484252996
273.724138,,0.0008837123983090992,273.888,0.5009999871253967,-2.509033083899023
274.18965499999996,,0.00016983245331166926,274.354,0.5170000195503235,-2.474151666018111
274.655172,,0.0007223161525871637,274.818,0.5149999856948853,-2.4784710271306865
275.12069,,0.0009306874736809325,275.284,0.5130000114440918,-2.4827762755326117
275.586207,,0.000284736181127197,275.748,0.5289999842643738,-2.447853448976965
276.051724,,0.0007096379381947031,276.214,0.5130000114440918,-2.482636548167997
276.517241,,0.0017736491475358238,276.678,0.515999972820282,-2.476017319994622
276.98275900000004,,0.003232133570645232,277.14,0.4259999990463257,-2.6720086443158366
277.448276,,0.005357289989113423,277.611,0.5180000066757202,-2.471486370194776
277.913793,,0.00763025559141984,278.073,0.5180000066757202,-2.4714010965653914
278.37931,,0.008986645337736823,278.545,0.515999972820282,-2.475675153311082
278.844828,,0.008856620604475215,279.0,0.5260000228881836,-2.4538093995705292
279.31034500000004,,0.007771389751851088,279.465,0.5540000200271606,-2.3927335757347246
279.77586199999996,,0.006795057519909953,279.933,0.5180000066757202,-2.4710983335827645
280.241379,,0.006475144593697592,280.399,0.5270000100135803,-2.4514334133123037
280.706897,,0.006507166482070727,280.859,0.5239999890327454,-2.4579239692408215
281.172414,,0.006293012575571383,281.325,0.5090000033378601,-2.4905714427553813
281.637931,,0.00556616444714124,281.792,0.5130000114440918,-2.481839313002502
282.10344799999996,,0.004451202408940255,282.258,0.515999972820282,-2.475301266473314
282.568966,,0.0030727710462979947,282.719,0.5429999828338623,-2.4164902568023097
283.034483,,0.0012654808984428993,283.188,0.6269999742507935,-2.233508041833889
283.5,,0.0010901620443096573,283.656,0.515999972820282,-2.4753720248617097
283.965517,,0.0033405706422557635,284.118,0.5070000290870667,-2.495025291787612
284.431034,,0.004117423469785228,284.586,0.5130000114440918,-2.48201189088091
284.89655200000004,,0.0026858920496281523,285.048,0.5379999876022339,-2.4276151249262408
285.362069,,0.00013765634247138415,285.514,0.5329999923706055,-2.4385859982229587
285.827586,,0.0012622226323785904,285.976,0.5289999842643738,-2.447384239251347
286.293103,,0.00016433852555744095,286.442,0.5400000214576721,-2.4235064540490674
286.758621,,0.0024027777901951615,286.908,0.5199999809265137,-2.4671684677837575
287.22413800000004,,0.0036800346411249266,287.374,0.5230000019073486,-2.4607209872098625
287.689655,,0.0014691263958561864,287.841,0.5090000033378601,-2.491308228585555
288.155172,,0.003999069950641154,288.299,0.5009999871253967,-2.508819417565792
288.62069,,0.010417151091016116,288.77,0.5130000114440918,-2.482751251178209
289.086207,,0.01556952780270386,289.229,0.5170000195503235,-2.47410331764948
289.55172400000004,,0.01904874784086389,289.696,0.5320000052452087,-2.441478477788871
290.01724099999996,,0.02185138256842435,290.159,0.515999972820282,-2.476377776504474
290.482759,,0.024479964997964718,290.629,0.5350000262260437,-2.43500859292012
290.948276,,0.02567815744282724,291.092,0.5130000114440918,-2.4829475242214083
291.413793,,0.023155016567135242,291.556,0.5009999871253967,-2.509083410381159
291.87931,,0.015479827374070524,292.025,0.5400000214576721,-2.424091460279259
292.344828,,0.0032383656059913816,292.491,0.5139999985694885,-2.4806948034540697
292.81034500000004,,0.011295293651475847,292.955,0.5260000228881836,-2.454493186187162
293.275862,,0.025166374420213813,293.421,0.5210000276565552,-2.4653139218229643
293.74137900000005,,0.03567202955716353,293.886,0.5170000195503235,-2.4739431438003328
294.206897,,0.0411766619628536,294.344,0.5210000276565552,-2.4651326322473723
294.672414,,0.04155836011382777,294.815,0.5440000295639038,-2.414919368791483
295.13793100000004,,0.037838411203219555,295.274,0.515999972820282,-2.4758114024308564
295.603448,,0.03145002030682043,295.741,0.5210000276565552,-2.46480551268298
296.068966,,0.023977419318093243,296.206,0.4869999885559082,-2.5387691699834183
296.534483,,0.017048032582154184,296.674,0.4779999852180481,-2.5582731783519788
297.0,,0.011676223725980183,297.136,0.5249999761581421,-2.455782697454965
297.46551700000003,,0.007710128508817122,297.6,0.5070000290870667,-2.494915699569344
297.931034,,0.004383185832338239,298.07,0.5410000085830688,-2.420772192527405
298.396552,,0.001324847860880565,298.529,0.5199999809265137,-2.4664691487498867
298.862069,,0.0013222884091584704,299.0,0.5289999842643738,-2.446823111236481
299.327586,,0.003510810147542351,299.465,0.515999972820282,-2.4751256496128042
299.79310300000003,,0.00538651751803403,299.929,0.5180000066757202,-2.4707678145017304
300.258621,,0.006758464669157198,300.395,0.527999997138977,-2.449000706144236
300.724138,,0.007036367360375929,300.859,0.5389999747276306,-2.4250740040291445
301.189655,,0.005975739097225323,301.325,0.515999972820282,-2.475239473729972
301.65517200000005,,0.004267642818489836,301.785,0.578000009059906,-2.3402360813613794
302.12069,,0.0031893079845651813,302.251,0.5139999985694885,-2.479756615983423
302.586207,,0.0035368355487755544,302.718,0.5210000276565552,-2.464606009676389
303.05172400000004,,0.004707015989464605,303.18,0.5120000243186951,-2.4843255162285605
303.517241,,0.005034702705626686,303.648,0.5040000081062317,-2.5018755077343973
303.982759,,0.0035907641505261295,304.111,0.5170000195503235,-2.4736798676056178
304.448276,,0.0015862548920996702,304.574,0.5210000276565552,-2.465094171290316
304.913793,,0.0013023418289812088,305.044,0.515999972820282,-2.476114523492348
305.37931000000003,,0.0034913379861675887,305.509,0.515999972820282,-2.4762359209569373
305.844828,,0.006437133189377406,305.972,0.5139999985694885,-2.480705395470593
306.310345,,0.00780565961539972,306.438,0.5299999713897705,-2.44594637073866
306.775862,,0.006951223479790802,306.903,0.5170000195503235,-2.474351517940379
307.241379,,0.005121420263118479,307.369,0.5419999957084656,-2.4199485506762186
307.70689699999997,,0.0037490248790176253,307.833,0.5339999794960022,-2.437418552320555
308.172414,,0.0030564199767339653,308.299,0.527999997138977,-2.450507033279375
308.637931,,0.002485049234323512,308.765,0.527999997138977,-2.450498940057418
309.103448,,0.002094252344814141,309.23,0.5109999775886536,-2.487503427336953
309.568966,,0.002825789608028481,309.693,0.5400000214576721,-2.4242660200396453
310.034483,,0.005069046096427463,310.155,0.5320000052452087,-2.4416154917784865
310.5,,0.007483010285137481,310.626,0.5180000066757202,-2.4720155324654884
310.96551700000003,,0.008039230498530205,311.088,0.5210000276565552,-2.4653604749217717
311.431034,,0.0063428042972750965,311.552,0.5210000276565552,-2.4652267774870764
311.896552,,0.004267167557817656,312.014,0.5180000066757202,-2.471618162695175
312.362069,,0.0038740655052324244,312.48,0.531000018119812,-2.443144154693438
312.827586,,0.005141358599080728,312.945,0.5339999794960022,-2.4364537114906564
313.29310300000003,,0.006245843586913121,313.411,0.527999997138977,-2.449372272580764
313.758621,,0.0057397824846283346,313.878,0.5120000243186951,-2.484083678317637
314.224138,,0.0037942311772170365,314.344,0.5130000114440918,-2.481769713017867
314.689655,,0.0014108469980257715,314.811,0.5130000114440918,-2.481650436238884
315.155172,,0.0008589892779511276,315.269,0.5299999713897705,-2.4445137328478728
315.62068999999997,,0.0030739135832225806,315.741,0.5199999809265137,-2.466222782086895
316.086207,,0.005222296472326556,316.199,0.5270000100135803,-2.450919649714196
316.551724,,0.006987295785449446,316.67,0.5239999890327454,-2.4574299407750355
317.017241,,0.008244109668553129,317.133,0.5180000066757202,-2.4705041858890997
317.482759,,0.009323089682112814,317.596,0.5120000243186951,-2.483607267325109
317.94827599999996,,0.010469810490470632,318.059,0.5109999775886536,-2.4858459186903694
318.413793,,0.011238990910566297,318.524,0.5249999761581421,-2.4554318935573383
318.87931000000003,,0.010696414894353606,318.995,0.515999972820282,-2.4751513748642138
319.344828,,0.00818904180339372,319.461,0.5260000228881836,-2.4534978317138116
319.810345,,0.003873105478004913,319.926,0.5220000147819519,-2.462363083410257
320.275862,,0.001261021574276812,320.384,0.531000018119812,-2.442918948865821
320.741379,,0.005741037485149783,320.856,0.515999972820282,-2.475770861819343
321.20689699999997,,0.008405150677263638,321.314,0.5139999985694885,-2.4803039235269884
321.672414,,0.009331704263664538,321.781,0.5239999890327454,-2.4586919513946754
322.137931,,0.009867058185116013,322.247,0.515999972820282,-2.4762889012185307
322.603448,,0.011368635489130153,322.715,0.5249999761581421,-2.456836793275897
323.068966,,0.013953725263922027,323.178,0.43299999833106995,-2.6574129146302448
323.53448299999997,,0.016591371698715603,323.641,0.5379999876022339,-2.4287767043867974
324.0,,0.018043364324868444,324.11,0.515999972820282,-2.4768045686548903
324.465517,,0.017355769131097928,324.574,0.5889999866485596,-2.317830370825052
324.931034,,0.01391120740762671,325.037,0.5070000290870667,-2.496513130597938
325.396552,,0.007900562242527115,325.502,0.5099999904632568,-2.4899774722689534
325.86206899999996,,0.0008336373461268412,325.966,0.5189999938011169,-2.470337252893241
326.327586,,0.00525248004379935,326.431,0.5130000114440918,-2.4833444463645677
326.793103,,0.009581664194712113,326.896,0.5199999809265137,-2.4679984811648925
327.258621,,0.013137915908286451,327.361,0.5239999890327454,-2.4591598349563313
327.724138,,0.016927976108973914,327.826,0.531000018119812,-2.4437596504748567
328.189655,,0.02026401528690502,328.292,0.5199999809265137,-2.467553871228494
328.655172,,0.021436306044518377,328.756,0.5090000033378601,-2.4913319995362233
329.12068999999997,,0.01971143054974237,329.222,0.5249999761581421,-2.456276593154208
329.586207,,0.015747383692070245,329.685,0.515999972820282,-2.4756829325588234
330.051724,,0.010046745666917614,330.155,0.5329999923706055,-2.438445741551137
330.517241,,0.002124864384590597,330.615,0.5460000038146973,-2.4099300095051803
330.982759,,0.008026197762793737,331.085,0.515999972820282,-2.475108937411177
331.44827599999996,,0.018262458722610248,331.548,0.5289999842643738,-2.446624909055392
331.913793,,0.025040491751533712,332.011,0.5080000162124634,-2.492239697150607
332.37931,,0.02577656987028993,332.476,0.5009999871253967,-2.507383553314526
332.844828,,0.02002306312486343,332.941,0.515999972820282,-2.4746311637115705
333.310345,,0.008914626819217777,333.407,0.515999972820282,-2.474594753290789
333.77586199999996,,0.005473164064662465,333.873,0.515999972820282,-2.4745958577520892
334.241379,,0.020250842582181718,334.339,0.5370000004768372,-2.4288827639665147
334.706897,,0.03223538645014066,334.804,0.531000018119812,-2.4420292688727803
335.17241399999995,,0.03912438738004673,335.27,0.5180000066757202,-2.470460628919503
335.637931,,0.04038427064844126,335.737,0.515999972820282,-2.4749588447920363
336.103448,,0.037076275211590966,336.195,0.5299999713897705,-2.44462665542226
336.56896600000005,,0.03083565281346799,336.659,0.5170000195503235,-2.4731408341990244
337.034483,,0.022918578107342567,337.129,0.5120000243186951,-2.4842435546435633
337.5,,0.014119539251665786,337.589,0.5299999713897705,-2.445248966099904
337.965517,,0.005349708884541526,338.059,0.503000020980835,-2.5042981223451517
338.431034,,0.0022348367390602176,338.525,0.5329999923706055,-2.4391624073642553
338.89655200000004,,0.008041783249817018,338.988,0.531000018119812,-2.443733812366932
339.36206899999996,,0.012746608458625314,339.453,0.492000013589859,-2.528899310761488
339.827586,,0.017637036530527957,339.918,0.5379999876022339,-2.428858029767244
340.293103,,0.022935078457918597,340.383,0.5170000195503235,-2.474758182397362
340.758621,,0.02689195281247408,340.848,0.5120000243186951,-2.4857671834242794
341.224138,,0.02699215708545449,341.313,0.5040000081062317,-2.5032761379505217
341.68965499999996,,0.022462757669307398,341.778,0.597000002861023,-2.3007012164981586
342.155172,,0.01557217830726528,342.244,0.515999972820282,-2.477167564107212
342.62069,,0.01010989451152132,342.707,0.47200000286102295,-2.572981856429036
343.086207,,0.008408557839447757,343.17,0.5189999938011169,-2.4705005667462823
343.551724,,0.009853520627016249,343.641,0.5410000085830688,-2.422447707558296
344.01724099999996,,0.01201765169374612,344.103,0.5099999904632568,-2.4898278100377675
344.48275900000004,,0.012763097728066608,344.567,0.5070000290870667,-2.496175385541989
344.948276,,0.011280038126533554,345.029,0.5149999856948853,-2.478533777264825
345.413793,,0.007847036458231873,345.495,0.5329999923706055,-2.439087010978454
345.87931,,0.0033017693706804178,345.966,0.5059999823570251,-2.4976674971501978
346.344828,,0.0012360442140883015,346.424,0.5170000195503235,-2.473454996888301
346.81034500000004,,0.004596745188013091,346.896,0.531000018119812,-2.4427097720310167
347.275862,,0.00598347606832933,347.354,0.5270000100135803,-2.451190234068028
347.741379,,0.005440641063971867,347.826,0.5040000081062317,-2.5010826108686426
348.206897,,0.003968054253310941,348.284,0.5099999904632568,-2.4878194409097043
348.672414,,0.003012283458220476,348.755,0.5170000195503235,-2.472408953608231
349.13793100000004,,0.0036016876226941585,349.214,0.515999972820282,-2.474464096259098
349.60344799999996,,0.005786789830509362,349.681,0.5260000228881836,-2.4525940019401427
350.068966,,0.008719178969764676,350.144,0.5199999809265137,-2.465625306878615
350.534483,,0.01113230536466494,350.612,0.5210000276565552,-2.463450368057634
351.0,,0.01197769874806169,351.074,0.5360000133514404,-2.430819088285136
351.465517,,0.011055894774879107,351.544,0.503000020980835,-2.5028065538812267
351.93103399999995,,0.009111828027465272,352.007,0.5170000195503235,-2.472439487196203
352.396552,,0.007090076669978888,352.472,0.492000013589859,-2.5270785957587614
352.862069,,0.005438839706989444,352.937,0.5389999747276306,-2.4248887406912396
353.32758600000005,,0.004388644623461111,353.403,0.503000020980835,-2.5035536494414803
353.793103,,0.004352528030415732,353.87,0.5210000276565552,-2.4645918580004356
354.258621,,0.005223598721287919,354.335,0.515999972820282,-2.4757518859262713
354.72413800000004,,0.005653782361210489,354.8,0.5120000243186951,-2.484737628578984
355.189655,,0.004164195434823827,355.266,0.5189999938011169,-2.469754812365527
355.655172,,0.0010120983035060002,355.729,0.515999972820282,-2.47654646419978
356.12069,,0.0019916378424455466,356.192,0.515999972820282,-2.476782113280462
356.586207,,0.0036702768432965486,356.659,0.5210000276565552,-2.4660969032629287
357.05172400000004,,0.004698706079421555,357.122,0.5049999952316284,-2.5011294664237456
357.517241,,0.006371493978364529,357.589,0.5080000162124634,-2.4947282886025537
357.982759,,0.008742813061306521,358.051,0.5440000295639038,-2.416387384247788
358.448276,,0.01047699241218477,358.517,0.5320000052452087,-2.442573010782815
358.913793,,0.010410456059227118,358.979,0.5170000195503235,-2.475244127643223
359.37931000000003,,0.008811035020197628,359.445,0.5170000195503235,-2.4751858019050066
359.844828,,0.006863831054641825,359.912,0.503000020980835,-2.5055807614650263
360.310345,,0.0052389865376456035,360.377,0.5149999856948853,-2.4792862867471763
360.775862,,0.003756423122849707,360.844,0.4860000014305115,-2.542276288806116
361.241379,,0.0024863417972639805,361.31,0.5249999761581421,-2.457083821012366
361.706897,,0.002361287265964452,361.775,0.5099999904632568,-2.4895098453461757
362.172414,,0.00397319485522935,362.241,0.5289999842643738,-2.447840325724658
362.63793100000004,,0.006082550711790527,362.703,0.6190000176429749,-2.251471225996282
363.103448,,0.006272591374703233,363.166,0.515999972820282,-2.4755732541846966
363.568966,,0.003500662896070464,363.634,0.5139999985694885,-2.4796347128655145
364.034483,,0.0004516702235674839,364.096,0.5130000114440918,-2.481532059926851
364.5,,0.00258060537393069,364.559,0.5109999775886536,-2.4856317367490606
364.96551700000003,,0.0015648193127310442,365.029,0.5130000114440918,-2.4810485878356787
365.431034,,0.001308330243815283,365.495,0.5299999713897705,-2.4438247678732625
365.896552,,0.003870468391877373,365.958,0.5109999775886536,-2.4850769930561523
366.362069,,0.0050613220336552115,366.424,0.5170000195503235,-2.4719128040872005
366.827586,,0.005178637097720688,366.888,0.5170000195503235,-2.471873946398977
367.29310300000003,,0.004922433512501495,367.354,0.5120000243186951,-2.482783322260297
367.758621,,0.004722078538145956,367.815,0.5170000195503235,-2.4719612772942656
368.224138,,0.004713649886132533,368.28,0.5070000290870667,-2.4938723128759865
368.689655,,0.004819959568294515,368.744,0.5339999794960022,-2.4352231393047346
369.155172,,0.004732123660459932,369.21,0.5249999761581421,-2.455049217416403
369.62068999999997,,0.004100502979790373,369.678,0.5059999823570251,-2.496699481990988
370.086207,,0.002911916673534958,370.14,0.5210000276565552,-2.464306226008208
370.55172400000004,,0.0015160966100664923,370.611,0.5230000019073486,-2.4602572603048136
371.017241,,0.00012778192192406293,371.073,0.5080000162124634,-2.493257414708744
371.482759,,0.0015542405085321028,371.544,0.5130000114440918,-2.4826873189385754
371.948276,,0.0039632710530412086,372.0,0.5139999985694885,-2.480824523272659
372.413793,,0.006857885991263911,372.465,0.515999972820282,-2.4767656755923637
372.87931000000003,,0.009210609455686651,372.93,0.5379999876022339,-2.4291063288676047
373.344828,,0.010222930923766301,373.396,0.5249999761581421,-2.4576630184576294
373.810345,,0.010277700461490465,373.863,0.5299999713897705,-2.4469596468405928
374.275862,,0.01038046620016555,374.328,0.5249999761581421,-2.4579922899532396
374.741379,,0.010635204520873923,374.793,0.5270000100135803,-2.453719225661097
375.20689699999997,,0.009922271894830755,375.258,0.5139999985694885,-2.482068162508705
375.672414,,0.0074592103250450395,375.722,0.515999972820282,-2.4776787574333343
376.137931,,0.004141716219374306,376.184,0.5170000195503235,-2.4754099630061193
376.603448,,0.0017434227500796454,376.652,0.5260000228881836,-2.4556563482047085
377.068966,,0.0011176991044923455,377.114,0.5270000100135803,-2.4532800204620404
377.53448299999997,,0.0017511648201982734,377.585,0.5170000195503235,-2.474822631573991
378.0,,0.0026917773079573343,378.048,0.5270000100135803,-2.4527536065469597
378.465517,,0.0031480911400546645,378.513,0.5339999794960022,-2.4371901166285492
378.931034,,0.002485208253900705,378.976,0.5059999823570251,-2.4978584644178325
379.396552,,0.0006754610638832541,379.442,0.515999972820282,-2.475728375629061
379.862069,,0.0011288487437850741,379.908,0.5640000104904175,-2.3708096287784928
380.327586,,0.0014424599657157549,380.374,0.515999972820282,-2.4750511380951528
380.79310300000003,,0.0003296121883306895,380.841,0.5170000195503235,-2.4725598311627586
381.258621,,0.0003129551250860004,381.299,0.5149999856948853,-2.476636683684092
381.724138,,0.0009653140583973547,381.77,0.5339999794960022,-2.4350025915482334
382.189655,,0.003129544302142971,382.229,0.515999972820282,-2.4740267281904016
382.655172,,0.0037496380895318798,382.696,0.49900001287460327,-2.510927294124257
383.12068999999997,,0.0019629799533063203,383.159,0.5130000114440918,-2.4803503545202723
383.586207,,0.0004447758675244838,383.629,0.5210000276565552,-2.4629081912013215
384.051724,,0.0010609713038504955,384.092,0.5400000214576721,-2.4215637102183214
384.517241,,0.0005949324255026866,384.556,0.5379999876022339,-2.4260316949127474
384.982759,,0.002772136112871542,385.026,0.5149999856948853,-2.4763091043976004
385.44827599999996,,0.0033854681026386003,385.484,0.531000018119812,-2.4416727132514686
385.913793,,0.001896827962380047,385.955,0.5139999985694885,-2.478979041836895
386.37931,,0.0005126789761835954,386.421,0.515999972820282,-2.474930451260663
386.84482799999995,,0.0022655335910248516,386.885,0.5130000114440918,-2.481805299044133
387.310345,,0.0027613314470049956,387.351,0.5120000243186951,-2.48434293546555
387.775862,,0.0026083005329518693,387.815,0.5370000004768372,-2.4302443220183756
388.241379,,0.002767565574334922,388.274,0.4959999918937683,-2.519933471238
388.70689699999997,,0.0036545674740685935,388.741,0.5070000290870667,-2.4963191277961863
389.172414,,0.004933049350528577,389.206,0.5299999713897705,-2.4465363809624674
389.637931,,0.005837461947417974,389.674,0.5149999856948853,-2.4795061139461216
390.103448,,0.00573832828276449,390.137,0.5929999947547913,-2.3098147502476283
390.56896600000005,,0.004748449003132179,390.6,0.5619999766349792,-2.3775395059293083
391.03448299999997,,0.0037063696533591924,391.07,0.5370000004768372,-2.432129635835671
391.5,,0.003291058845587026,391.541,0.515999972820282,-2.4779404588338836
391.965517,,0.0034082110647414856,391.996,0.5379999876022339,-2.4300032365947
392.431034,,0.0036849293888024555,392.462,0.515999972820282,-2.4778605898091306
392.896552,,0.004046825599888738,392.93,0.5170000195503235,-2.475545270252613
393.36206899999996,,0.0044019397722827825,393.395,0.5059999823570251,-2.4993149309081604
393.827586,,0.004320087377829492,393.86,0.492000013589859,-2.5295679070263795
394.293103,,0.003571875478273872,394.325,0.515999972820282,-2.4769876309833534
394.75862099999995,,0.0025628679994611743,394.785,0.5299999713897705,-2.446156960528094
395.224138,,0.0017507592539271787,395.25,0.5070000290870667,-2.495908828193659
395.68965499999996,,0.0010327877008830704,395.718,0.5109999775886536,-2.486821444411585
396.155172,,0.00018027972288528355,396.18,0.5040000081062317,-2.5016948699198642
396.62069,,0.0005500649505136669,396.648,0.35899999737739563,-2.8172322622262045
397.086207,,0.0008881751700393457,397.11,0.531000018119812,-2.442161555933713
397.551724,,0.0013826055418695,397.578,0.5400000214576721,-2.42224091681321
398.017241,,0.00290461094200746,398.04,0.5299999713897705,-2.443750946436799
398.48275900000004,,0.005087580705754377,398.506,0.5260000228881836,-2.4522337167225223
398.94827599999996,,0.00604717475091579,398.97,0.5339999794960022,-2.4346250299838057
399.413793,,0.004430316888231791,399.435,0.5339999794960022,-2.4345029240312592
399.87931,,0.0014394073202203188,399.901,0.5170000195503235,-2.471479330491422
400.344828,,6.06120050600172e-05,400.366,0.5249999761581421,-2.454053848611795
400.810345,,0.0013940782435652196,400.833,0.5419999957084656,-2.417084460088035
401.27586199999996,,0.004298681551389716,401.299,0.515999972820282,-2.4738591672410126
401.741379,,0.005966340923386342,401.763,0.5170000195503235,-2.4718693815088315
402.206897,,0.005507005056875097,402.228,0.5139999985694885,-2.4786487133341764
402.672414,,0.004599186167319165,402.689,0.5410000085830688,-2.4201154755732386
403.137931,,0.005349273791309099,403.158,0.5299999713897705,-2.444408808339008
403.60344799999996,,0.007916920042067116,403.619,0.5180000066757202,-2.4709089716444703
404.068966,,0.01067473149856107,404.089,0.4569999873638153,-2.6041827233050365
404.534483,,0.012215069348002667,404.552,0.5099999904632568,-2.4891004204189686
405.0,,0.012263341982838167,405.014,0.5299999713897705,-2.4459107771532316
405.465517,,0.010876917448170776,405.48,0.5180000066757202,-2.472421831520754
405.931034,,0.008152188728110068,405.945,0.5109999775886536,-2.4880128080903736
406.39655200000004,,0.005094131701180423,406.41,0.5379999876022339,-2.429492165735677
406.862069,,0.0034764676801710844,406.878,0.5289999842643738,-2.449355358822302
407.327586,,0.003938157588095482,407.343,0.5149999856948853,-2.480056322335432
407.793103,,0.004937889359517795,407.807,0.5450000166893005,-2.414834977574984
408.258621,,0.004471381076547789,408.273,0.5109999775886536,-2.488980935755381
408.72413800000004,,0.002389752252880936,408.738,0.5149999856948853,-2.4802698553749
409.18965499999996,,0.00021874434595518726,409.204,0.5249999761581421,-2.458418503047856
409.655172,,0.0009079752573319906,409.666,0.5210000276565552,-2.467000925632883
410.12069,,0.0011931626991787299,410.129,0.5120000243186951,-2.486413309663451
410.586207,,0.0012951544481977447,410.6,0.5049999952316284,-2.5014111675218116
411.05172400000004,,0.0014845101972042157,411.063,0.5389999747276306,-2.427034220602216
411.51724099999996,,0.0017272716353848446,411.528,0.5320000052452087,-2.4419394720206897
411.982759,,0.0018938042319695647,411.992,0.5299999713897705,-2.4459191840454224
412.448276,,0.001847294444484205,412.458,0.5230000019073486,-2.460771181403107
412.913793,,0.0018846417595592112,412.925,0.527999997138977,-2.449470835793544
413.37931,,0.002961529537638851,413.391,0.5170000195503235,-2.473032662142754
413.844828,,0.005704448208674252,413.849,0.5139999985694885,-2.479181883567487
414.31034500000004,,0.009079979291757127,414.314,0.5070000290870667,-2.494074368528294
414.775862,,0.010822755009037581,414.779,0.5120000243186951,-2.482863148322367
415.241379,,0.009724882745569107,415.244,0.5339999794960022,-2.4346643450663987
415.706897,,0.0071673861339401354,415.714,0.5139999985694885,-2.478025863739906
416.172414,,0.005781047241478595,416.176,0.5270000100135803,-2.4495559436198646
416.63793100000004,,0.006547126046478365,416.644,0.5299999713897705,-2.442941209073828
417.103448,,0.007763173666671817,417.107,0.515999972820282,-2.4734346528925935
417.568966,,0.0072162575157348465,417.57,0.5149999856948853,-2.475677949898856
418.034483,,0.004936621906617401,418.04,0.5289999842643738,-2.4453123074778715
418.5,,0.003100708679913777,418.499,0.5170000195503235,-2.471658207762863
418.96551700000003,,0.0031979697636625535,418.964,0.5109999775886536,-2.484993636955968
419.43103399999995,,0.003935404158098541,419.43,0.5270000100135803,-2.450452348437831
419.896552,,0.002311798094601844,419.897,0.5109999775886536,-2.485672161197122
420.362069,,0.0035175604986325973,420.362,0.5289999842643738,-2.446851212558428
420.827586,,0.01268133667472293,420.829,0.5170000195503235,-2.4734111070504614
421.293103,,0.022561202109588133,421.294,0.5210000276565552,-2.46512160950874
421.758621,,0.030983343558874058,421.759,0.527999997138977,-2.4502922655916275
422.22413800000004,,0.037654217644424746,422.225,0.5099999904632568,-2.4899123121905826
422.689655,,0.043790137883839494,422.685,0.5339999794960022,-2.438000045908903
423.15517200000005,,0.050329726495439514,423.155,0.515999972820282,-2.4775502195902686
423.62069,,0.05618433863452841,423.618,0.5289999842643738,-2.44951103594641
424.086207,,0.05799048320358839,424.081,0.5230000019073486,-2.4628060991817606
424.55172400000004,,0.051912076174187055,424.549,0.515999972820282,-2.478212889828694
425.017241,,0.03661602324126986,425.011,0.5260000228881836,-2.456510575451161
425.482759,,0.015092218798670716,425.477,0.515999972820282,-2.478306608013276
425.948276,,0.0067929892190610654,425.941,0.5170000195503235,-2.4760619514285707
426.413793,,0.02423625575007127,426.407,0.5099999904632568,-2.4911732251271315
426.87931000000003,,0.03644543461677118,426.873,0.5320000052452087,-2.443033828738849
427.344828,,0.04608342435244648,427.339,0.5230000019073486,-2.462368306652629
427.810345,,0.05614842712796297,427.804,0.531000018119812,-2.444609156210469
428.275862,,0.06720156165240451,428.27,0.5270000100135803,-2.452946983452812
428.741379,,0.0770422528880392,428.737,0.5419999957084656,-2.419854570201038
429.20689699999997,,0.08277655195031347,429.196,0.5049999952316284,-2.500028573141587
429.672414,,0.0831815347201557,429.663,0.5270000100135803,-2.4516528005425298
430.137931,,0.0789102101282582,430.126,0.5070000290870667,-2.4947846255892787
430.603448,,0.07052809053397982,430.589,0.5249999761581421,-2.455145730868431
431.068966,,0.05730263940735967,431.059,0.5419999957084656,-2.4177154735114965
431.534483,,0.038904201384215416,431.524,0.515999972820282,-2.4740090064840934
432.0,,0.018089359872292717,431.987,0.5070000290870667,-2.4933188592766506
432.46551700000003,,0.00043873043145612985,432.453,0.5189999938011169,-2.4669407510801045
432.931034,,0.009630237620642872,432.918,0.5090000033378601,-2.488563646221388
433.396552,,0.012671335637966887,433.383,0.5049999952316284,-2.497191023243116
433.862069,,0.01352526942215612,433.849,0.5199999809265137,-2.4645034457511157
434.327586,,0.01661960244213455,434.314,0.5109999775886536,-2.484183020998929
434.79310300000003,,0.022210482917696627,434.778,0.527999997138977,-2.447295109616392
435.258621,,0.027172134184292457,435.243,0.5210000276565552,-2.462767602893398
435.724138,,0.02865897227004151,435.704,0.5149999856948853,-2.4761280176351823
436.189655,,0.026564443153198253,436.173,0.5929999947547913,-2.3065385648145207
436.655172,,0.023157785160956026,436.634,0.5130000114440918,-2.4812208920649907
437.12068999999997,,0.02114192921363697,437.103,0.5120000243186951,-2.483825105009196
437.586207,,0.021733946701376163,437.571,0.5099999904632568,-2.4886321135898575
438.051724,,0.02380959627067683,438.033,0.49900001287460327,-2.5130576872984234
438.517241,,0.0247544045114746,438.498,0.5130000114440918,-2.4830141911202683
438.982759,,0.022519019227735113,438.965,0.45399999618530273,-2.611996074844748
439.448276,,0.017184647258392093,439.431,0.5289999842643738,-2.4490098740481305
439.913793,,0.01088050214475373,439.89,0.515999972820282,-2.4777014410169795
440.37931000000003,,0.006394625325250102,440.355,0.5299999713897705,-2.4475133204105886
440.844828,,0.005424971210576722,440.822,0.5130000114440918,-2.484797207654431
441.310345,,0.0074163154418089156,441.287,0.5180000066757202,-2.4740772125839596
441.775862,,0.009951277725213918,441.753,0.5210000276565552,-2.467635108167312
442.241379,,0.010747183327298036,442.218,0.5070000290870667,-2.4981474604897826
442.70689699999997,,0.009547302586231557,442.681,0.5130000114440918,-2.4850037885452685
443.172414,,0.007924947221964912,443.144,0.5540000200271606,-2.395525247907738
443.637931,,0.007227379318547485,443.615,0.531000018119812,-2.445401240265626
444.103448,,0.007072085100094979,444.077,0.5270000100135803,-2.4538107934104256
444.568966,,0.006138581912597447,444.541,0.5049999952316284,-2.5013739661041603
445.03448299999997,,0.004150763719928503,445.011,0.5180000066757202,-2.4726339409368068
445.5,,0.0024628561592019652,445.469,0.5299999713897705,-2.4460345562513885
445.965517,,0.0025254662370653605,445.94,0.5170000195503235,-2.4738764999174006
446.431034,,0.004242618400132987,446.399,0.5239999890327454,-2.4581357170124662
446.896552,,0.006114905753926446,446.871,0.4690000116825104,-2.5774772254361573
447.36206899999996,,0.0066330530303970155,447.329,0.515999972820282,-2.4746187650559586
447.827586,,0.005288697339386346,447.801,0.5080000162124634,-2.491621632638649
448.29310300000003,,0.00261530078186192,448.259,0.5170000195503235,-2.47163579405138
448.758621,,0.0003778997346540857,448.729,0.5090000033378601,-2.4887470022325164
449.224138,,0.0029181949719723783,449.192,0.5120000243186951,-2.4819629977664426
449.689655,,0.00479349748828134,449.659,0.5339999794960022,-2.433862297505556
450.155172,,0.005973420528719755,450.122,0.5149999856948853,-2.475168603649029
450.62068999999997,,0.006078690399347598,450.585,0.5099999904632568,-2.486059757307086
451.086207,,0.004556400537339349,451.055,0.515999972820282,-2.4730726151979585
451.551724,,0.0014284940726145704,451.521,0.5199999809265137,-2.4645270820267915
452.017241,,0.002437428090609619,451.983,0.5270000100135803,-2.4495247144797365
452.482759,,0.006053740183805724,452.449,0.5149999856948853,-2.475988599520349
452.94827599999996,,0.009244042972944221,452.915,0.5210000276565552,-2.463299200334907
453.413793,,0.012591946332636479,453.381,0.515999972820282,-2.4746263873537044
453.87931,,0.01634054379792043,453.84,0.515999972820282,-2.4750984980204453
454.344828,,0.019600584792615474,454.306,0.515999972820282,-2.4755947446779754
454.810345,,0.0210109038596148,454.771,0.5199999809265137,-2.4673853876265337
455.27586199999996,,0.020006929537029153,455.236,0.5170000195503235,-2.4744200323742045
455.741379,,0.016859746825677053,455.704,0.5270000100135803,-2.453110453025853
456.206897,,0.011592520933853549,456.166,0.5199999809265137,-2.468801220895696
456.672414,,0.0039043610017424754,456.633,0.5210000276565552,-2.4670123639282346
457.137931,,0.005373088536046266,457.095,0.4959999918937683,-2.5218067545091696
457.603448,,0.013717233605404161,457.559,0.5199999809265137,-2.469775650795809
458.06896600000005,,0.01883433340769123,458.029,0.515999972820282,-2.4786665739477263
458.53448299999997,,0.02089626358797344,458.494,0.5260000228881836,-2.45696988572046
459.0,,0.02215724407155517,458.958,0.5170000195503235,-2.4765779745102527
459.465517,,0.024398899607190647,459.423,0.5299999713897705,-2.4481656932057536
459.931034,,0.027184667673697496,459.89,0.515999972820282,-2.4784889400079364
460.39655200000004,,0.028537300964463774,460.355,0.5329999923706055,-2.4411911454480806
460.86206899999996,,0.02695934648826531,460.815,0.5299999713897705,-2.447390854086097
461.327586,,0.022817100020091033,461.28,0.5189999938011169,-2.470954079800405
461.793103,,0.017987872367784482,461.745,0.515999972820282,-2.4770352024524134
462.258621,,0.014145452845982169,462.211,0.5099999904632568,-2.4896133462505636
462.724138,,0.011333072933873454,462.674,0.5049999952316284,-2.4999893673773927
463.18965499999996,,0.008366515363746434,463.144,0.5180000066757202,-2.471141969708589
463.655172,,0.004602010034618299,463.607,0.44699999690055847,-2.625310374286969
464.12069,,0.0008319576332729925,464.07,0.4959999918937683,-2.518067311013947
464.58620699999994,,0.0018342575859030103,464.541,0.5360000133514404,-2.4304721371508013
465.051724,,0.0035037193859648983,465.003,0.5210000276565552,-2.462754353220388
465.517241,,0.005323927283502992,465.469,0.503000020980835,-2.501636565165271
465.98275900000004,,0.00790185031998602,465.933,0.515999972820282,-2.47305575612361
466.448276,,0.010507717066706716,466.398,0.5090000033378601,-2.4881308165323786
466.913793,,0.012055546930079288,466.863,0.515999972820282,-2.472793430367745
467.37931,,0.012391304326630109,467.329,0.5299999713897705,-2.442296456397667
467.844828,,0.012145128849666037,467.793,0.515999972820282,-2.4728924497936706
468.31034500000004,,0.011597073849688446,468.259,0.5170000195503235,-2.470897083649228
468.77586199999996,,0.010353104017439456,468.722,0.5339999794960022,-2.4341266706520077
469.241379,,0.00818457279688177,469.184,0.5139999985694885,-2.478041271161666
469.706897,,0.005590672973185262,469.652,0.5090000033378601,-2.4893417776256985
470.172414,,0.0032396813698993675,470.114,0.5120000243186951,-2.483267126305663
470.63793100000004,,0.0011754485565721733,470.585,0.5260000228881836,-2.4532674370769887
471.10344799999996,,0.001127961231150888,471.048,0.5059999823570251,-2.497366753620767
471.568966,,0.004029557736975596,471.513,0.5249999761581421,-2.456507843135686
472.034483,,0.007228108538491417,471.976,0.5199999809265137,-2.4679292676279725
472.5,,0.009986904415100481,472.442,0.5210000276565552,-2.466255309187917
472.965517,,0.011747374762854068,472.908,0.5270000100135803,-2.453649462300435
473.43103399999995,,0.012485222232118344,473.374,0.5170000195503235,-2.4758488998595642
473.89655200000004,,0.012483195396704238,473.841,0.5270000100135803,-2.454409779699736
474.362069,,0.011893594410159995,474.299,0.515999972820282,-2.47864605587287
474.827586,,0.010744828501280246,474.77,0.5230000019073486,-2.4635818657935804
475.293103,,0.009286009612884224,475.236,0.5379999876022339,-2.430997701680677
475.758621,,0.0078831681080931,475.696,0.5299999713897705,-2.448427889893218
476.22413800000004,,0.006487048206324894,476.159,0.6079999804496765,-2.2783978720742333
476.689655,,0.004652496867388522,476.629,0.5249999761581421,-2.4590355631133187
477.155172,,0.0022214023981167326,477.092,0.5210000276565552,-2.4674723686449123
477.62069,,0.00041708168121490293,477.556,0.531000018119812,-2.4453306159900157
478.086207,,0.0027879208456032863,478.026,0.5099999904632568,-2.4906602429144327
478.55172400000004,,0.004617413930125391,478.491,0.5170000195503235,-2.47493400083915
479.01724099999996,,0.005717033039258752,478.955,0.5130000114440918,-2.483133990903284
479.482759,,0.006113763096252496,479.421,0.5299999713897705,-2.4455586704485914
479.948276,,0.006295910430095436,479.885,0.5270000100135803,-2.4515481775456376
480.413793,,0.006802615772583326,480.344,0.5109999775886536,-2.4858689119522834
480.87931000000003,,0.00742686729698759,480.811,0.5249999761581421,-2.454855407110881
481.344828,,0.007214838198871813,481.277,0.515999972820282,-2.4739916099816686
481.810345,,0.00554697923735694,481.742,0.5329999923706055,-2.4365377071998386
482.275862,,0.003071009114879084,482.207,0.5170000195503235,-2.4710465210437302
482.74137900000005,,0.001232717021460463,482.67,0.5049999952316284,-2.496919296607693
483.206897,,0.0008365541623944794,483.14,0.5180000066757202,-2.468412976690352
483.672414,,0.0013567510198981008,483.603,0.5400000214576721,-2.4203909585075367
484.13793100000004,,0.0017795671778624165,484.066,0.5149999856948853,-2.4748599466341403
484.603448,,0.0017854788824584022,484.533,0.5139999985694885,-2.4771361623168175
485.068966,,0.0018014282974619172,484.998,0.531000018119812,-2.440288902285783
485.534483,,0.0021591319871755114,485.463,0.5080000162124634,-2.490674024631734
486.0,,0.002738109603458725,485.93,0.5070000290870667,-2.4932074689827544
486.46551700000003,,0.0034588874137934478,486.396,0.5210000276565552,-2.463129359038989
486.931034,,0.0045718875981641,486.855,0.515999972820282,-2.4745006620534302
487.396552,,0.006149564584677135,487.321,0.5049999952316284,-2.498984320291223
487.862069,,0.007617044102161396,487.789,0.5130000114440918,-2.4820989228048567
488.327586,,0.008124043120327464,488.254,0.5379999876022339,-2.4281847679887076
488.79310300000003,,0.007312739511661323,488.715,0.5130000114440918,-2.4831937704686404
489.258621,,0.00562211288838856,489.184,0.5139999985694885,-2.4815327252365216
489.724138,,0.0039180324296456135,489.645,0.5170000195503235,-2.475473695651137
490.189655,,0.0028266004315807705,490.115,0.5360000133514404,-2.4345007151006044
490.655172,,0.002384864487941159,490.578,0.5210000276565552,-2.4675328147594455
491.12069,,0.0023861103733420017,491.04,0.5339999794960022,-2.439483147424708
491.586207,,0.00286008961248222,491.506,0.5090000033378601,-2.4941342261127275
492.05172400000004,,0.0037561448639999682,491.969,0.5109999775886536,-2.489869132956869
492.517241,,0.004300944351388739,492.435,0.5260000228881836,-2.4571859728303904
492.982759,,0.0035735622436108157,492.9,0.5170000195503235,-2.4766946475352434
493.448276,,0.0020252722525882366,493.365,0.5210000276565552,-2.4677879417763
493.913793,,0.0014916044873773428,493.831,0.5120000243186951,-2.487116749271095
494.37931000000003,,0.002955723217599688,494.297,0.5189999938011169,-2.471508820473655
494.844828,,0.0049570624313507025,494.764,0.5049999952316284,-2.5015850046801034
495.310345,,0.005203904954639963,495.229,0.515999972820282,-2.4771405730175586
495.775862,,0.0035251476588859937,495.692,0.5170000195503235,-2.4744423478845867
496.241379,,0.0021554004714885605,496.155,0.5009999871253967,-2.508756937902751
496.70689699999997,,0.0028374877159553264,496.622,0.515999972820282,-2.4755256901259313
497.172414,,0.004604929450239431,497.085,0.5329999923706055,-2.43794546994771
497.637931,,0.005195115314649515,497.553,0.5379999876022339,-2.42653289563198
498.103448,,0.004099564455159689,498.015,0.4259999990463257,-2.6700633681627326
498.568966,,0.0032000113433733237,498.481,0.5239999890327454,-2.456135411957104
499.03448299999997,,0.004332756360976114,498.948,0.5270000100135803,-2.4492479714157946
499.5,,0.0069772146241807945,499.413,0.5270000100135803,-2.4489740486876515
499.96551700000003,,0.008748827647398243,499.878,0.5109999775886536,-2.4836446054929655
500.431034,,0.007874388256615229,500.344,0.4830000102519989,-2.544551638914844
500.89655200000004,,0.0047400347568769974,500.811,0.5180000066757202,-2.468300247600938
501.362069,,0.0008923486525312929,501.269,0.5210000276565552,-2.4618610821744413
501.827586,,0.0030762840624534993,501.741,0.5249999761581421,-2.4533351518448754
502.293103,,0.007915936368042819,502.199,0.5130000114440918,-2.4797534845248315
502.758621,,0.013792186088000577,502.67,0.5450000166893005,-2.410388903445476
503.224138,,0.018886695456125407,503.132,0.5329999923706055,-2.436951230283204
503.68965499999996,,0.021012884179605014,503.6,0.5189999938011169,-2.46792467485165
504.15517200000005,,0.02038613421590871,504.063,0.515999972820282,-2.474973607591126
504.62068999999997,,0.019557283241814615,504.528,0.503000020980835,-2.5038347703505237
505.08620699999994,,0.020294305940466717,504.992,0.5080000162124634,-2.4934905962542797
505.55172400000004,,0.021599046015762558,505.457,0.5249999761581421,-2.456996238762688
506.017241,,0.021403207621457268,505.922,0.527999997138977,-2.4509793092743086
506.48275899999993,,0.01926767828008348,506.387,0.5320000052452087,-2.4427441529845337
506.948276,,0.016446529141475222,506.852,0.515999972820282,-2.4780281828300015
507.413793,,0.013896916311932664,507.318,0.527999997138977,-2.45224357114844
507.87931,,0.011409188337374927,507.782,0.5339999794960022,-2.439453582404748
508.344828,,0.008608984818264514,508.248,0.5170000195503235,-2.476686467251
508.810345,,0.005715401712196875,508.711,0.515999972820282,-2.478969907136504
509.27586199999996,,0.0030055000917537994,509.18,0.5139999985694885,-2.4833378563616324
509.74137900000005,,0.0004053233066507339,509.641,0.5419999957084656,-2.42225164844302
510.20689699999997,,0.0019280117610202272,510.111,0.5329999923706055,-2.4416823827421905
510.67241399999995,,0.0033825818399400866,510.574,0.5370000004768372,-2.4327026205428024
511.13793100000004,,0.003889646352936422,511.037,0.515999972820282,-2.4781095225423106
511.603448,,0.004545424380975949,511.502,0.5139999985694885,-2.4820534522194087
512.0689659999999,,0.006367599683924221,511.966,0.5249999761581421,-2.457619209894861
512.534483,,0.008639895221543698,512.432,0.5299999713897705,-2.4462145996198914
513.0,,0.0094160945095304,512.896,0.5329999923706055,-2.439139899534202
513.465517,,0.007937723552724776,513.362,0.5149999856948853,-2.477805862445597
513.931034,,0.005865826424497261,513.827,0.5210000276565552,-2.4641901179418886
514.396552,,0.005597080844180333,514.293,0.5170000195503235,-2.472383461628475
514.862069,,0.007712162030451822,514.76,0.5189999938011169,-2.467543066596784
515.327586,,0.010526153453294058,515.225,0.515999972820282,-2.4736485566200024
515.793103,,0.011912093839741022,515.689,0.5149999856948853,-2.4754622991353434
516.258621,,0.01118767450543591,516.151,0.5180000066757202,-2.4686379880135236
516.724138,,0.009383489825501953,516.615,0.5210000276565552,-2.461898677191704
517.189655,,0.00803003105009937,517.085,0.5360000133514404,-2.4291062371220913
517.655172,,0.007701823094565675,517.545,0.5270000100135803,-2.4486948163395876
518.1206900000001,,0.007558969061598625,518.015,0.5210000276565552,-2.4618415776173035
518.5862070000001,,0.006176933229041781,518.481,0.5130000114440918,-2.479438169857861
519.051724,,0.0027800163306053063,518.94,0.5099999904632568,-2.486229424846939
519.517241,,0.0021310958284805307,519.406,0.515999972820282,-2.473493204097147
519.982759,,0.006968947633874263,519.87,0.5139999985694885,-2.4782562282044687
520.448276,,0.009887856788084856,520.336,0.5180000066757202,-2.4700052159944192
520.9137929999999,,0.010006043893257535,520.8,0.5139999985694885,-2.479227263003869
521.37931,,0.008185039445679717,521.266,0.5170000195503235,-2.473227278418686
521.844828,,0.006376189055096805,521.737,0.5199999809265137,-2.467239773689497
522.310345,,0.005919019574357632,522.195,0.5170000195503235,-2.4743197305348636
522.7758620000001,,0.006505057840634901,522.664,0.527999997138977,-2.450877944962892
523.241379,,0.006806476318279677,523.127,0.5170000195503235,-2.475329671695128
523.7068969999999,,0.005919173997595167,523.589,0.546999990940094,-2.410405240349103
524.172414,,0.00410433860790383,524.059,0.5460000038146973,-2.4129532521159747
524.637931,,0.00230667304475146,524.524,0.5419999957084656,-2.4219601905905277
525.103448,,0.0011631620353964648,524.987,0.5189999938011169,-2.472276331528794
525.568966,,0.0005051886977428349,525.453,0.5379999876022339,-2.43099861852827
526.034483,,0.00028853973321174933,525.918,0.5350000262260437,-2.4375569548142817
526.5,,0.0015955871126391054,526.384,0.5929999947547913,-2.3111219069975744
526.9655170000001,,0.00327285943823512,526.848,0.5669999718666077,-2.3675982807251295
527.4310340000001,,0.005002496207104716,527.314,0.5640000104904175,-2.3738758466367056
527.8965519999999,,0.006873853707290127,527.774,0.5630000233650208,-2.3757152354074047
528.362069,,0.009707274443101297,528.24,0.5630000233650208,-2.3753058369272715
528.827586,,0.0146317067289214,528.707,0.5490000247955322,-2.4053404566773797
529.293103,,0.02181398144799752,529.169,0.5669999718666077,-2.365616081174846
529.7586210000001,,0.029487975870603794,529.637,0.5669999718666077,-2.365080332633155
530.224138,,0.03494377788419375,530.1,0.6660000085830688,-2.1488457043152294
530.689655,,0.03708464333198408,530.57,0.5540000200271606,-2.392309007323477
531.155172,,0.037602249590355984,531.033,0.5669999718666077,-2.3634632629797765
531.62069,,0.03877209290887586,531.499,0.5789999961853027,-2.336835698615187
532.086207,,0.040039479885424355,531.965,0.5669999718666077,-2.362550111816069
532.5517239999999,,0.037635532779771344,532.43,0.578000009059906,-2.3382231298790948
533.017241,,0.02811476855274802,532.889,0.5669999718666077,-2.3619055250581416
533.482759,,0.011926135240226158,533.355,0.5849999785423279,-2.3224945689572856
533.9482760000001,,0.006799705705308289,533.822,0.5920000076293945,-2.307141717467621
534.413793,,0.023508467991934217,534.288,0.6000000238418579,-2.289705662700667
534.87931,,0.0358805825457574,534.753,0.6110000014305115,-2.265828744540016
535.344828,,0.043870070307581666,535.218,0.5820000171661377,-2.32919000679854
535.810345,,0.048165749515080326,535.681,0.5799999833106995,-2.3338155470411803
536.275862,,0.04912982830972513,536.144,0.6240000128746033,-2.238302361576033
536.7413789999999,,0.047013750593465665,536.612,0.625,-2.2365381797193216
537.206897,,0.04257897908470621,537.081,0.6290000081062317,-2.228291386366105
537.672414,,0.037021524876114494,537.545,0.6150000095367432,-2.2592995154810254
538.137931,,0.03137277015091272,538.007,0.5929999947547913,-2.3077615539766887
538.6034480000001,,0.02628174930730529,538.473,0.5860000252723694,-2.32355351697857
539.0689659999999,,0.022143790653051186,538.938,0.5929999947547913,-2.308838379060212
539.5344829999999,,0.018864442528764864,539.404,0.6309999823570251,-2.22656179382089
540.0,,0.0156776154045994,539.864,0.5989999771118164,-2.2967508053811794
540.465517,,0.012033357454453972,540.329,0.6060000061988831,-2.2819185690100987
540.931034,,0.008642362294597548,540.796,0.6050000190734863,-2.284449334744471
541.396552,,0.006632493712562711,541.262,0.5960000157356262,-2.304332458128984
541.862069,,0.005542290830063238,541.729,0.6489999890327454,-2.1890534860063413
542.327586,,0.003360153647374283,542.192,0.6389999985694885,-2.210936058035313
542.7931030000001,,0.0008855753375583542,542.655,0.6079999804496765,-2.2784741445662178
543.258621,,0.0055026357634369565,543.126,0.6010000109672546,-2.2936299599691226
543.7241379999999,,0.007856932974755556,543.589,0.6230000257492065,-2.245513839866361
544.189655,,0.007351960215722553,544.052,0.6169999837875366,-2.2583140822716086
544.655172,,0.006166502997295179,544.517,0.609000027179718,-2.275393863305168
545.12069,,0.007037383013938664,544.98,0.6240000128746033,-2.2422981632027814
545.5862070000001,,0.010562137249455367,545.446,0.6349999904632568,-2.217862583409054
546.051724,,0.014962251797092258,545.911,0.6150000095367432,-2.260924694516701
546.517241,,0.018552704355428273,546.376,0.625,-2.2386031121169814
546.982759,,0.021926822994472937,546.841,0.6100000143051147,-2.270740163343673
547.448276,,0.027096411052501924,547.307,0.5649999976158142,-2.368247098296714
547.9137929999999,,0.03467534648043563,547.774,0.621999979019165,-2.2435593546994883
548.3793099999999,,0.04277492174689911,548.24,0.6079999804496765,-2.2735975622400595
548.844828,,0.049132853842560796,548.7,0.628000020980835,-2.229616654338636
549.310345,,0.053764805449086316,549.17,0.6399999856948853,-2.203131802628943
549.775862,,0.05849128850571056,549.633,0.6079999804496765,-2.2725842596452654
550.241379,,0.06358237749054828,550.096,0.6190000176429749,-2.2484402870588087
550.706897,,0.06575409424902288,550.559,0.628000020980835,-2.228744677941712
551.172414,,0.06039494818740473,551.029,0.6309999823570251,-2.222214063805336
551.637931,,0.04567869002047481,551.495,0.5669999718666077,-2.361746602182012
552.103448,,0.024013904139883177,551.958,0.6520000100135803,-2.1767516836106737
552.568966,,0.0001885023838999675,552.424,0.6010000109672546,-2.2881376084761853
553.034483,,0.023229855878724507,552.888,0.609000027179718,-2.2710593613980414
553.5,,0.04260028210855797,553.354,0.6169999837875366,-2.254047122973151
553.965517,,0.0561646718831683,553.818,0.6029999852180481,-2.2850179488750864
554.4310340000001,,0.06245224545333692,554.284,0.6179999709129333,-2.252846521611064
554.896552,,0.06219901646995723,554.748,0.6039999723434448,-2.2838787788355126
555.3620689999999,,0.058975392669337726,555.214,0.593999981880188,-2.306203429379704
555.827586,,0.05739525982472443,555.677,0.6010000109672546,-2.291481974424468
556.293103,,0.060043293205331215,556.14,0.5849999785423279,-2.32684449791835
556.758621,,0.06578512265901863,556.608,0.609000027179718,-2.2750202582741466
557.224138,,0.07087395130946487,557.07,0.6190000176429749,-2.2536415031506745
557.689655,,0.07161873111517082,557.541,0.5889999866485596,-2.3193401470379897
558.155172,,0.06627819941526387,558.003,0.5989999771118164,-2.2978143917454585
558.6206900000001,,0.05525527858381133,558.469,0.6159999966621399,-2.2609513966316253
559.0862070000001,,0.04040849306620059,558.933,0.6449999809265137,-2.197851230035408
559.5517239999999,,0.024330542944755267,559.398,0.6119999885559082,-2.2697304682749637
560.017241,,0.009556615596060549,559.863,0.6060000061988831,-2.282690640704501
560.482759,,0.0023728573387082966,560.328,0.597000002861023,-2.302095753274403
560.948276,,0.011303818015457866,560.793,0.5860000252723694,-2.325773967328093
561.413793,,0.017674618044219114,561.258,0.5929999947547913,-2.3101617489993465
561.87931,,0.021377340651585655,561.719,0.593999981880188,-2.307557556794917
562.344828,,0.02197539779137295,562.188,0.5709999799728394,-2.357190394734
562.8103450000001,,0.020228610850585006,562.656,0.546999990940094,-2.408967176502663
563.275862,,0.018632079763861522,563.118,0.5709999799728394,-2.3561506032887642
563.7413789999999,,0.019604059364851878,563.585,0.5720000267028809,-2.3534401636814604
564.206897,,0.023150955105131783,564.048,0.5529999732971191,-2.3943161694188317
564.672414,,0.02682092224887991,564.513,0.5669999718666077,-2.3633258926310767
565.137931,,0.028098315582205304,564.976,0.5440000295639038,-2.4129896539334657
565.603448,,0.026564458499128345,565.441,0.5730000138282776,-2.3494212360971103
566.068966,,0.02367748692206832,565.908,0.5379999876022339,-2.4253552300748336
566.534483,,0.020927295753516578,566.374,0.5440000295639038,-2.4120432246382904
567.0,,0.018633878902125492,566.834,0.5419999957084656,-2.416246642058681
567.465517,,0.01638217581265654,567.299,0.5419999957084656,-2.4161828742949285
567.931034,,0.014105036987718523,567.77,0.5460000038146973,-2.4074960250401873
568.396552,,0.012365714971703976,568.229,0.5419999957084656,-2.4163284472367836
568.862069,,0.01161605400829317,568.696,0.5460000038146973,-2.407817531797533
569.327586,,0.011583291323348018,569.159,0.5460000038146973,-2.408100306721428
569.793103,,0.01170745514805377,569.63,0.5419999957084656,-2.4171676664252737
570.2586210000001,,0.011910409827939963,570.092,0.5669999718666077,-2.363112708167462
570.724138,,0.01240172760727416,570.556,0.5410000085830688,-2.420213955186683
571.189655,,0.012842822925941702,571.025,0.5210000276565552,-2.464275297209876
571.655172,,0.012442064260789717,571.491,0.5270000100135803,-2.4517098700617153
572.12069,,0.01114006151538471,571.955,0.5289999842643738,-2.4478616656067054
572.586207,,0.010090021570156718,572.42,0.5540000200271606,-2.393890789355874
573.051724,,0.010461504440591535,572.885,0.5270000100135803,-2.4531806299253613
573.517241,,0.01208979999426435,573.351,0.5379999876022339,-2.4296389225038277
573.982759,,0.013732290082019826,573.815,0.5419999957084656,-2.4212920922217367
574.4482760000001,,0.014341962374992962,574.281,0.5370000004768372,-2.432486295313637
574.913793,,0.013592264277829565,574.74,0.5339999794960022,-2.43924775408176
575.37931,,0.011493214117961538,575.206,0.5410000085830688,-2.424140682929288
575.844828,,0.008319103591811516,575.674,0.5379999876022339,-2.430734167997027
576.310345,,0.004979098529346243,576.137,0.550000011920929,-2.404560211381083
576.775862,,0.002701242448761256,576.6,0.546999990940094,-2.4109795274551877
577.241379,,0.0019765651404709274,577.07,0.5379999876022339,-2.4303882241259753
577.706897,,0.0022427709415296275,577.541,0.5519999861717224,-2.3996121864293696
578.172414,,0.0028795661220071527,577.996,0.6150000095367432,-2.262013797588377
578.6379310000001,,0.0040783953391487085,578.461,0.5239999890327454,-2.4598690349825714
579.1034480000001,,0.006376645851344795,578.926,0.5419999957084656,-2.4202076353829765
579.5689659999999,,0.009713567519382805,579.391,0.5419999957084656,-2.4197332016003537
580.034483,,0.013408875061171574,579.855,0.531000018119812,-2.4432098329549277
580.5,,0.016856576253311502,580.321,0.5400000214576721,-2.4231149055067855
580.965517,,0.019760223593736765,580.785,0.5450000166893005,-2.411750769490298
581.431034,,0.021735883598704837,581.251,0.5419999957084656,-2.4178461551288444
581.896552,,0.022169548433421823,581.718,0.4790000021457672,-2.554705310027532
582.362069,,0.02063498050458335,582.181,0.5529999732971191,-2.3931473812766204
582.827586,,0.017020816127704615,582.649,0.5379999876022339,-2.425555582117577
583.2931030000001,,0.010927892286588487,583.111,0.5540000200271606,-2.3904987652686214
583.758621,,0.0015218360409964028,583.574,0.40400001406669617,-2.7171789663354384
584.2241379999999,,0.011147095406248742,584.044,0.5370000004768372,-2.4273883623083337
584.689655,,0.024886706690973263,584.509,0.5450000166893005,-2.4100135464418986
585.155172,,0.03651052171590872,584.972,0.5669999718666077,-2.362216707705161
585.6206900000001,,0.04457855449034655,585.438,0.6240000128746033,-2.2382389110012633
586.0862070000001,,0.050212513227328365,585.904,0.5440000295639038,-2.412800002885905
586.551724,,0.05469894750952727,586.369,0.5379999876022339,-2.426198314868496
587.017241,,0.05695461467559973,586.829,0.5239999890327454,-2.4570744449061683
587.482759,,0.05435047030632416,587.295,0.5440000295639038,-2.413913603940944
587.948276,,0.046153005720320016,587.76,0.5360000133514404,-2.431779082441311
588.4137929999999,,0.03534652199520058,588.225,0.46299999952316284,-2.5912685997939784
588.87931,,0.026340861477863443,588.689,0.5419999957084656,-2.4196029045985896
589.344828,,0.020966535965448018,589.158,0.5419999957084656,-2.4200346982803347
589.810345,,0.01722141846980403,589.62,0.5669999718666077,-2.365969443512114
590.2758620000001,,0.01211127719455318,590.09,0.5540000200271606,-2.3946490871298938
590.741379,,0.005358912805804656,590.552,0.5460000038146973,-2.4123816061620444
591.2068969999999,,0.00021804025993546114,591.014,0.5299999713897705,-2.4474813915171647
591.672414,,0.002104913074316485,591.48,0.5699999928474426,-2.360507945269824
592.137931,,0.0012237586642362434,591.947,0.546999990940094,-2.410715315207354
592.603448,,0.0009737218764670448,592.413,0.5540000200271606,-2.3954867157632367
593.068966,,0.003368490979395184,592.878,0.550000011920929,-2.40414728081361
593.534483,,0.006970698322337399,593.344,0.5410000085830688,-2.4236276845339892
594.0,,0.008845311840668313,593.804,0.5540000200271606,-2.395109256033433
594.4655170000001,,0.00785248250528616,594.27,0.5669999718666077,-2.3665286524528666
594.9310340000001,,0.00550186614751639,594.737,0.5630000233650208,-2.3749305445249282
595.3965519999999,,0.003896043589577514,595.203,0.5400000214576721,-2.4246831485804736
595.862069,,0.0034475768191033185,595.67,0.574999988079071,-2.348042214749899
596.327586,,0.0027635290023005432,596.133,0.5690000057220459,-2.3607054561798675
596.793103,,0.00043222810852821267,596.596,0.5759999752044678,-2.345038379631217
597.2586210000001,,0.0033919437390729783,597.059,0.515999972820282,-2.4753467893715477
597.724138,,0.00707683552767528,597.524,0.5730000138282776,-2.350772983408129
598.189655,,0.008827448273726493,597.995,0.48899999260902405,-2.5334212268568637
598.655172,,0.007827163434936434,598.46,0.574999988079071,-2.3457426981354184
599.12069,,0.004477594521810458,598.926,0.5720000267028809,-2.35201517592237
599.586207,,1.7566166109840124e-05,599.384,0.5429999828338623,-2.41499064602823
600.0517239999999,,0.004311644815746976,599.849,0.5490000247955322,-2.401777867116073
600.517241,,0.007539682451454964,600.315,0.5630000233650208,-2.371204329140197
600.982759,,0.00953814300565937,600.781,0.5649999976158142,-2.366843753754206
601.448276,,0.01055494705497387,601.247,0.5540000200271606,-2.3908737984123434
601.913793,,0.010927487185373912,601.715,0.546999990940094,-2.4062553445536103
602.37931,,0.010998103932790187,602.177,0.5210000276565552,-2.4630931991052134
602.844828,,0.01089991800879462,602.64,0.5669999718666077,-2.3631241433421457
603.310345,,0.010247683204337483,603.11,0.5519999861717224,-2.396098806767423
603.775862,,0.008462393343377228,603.574,0.5540000200271606,-2.3920725609553766
604.2413789999999,,0.00566810451192469,604.036,0.5529999732971191,-2.3946080634099447
604.706897,,0.0029127268325133543,604.502,0.574999988079071,-2.347048273585837
605.172414,,0.0011813501607209054,604.966,0.5659999847412109,-2.3670280687811185
605.637931,,0.0004725897654122024,605.431,0.5419999957084656,-2.419677770672069
606.1034480000001,,0.00027558468148062854,605.896,0.5429999828338623,-2.417841410527273
606.5689659999999,,0.0007842705016613312,606.361,0.5669999718666077,-2.3658658109517523
607.0344829999999,,0.0029402532307971287,606.826,0.550000011920929,-2.403174497743066
607.5,,0.006941864713632399,607.292,0.5540000200271606,-2.3946835641991155
607.965517,,0.011283094205112101,607.76,0.5149999856948853,-2.479821132511821
608.431034,,0.014049561458760898,608.225,0.5540000200271606,-2.3949664322920836
608.896552,,0.0150495051680338,608.689,0.5540000200271606,-2.3950181054479343
609.362069,,0.01582461608393151,609.151,0.5460000038146973,-2.4124365100454255
609.827586,,0.017378327691203645,609.619,0.5669999718666077,-2.366612591764824
610.293103,,0.01876876388887315,610.081,0.5460000038146973,-2.4122330030032817
610.758621,,0.018467498299873864,610.544,0.5400000214576721,-2.425120194580865
611.2241379999999,,0.01638902604979408,611.014,0.5419999957084656,-2.4205317464801777
611.689655,,0.013766879696981689,611.48,0.5440000295639038,-2.4159043788075873
612.155172,,0.011358817257538442,611.944,0.5379999876022339,-2.428676429895524
612.62069,,0.008660058444883764,612.41,0.5329999923706055,-2.4392497288257076
613.0862070000001,,0.005062069616926095,612.874,0.5289999842643738,-2.4476349207760486
613.551724,,0.0011609543159992056,613.339,0.5379999876022339,-2.427698518094263
614.017241,,0.0016380443957021687,613.804,0.5460000038146973,-2.409951292558542
614.4827590000001,,0.0027384004708105895,614.27,0.546999990940094,-2.4074743714031617
614.948276,,0.0030936411340769195,614.737,0.5410000085830688,-2.420276443492561
615.4137929999999,,0.004066315039139995,615.195,0.5419999957084656,-2.4178646403884194
615.8793099999999,,0.005809614135284733,615.663,0.550000011920929,-2.4002454253247394
616.344828,,0.0071947358217877505,616.125,0.5189999938011169,-2.467642311405492
616.810345,,0.007304434469160605,616.589,0.5189999938011169,-2.4675544157294973
617.275862,,0.006529406798241752,617.059,0.5299999713897705,-2.44355712391594
617.741379,,0.00593588906920006,617.524,0.5049999952316284,-2.4980470055205806
618.206897,,0.005889697410881545,617.988,0.5189999938011169,-2.467624365806754
618.672414,,0.005743109515353094,618.453,0.5199999809265137,-2.465575512499287
619.137931,,0.004755813749860787,618.918,0.5180000066757202,-2.4701086472353797
619.603448,,0.0028989214350442424,619.384,0.5210000276565552,-2.463788343398982
620.068966,,0.0007848862857565892,619.844,0.5210000276565552,-2.4640362596110084
620.534483,,0.0008032755738289275,620.309,0.5090000033378601,-2.490452010581089
621.0,,0.001338000108266369,620.775,0.5109999775886536,-2.4863820372342165
621.465517,,0.0009055948171032831,621.24,0.5299999713897705,-2.4452807395326084
621.9310340000001,,0.00015587075948721523,621.711,0.515999972820282,-2.4760706754844906
622.396552,,0.00036153463137965434,622.173,0.515999972820282,-2.4763463629193394
622.862069,,0.0006746972356562512,622.641,0.5170000195503235,-2.474421792759129
623.327586,,0.0011162041940865936,623.103,0.515999972820282,-2.476825434073988
623.793103,,0.002066626243153654,623.571,0.515999972820282,-2.477014346213509
624.258621,,0.004029913383848281,624.033,0.5170000195503235,-2.47498308071044
624.724138,,0.0070859775698933975,624.499,0.5049999952316284,-2.501229135410256
625.189655,,0.01003367089234801,624.965,0.5009999871253967,-2.5099986661252296
625.655172,,0.011106771752048073,625.431,0.5019999742507935,-2.5078270357126784
626.1206900000001,,0.00999701389710509,625.892,0.5230000019073486,-2.462034593512683
626.5862070000001,,0.008283814187119924,626.358,0.503000020980835,-2.5055206695241896
627.0517239999999,,0.00740793815751211,626.822,0.5090000033378601,-2.4923195632281208
627.5172409999999,,0.007112971521470665,627.288,0.49399998784065247,-2.5248329266124427
627.982759,,0.006550511258696456,627.752,0.4729999899864197,-2.570387720211672
628.448276,,0.006094271395683825,628.218,0.49900001287460327,-2.5135228434025043
628.913793,,0.006887442317526697,628.681,0.49000000953674316,-2.532894544049935
629.37931,,0.008770923119410967,629.144,0.49300000071525574,-2.5261137396533355
629.844828,,0.009840594109203155,629.612,0.5080000162124634,-2.49318795095435
630.3103450000001,,0.008521284202364995,630.074,0.5009999871253967,-2.5081986195778736
630.7758620000001,,0.005391323452256314,630.541,0.5,-2.5101507621677155
631.2413789999999,,0.002419310299957566,631.011,0.4790000021457672,-2.5556967715375745
631.706897,,0.0008057732216459363,631.469,0.4909999966621399,-2.5293748620410446
632.172414,,6.63505689193283e-05,631.937,0.492000013589859,-2.527050513998447
632.637931,,0.0010147657184696917,632.402,0.5009999871253967,-2.507333023823513
633.103448,,0.0029431017733359986,632.867,0.5139999985694885,-2.478938918816722
633.568966,,0.0048804242667565695,633.332,0.4950000047683716,-2.5203008321036102
634.034483,,0.00526611406430837,633.8,0.5149999856948853,-2.4767350262902377
634.5,,0.0033976931255530005,634.266,0.5109999775886536,-2.4854949971602633
634.9655170000001,,0.0006045654503149294,634.726,0.5090000033378601,-2.4899334607722343
635.431034,,0.0005777175603887398,635.189,0.48899999260902405,-2.5336208541672973
635.8965519999999,,0.0011925616095972379,635.659,0.492000013589859,-2.5272289479549737
636.362069,,0.004642522846660259,636.122,0.5130000114440918,-2.481645926608601
636.827586,,0.0070796740071560746,636.585,0.5009999871253967,-2.5079765539110235
637.293103,,0.006893619611811799,637.055,0.503000020980835,-2.503817980362283
637.7586210000001,,0.004788973731944624,637.521,0.5070000290870667,-2.495307828439293
638.224138,,0.002766635637798431,637.983,0.4909999966621399,-2.5303700551923356
638.689655,,0.0022044422632127724,638.449,0.49000000953674316,-2.532745973733329
639.155172,,0.0030432695684366688,638.914,0.5049999952316284,-2.5002511469172024
639.62069,,0.00456199564645952,639.38,0.5239999890327454,-2.4590228865442016
640.086207,,0.0063506273331941435,639.845,0.5009999871253967,-2.509273712253909
640.551724,,0.008197009265607489,640.31,0.5299999713897705,-2.4462066886304252
641.017241,,0.009422088774318788,640.77,0.49399998784065247,-2.524720779057396
641.482759,,0.009029043050123997,641.236,0.515999972820282,-2.4768408057213973
641.9482760000001,,0.006754139783415154,641.699,0.49399998784065247,-2.524788341638681
642.413793,,0.003703089885836999,642.169,0.503000020980835,-2.5051652459056357
642.87931,,0.0015992832248472217,642.63,0.414000004529953,-2.6990204460964224
643.344828,,0.00122875430185492,643.1,0.515999972820282,-2.4767276210187634
643.810345,,0.0017172085427655237,643.563,0.5040000081062317,-2.5027754968845217
644.275862,,0.0015623310717118944,644.025,0.49399998784065247,-2.5244432555884044
644.7413789999999,,0.0003000057330774346,644.492,0.5120000243186951,-2.4850901671184356
645.206897,,0.0011916928706952005,644.955,0.515999972820282,-2.476223871286089
645.672414,,0.0019382226051717951,645.421,0.5080000162124634,-2.4934913139180686
646.1379310000001,,0.0018479000186737064,645.885,0.5049999952316284,-2.4998612834739546
646.6034480000001,,0.0013779413596835264,646.351,0.49900001287460327,-2.5127683579630293
647.0689659999999,,0.000895552889364758,646.818,0.5180000066757202,-2.4712155049882467
647.534483,,0.0007787032400762662,647.284,0.5170000195503235,-2.4732460504869374
648.0,,0.0016622242898446452,647.748,0.4950000047683716,-2.5210432087445582
648.465517,,0.003866530920755128,648.214,0.5170000195503235,-2.4729989075152905
648.931034,,0.006563173770533473,648.674,0.503000020980835,-2.5034081728298876
649.396552,,0.008137049261321156,649.145,0.5170000195503235,-2.4728396664983836
649.862069,,0.00779675378201393,649.607,0.5090000033378601,-2.490227341203383
650.327586,,0.006550945897786633,650.07,0.4749999940395355,-2.5642871597855224
650.7931030000001,,0.006117274167466628,650.537,0.503000020980835,-2.5032986801247006
651.258621,,0.006903034686467687,650.999,0.515999972820282,-2.4750164284272613
651.7241379999999,,0.007501489193019887,651.465,0.5170000195503235,-2.4729011829661665
652.189655,,0.006317993791092493,651.929,0.5540000200271606,-2.392374557422688
652.655172,,0.00335815193045844,652.395,0.515999972820282,-2.475262843661083
653.12069,,0.00020694385562316576,652.86,0.5139999985694885,-2.479733018328025
653.5862070000001,,0.0015309237386627098,653.325,0.5009999871253967,-2.5081791003649045
654.051724,,0.0016156841286708936,653.792,0.5149999856948853,-2.477808576753746
654.517241,,0.001240372092801293,654.258,0.5090000033378601,-2.4910136473166795
654.982759,,0.0019009759769002094,654.726,0.515999972820282,-2.4758947529025863
655.448276,,0.004039228963663935,655.189,0.5339999794960022,-2.4368045592877445
655.9137929999999,,0.006644991666321488,655.652,0.5149999856948853,-2.4783142023222444
656.37931,,0.008270070804841656,656.114,0.5090000033378601,-2.491488450379817
656.844828,,0.008478203034521997,656.582,0.4339999854564667,-2.6549758842159443
657.310345,,0.008150768811679901,657.045,0.5120000243186951,-2.485115334444669
657.7758620000001,,0.008326330517674617,657.511,0.5149999856948853,-2.4786356731272665
658.241379,,0.008996202005551474,657.974,0.5059999823570251,-2.498279026588205
658.7068969999999,,0.009237621841161617,658.439,0.5040000081062317,-2.5026507289144644
659.172414,,0.008368183054854551,658.908,0.515999972820282,-2.47650044430694
659.637931,,0.006687696919390947,659.373,0.5170000195503235,-2.4742942974362205
660.103448,,0.005017491400499515,659.838,0.5139999985694885,-2.480783132795473
660.568966,,0.0037031916981015763,660.303,0.5210000276565552,-2.4654674296317585
661.034483,,0.0023293315378266764,660.77,0.5019999742507935,-2.506781387751771
661.5,,0.00041978768862053264,661.235,0.5180000066757202,-2.4718301383152785
661.965517,,0.0018894533990824606,661.696,0.5049999952316284,-2.5000506547610954
662.4310340000001,,0.0040562256797995935,662.159,0.5090000033378601,-2.49122839822114
662.8965519999999,,0.005734696354524702,662.629,0.5049999952316284,-2.4998332938841616
663.362069,,0.006826973486913475,663.092,0.5120000243186951,-2.4844742582266255
663.827586,,0.007144067432796165,663.559,0.5139999985694885,-2.480012952525366
664.293103,,0.006648608244899357,664.021,0.5019999742507935,-2.5060601986913764
664.7586210000001,,0.006123007565702214,664.487,0.5170000195503235,-2.4732941364444865
665.224138,,0.006725521543702598,664.952,0.503000020980835,-2.5037216787429513
665.689655,,0.008261144789137342,665.417,0.5009999871253967,-2.5080203968366788
666.155172,,0.008743790695502391,665.882,0.515999972820282,-2.4752983899176835
666.62069,,0.006838697432327177,666.348,0.5139999985694885,-2.4796300568944014
667.086207,,0.004146917062285408,666.814,0.5049999952316284,-2.4992293354338138
667.5517239999999,,0.003492721077587312,667.28,0.5180000066757202,-2.4709152187417365
668.017241,,0.005100497513575303,667.741,0.5049999952316284,-2.499262146591964
668.482759,,0.006206770049590032,668.206,0.5130000114440918,-2.4818723810800694
668.948276,,0.004803972050729161,668.674,0.5230000019073486,-2.4601384944925804
669.413793,,0.002147130672686163,669.137,0.49000000953674316,-2.5320977127670536
669.87931,,0.0007543163666199462,669.6,0.503000020980835,-2.5038488095830447
670.3448279999999,,0.0011470202582610236,670.07,0.49399998784065247,-2.5235378067748493
670.810345,,0.001658408261759145,670.536,0.5070000290870667,-2.495301012001232
671.275862,,0.0009005461864973321,670.999,0.5080000162124634,-2.4932096381736044
671.7413789999999,,0.0005855117903019838,671.465,0.5210000276565552,-2.464972629105473
672.206897,,0.0012069838004675098,671.93,0.5239999890327454,-2.4585172336932706
672.672414,,0.0002811349276333424,672.389,0.503000020980835,-2.504341938695542
673.137931,,0.0012720219129332135,672.855,0.5099999904632568,-2.4891558209771025
673.6034480000001,,0.0020630004512269995,673.321,0.4950000047683716,-2.5218898176480566
674.068966,,0.0015160711324997457,673.785,0.5149999856948853,-2.4783598138922502
674.5344829999999,,0.00013961344176790412,674.251,0.5049999952316284,-2.5001766547279454
675.0,,0.0024006909730207335,674.719,0.5009999871253967,-2.5089086304537696
675.465517,,0.00434991231362976,675.181,0.5120000243186951,-2.4849478052843073
675.931034,,0.004596888367303512,675.644,0.5320000052452087,-2.441365908886813
676.396552,,0.0024020065456118534,676.114,0.5049999952316284,-2.5001674571624575
676.862069,,0.001126670382801143,676.575,0.5339999794960022,-2.4369528693395393
677.327586,,0.0036117195926617393,677.044,0.4950000047683716,-2.5218762238927055
677.793103,,0.003372740872206852,677.51,0.5120000243186951,-2.4847875288893686
678.2586210000001,,0.0006881240124834237,677.973,0.5080000162124634,-2.493444989157608
678.7241379999999,,0.0027339923010275334,678.438,0.503000020980835,-2.5042775535819337
679.1896549999999,,0.005263691219600561,678.899,0.515999972820282,-2.4758931734586938
679.655172,,0.006343438789650317,679.364,0.4970000088214874,-2.517226053442603
680.12069,,0.006270910421111923,679.829,0.503000020980835,-2.5040957423537056
680.5862070000001,,0.005425354966198377,680.295,0.515999972820282,-2.4757196625330824
681.051724,,0.004040798069487115,680.759,0.4950000047683716,-2.521423446119285
