Trial: ,47
Threshold: ,0.0
Maximum EMG: ,0.11094579124119093
Success: ,True

EMG Time,Raw EMG,Filtered EMG,Force Time,Raw Force (V),Filtered Force (N)
0.0,samples,2.531464218514885e-06,0.467,0.46799999475479126,-2.580921706795474
0.46551699999999996,time,2.6248724069114334e-06,0.933,0.47600001096725464,-2.5633481251760717
0.9310339999999999,value,2.7129591079225943e-06,1.397,0.46399998664855957,-2.589334857428073
1.396552,,2.7951805415594182e-06,1.859,0.4519999921321869,-2.615314172561383
1.862069,,2.870990348263516e-06,2.33,0.46799999475479126,-2.5802894571800707
2.327586,,2.939841424838355e-06,2.792,0.47600001096725464,-2.562696701350202
2.793103,,3.0011878423212532e-06,3.256,0.4620000123977661,-2.593041821270435
3.258621,,3.0544868424992946e-06,3.726,0.4790000021457672,-2.5558613441486724
3.724138,,3.0992009093496977e-06,4.184,0.4569999873638153,-2.603665256563437
4.189654999999999,,3.1347999112575165e-06,4.655,0.47600001096725464,-2.562165679689409
4.655172,,3.1607633094321737e-06,5.121,0.49000000953674316,-2.531583412412841
5.12069,,3.1765824275106496e-06,5.585,0.4699999988079071,-2.575101378160279
5.586207,,3.181762776900615e-06,6.044,0.4650000035762787,-2.5859681452481507
6.051723999999999,,3.1758264319828958e-06,6.516,0.4779999852180481,-2.5576491504520913
6.517241,,3.158314448860992e-06,6.974,0.45500001311302185,-2.607791393632853
6.982759,,3.1287893209175516e-06,7.441,0.46299999952316284,-2.590425150579441
7.448276,,3.086837464015433e-06,7.907,0.4699999988079071,-2.575265252643152
7.913793000000001,,3.0320717237659903e-06,8.375,0.46799999475479126,-2.579737839804029
8.379309999999998,,2.964133896881345e-06,8.837,0.46700000762939453,-2.5820528354109746
8.844828000000001,,2.8826972582324305e-06,9.3,0.4580000042915344,-2.6018142164619964
9.310345,,2.78746908485243e-06,9.77,0.46299999952316284,-2.591087183126602
9.775862,,2.678193167757769e-06,10.234,0.46399998664855957,-2.589082219330199
10.241379,,2.554652302108055e-06,10.696,0.46399998664855957,-2.589257750824817
10.706897,,2.4166707458941963e-06,11.162,0.45500001311302185,-2.6090375487916613
11.172414,,2.2641166370324187e-06,11.627,0.49000000953674316,-2.532947541204133
11.637931,,2.0969043584529802e-06,12.092,0.45100000500679016,-2.618062662508299
12.103447999999998,,1.91499684050813e-06,12.56,0.4880000054836273,-2.5375808814853804
12.568966000000001,,1.718407789786205e-06,13.025,0.45399999618530273,-2.6117595077686815
13.034483,,1.5072038332097702e-06,13.489,0.47600001096725464,-2.5639067774567628
13.5,,1.2815065661173027e-06,13.955,0.45899999141693115,-2.600992058305267
13.965517,,1.0414944928821272e-06,14.42,0.46700000762939453,-2.583580067048196
14.431034,,7.874048485109802e-07,14.885,0.46000000834465027,-2.5988163452018425
14.896552,,5.195352895896557e-07,15.349,0.46399998664855957,-2.5900563581450347
15.362069,,2.3824544290648335e-07,15.811,0.4659999907016754,-2.585623653490325
15.827586000000002,,5.6041699912311315e-08,16.275,0.4749999940395355,-2.5659123408220195
16.293103,,3.6283855337628875e-07,16.745,0.46000000834465027,-2.5984635382010124
16.758621,,6.815918862460556e-07,17.21,0.46299999952316284,-2.5917783085981747
17.224138,,1.0116819581893317e-06,17.674,0.47600001096725464,-2.5632902685729766
17.689655,,1.3524218561973572e-06,18.14,0.45899999141693115,-2.6001504015267285
18.155172,,1.7030570417537265e-06,18.605,0.45899999141693115,-2.59996798997256
18.62069,,2.0627651194712927e-06,19.07,0.46399998664855957,-2.588892810425128
19.086207,,2.4306558375862125e-06,19.534,0.4690000116825104,-2.577823464616113
19.551724,,2.805771330320494e-06,19.999,0.45500001311302185,-2.6081599359760217
20.017241000000002,,3.187086611694703e-06,20.464,0.45100000500679016,-2.616727085691002
20.482758999999998,,3.5735103298900773e-06,20.93,0.46399998664855957,-2.5882792251325735
20.948276,,3.96388579072361e-06,21.393,0.4690000116825104,-2.577285963114844
21.413793000000002,,4.356992258210355e-06,21.855,0.460999995470047,-2.5946436638488954
21.87931,,4.751546539543988e-06,22.323,0.47200000286102295,-2.5706377530732474
22.344828,,5.146204861129549e-06,22.785,0.47699999809265137,-2.5597355810924314
22.810344999999998,,5.539565041551434e-06,23.253,0.4620000123977661,-2.5924384805117104
23.275862,,5.930168966555424e-06,23.715,0.4620000123977661,-2.592493706804446
23.741379,,6.31650537026649e-06,24.181,0.4749999940395355,-2.56425704530628
24.206897,,6.697012925954921e-06,24.647,0.46299999952316284,-2.5905142969283275
24.672414,,7.07008364870313e-06,25.113,0.4690000116825104,-2.577580289622392
25.137931,,7.434066611315395e-06,25.574,0.4690000116825104,-2.577738487500258
25.603448,,7.787271973754319e-06,26.039,0.4560000002384186,-2.6062347575689704
26.068966,,8.127975325282596e-06,26.504,0.4690000116825104,-2.578096630400536
26.534483,,8.454422337338652e-06,26.97,0.4749999940395355,-2.565213610615272
27.0,,8.764833723982124e-06,27.435,0.4560000002384186,-2.606795312044128
27.465517,,9.057410505512253e-06,27.9,0.4620000123977661,-2.593903972749739
27.931034,,9.330339569591803e-06,28.37,0.48399999737739563,-2.5461415773281653
28.396552,,9.581799522904036e-06,28.833,0.4699999988079071,-2.576791835210646
28.862069,,9.809966825033658e-06,29.295,0.45899999141693115,-2.600883087021531
29.327586,,1.0013022194897952e-05,29.764,0.4650000035762787,-2.587910732522044
29.793103000000002,,1.01891572786651e-05,30.227,0.4819999933242798,-2.5509432101802116
30.258620999999998,,1.0336581566686975e-05,30.689,0.4690000116825104,-2.5793022308803426
30.724138,,1.0453529545547541e-05,31.154,0.45899999141693115,-2.601091602703782
31.189655000000002,,1.0538268069889765e-05,31.62,0.4819999933242798,-2.550951681888398
31.655172000000004,,1.058910393723829e-05,32.085,0.46000000834465027,-2.5988176936875744
32.12069,,1.060439164758688e-05,32.553,0.4620000123977661,-2.5943651144698556
32.586207,,1.0582541328073812e-05,33.018,0.46399998664855957,-2.589884697682764
33.051724,,1.0522026801630245e-05,33.482,0.48899999260902405,-2.5352704944162436
33.517241000000006,,1.0421393777061596e-05,33.948,0.4650000035762787,-2.5873892692531504
33.982759,,1.0279268136615856e-05,34.42,0.47600001096725464,-2.563239896127795
34.448276,,1.0094364295711173e-05,34.878,0.46000000834465027,-2.597904657259619
34.913793,,9.865493608144126e-06,35.341,0.45100000500679016,-2.6173160143856813
35.37931,,9.591572788785915e-06,35.804,0.4429999887943268,-2.6345527662352537
35.844828,,9.271632324502536e-06,36.274,0.46399998664855957,-2.5886187040874664
36.310345,,8.904824842813304e-06,36.737,0.46399998664855957,-2.588451307671026
36.775862,,8.490433406636257e-06,37.203,0.46000000834465027,-2.597018343428387
37.241378999999995,,8.027879702365582e-06,37.666,0.4699999988079071,-2.575108763777224
37.706897000000005,,7.516732087491997e-06,38.131,0.4659999907016754,-2.5837282722975683
38.172414,,6.956713463018494e-06,38.597,0.4650000035762787,-2.5858427449994457
38.637931,,6.347708935047871e-06,39.062,0.45399999618530273,-2.6097770657694292
39.103448,,5.6897732291316165e-06,39.526,0.47600001096725464,-2.56185025934581
39.568965999999996,,4.983137820278704e-06,39.992,0.46299999952316284,-2.5902101665731565
40.034483,,4.228217740934166e-06,40.457,0.5040000081062317,-2.5009551412457878
40.5,,3.425618028757644e-06,40.922,0.45899999141693115,-2.5990936936449804
40.965517,,2.576139775667726e-06,41.385,0.47999998927116394,-2.553468666640044
41.431034,,1.6807857393752052e-06,41.855,0.4729999899864197,-2.5688695709808402
41.896552,,7.40765478513349e-07,42.315,0.46399998664855957,-2.588647126296907
42.362069000000005,,2.4250002750798186e-07,42.785,0.45100000500679016,-2.6171542369265226
42.827586000000004,,1.2673743126394672e-06,43.249,0.4650000035762787,-2.586847724284694
43.293103,,2.332001950732889e-06,43.711,0.4580000042915344,-2.602296674580651
43.758621,,3.4343057124443453e-06,44.177,0.4519999921321869,-2.6155649093258915
44.224138,,4.5719843898515184e-06,44.641,0.46399998664855957,-2.589609456745988
44.689655,,5.742511325369152e-06,45.106,0.4659999907016754,-2.5854262875379597
45.155172,,6.943133680616099e-06,45.571,0.4620000123977661,-2.5942951313543654
45.620689999999996,,8.170872479789167e-06,46.036,0.4790000021457672,-2.557387509540738
46.086206999999995,,9.422523460830262e-06,46.501,0.47600001096725464,-2.5640233188764636
46.551724,,1.0694658766231128e-05,46.966,0.47200000286102295,-2.5728049700954134
47.017241,,1.1983629503701924e-05,47.434,0.4519999921321869,-2.6164105629258207
47.482759,,1.3285569205134187e-05,47.899,0.4790000021457672,-2.557584327440997
47.948276,,1.4596398210314135e-05,48.36,0.4620000123977661,-2.594583009052718
48.413793,,1.5911828999687945e-05,48.829,0.4650000035762787,-2.5879742071153493
48.879310000000004,,1.722737249814673e-05,49.29,0.45100000500679016,-2.6183704444617044
49.344828,,1.853834536928584e-05,49.76,0.4729999899864197,-2.5703065007506103
49.810345,,1.9839878316902042e-05,50.223,0.45899999141693115,-2.6006487092066455
50.275862,,2.112692540762511e-05,50.685,0.46399998664855957,-2.589576172199724
50.741379,,2.2394274425539882e-05,51.15,0.515999972820282,-2.476091206903803
51.206897,,2.363655826644423e-05,51.615,0.46399998664855957,-2.5891746254769
51.672414,,2.4848267376011854e-05,52.08,0.503000020980835,-2.5039964258683227
52.137931,,2.6023763232591228e-05,52.545,0.46399998664855957,-2.5887553190386634
52.603448,,2.715729287167897e-05,53.011,0.46399998664855957,-2.5885563935913045
53.068966,,2.824300444526365e-05,53.474,0.5170000195503235,-2.4729045927328417
53.534483,,2.9274963805252202e-05,53.94,0.46299999952316284,-2.590388863614029
54.0,,3.0247172096073635e-05,54.408,0.45399999618530273,-2.6098608494035096
54.465517,,3.115358433731222e-05,54.871,0.4620000123977661,-2.5923283916083144
54.931034,,3.198812897286496e-05,55.334,0.38600000739097595,-2.7578398845762058
55.396552,,3.274472835865626e-05,55.804,0.4580000042915344,-2.6009522203353725
55.862069,,3.341732015638754e-05,56.267,0.4779999852180481,-2.557394488416118
56.327586,,3.399987959616357e-05,56.73,0.4699999988079071,-2.5748765986765445
56.793102999999995,,3.44864425661335e-05,57.196,0.46299999952316284,-2.590216240517091
57.258621000000005,,3.4871129482526655e-05,57.666,0.46299999952316284,-2.5903391373598743
57.724138,,3.514816988866574e-05,58.124,0.45899999141693115,-2.5992068207730594
58.189655,,3.531192772671876e-05,58.589,0.4659999907016754,-2.584134746128348
58.655172,,3.5356927221121475e-05,59.055,0.4790000021457672,-2.5560101183755517
59.120689999999996,,3.527787930778218e-05,59.52,0.45899999141693115,-2.59979387890736
59.586207,,3.506970853838649e-05,59.985,0.4860000014305115,-2.5411873842639077
60.051724,,3.472758038437094e-05,60.452,0.4620000123977661,-2.5936913128723362
60.517241,,3.424692886044871e-05,60.918,0.46799999475479126,-2.580828648802221
60.982758999999994,,3.362348438296839e-05,61.381,0.4650000035762787,-2.587560326494296
61.448276,,3.2853301773887406e-05,61.844,0.4650000035762787,-2.587736500128124
61.913793,,3.193278831676591e-05,62.312,0.4580000042915344,-2.6031383012835247
62.379310000000004,,3.085873176695544e-05,62.774,0.4620000123977661,-2.594545456186979
62.84482800000001,,2.9628328214091364e-05,63.245,0.4860000014305115,-2.542345859068999
63.310345000000005,,2.823920969111969e-05,63.707,0.46399998664855957,-2.590326968367245
63.775862000000004,,2.6689471420420368e-05,64.173,0.4790000021457672,-2.557659296260174
64.241379,,2.4977698584151435e-05,64.637,0.46799999475479126,-2.5815975209472595
64.706897,,2.3102992502755068e-05,65.103,0.47600001096725464,-2.5641031452482554
65.172414,,2.1064996102658765e-05,65.568,0.4560000002384186,-2.6075751205382702
65.637931,,1.8863918551595594e-05,66.033,0.45399999618530273,-2.6117993175530754
66.103448,,1.650055893767866e-05,66.5,0.48899999260902405,-2.535385373374184
66.56896599999999,,1.397632886641852e-05,66.959,0.47600001096725464,-2.5635224368640968
67.03448300000001,,1.1293273848290022e-05,67.43,0.45899999141693115,-2.6003560342714005
67.5,,8.454093348258572e-06,67.895,0.46399998664855957,-2.5892483530157264
67.965517,,5.462159367885697e-06,68.356,0.4410000145435333,-2.6391391119315664
68.431034,,2.3215334302706364e-06,68.825,0.3869999945163727,-2.756573033511858
68.896552,,9.630181618319086e-07,69.286,0.46399998664855957,-2.5886164146600867
69.362069,,4.386010923828634e-06,69.755,0.3840000033378601,-2.762725937135949
69.827586,,7.94123077111701e-06,70.214,0.47200000286102295,-2.5708460388525416
70.293103,,1.16217247114712e-05,70.68,0.45100000500679016,-2.616465744586464
70.75862099999999,,1.541979377247748e-05,71.145,0.4749999940395355,-2.564075564759629
71.22413800000001,,1.9326988285928704e-05,71.611,0.45899999141693115,-2.598863306301854
71.689655,,2.3334105647958078e-05,72.077,0.4440000057220459,-2.6315066770001567
72.15517200000001,,2.743119067000446e-05,72.541,0.45100000500679016,-2.6162557215368833
72.62069,,3.160753863144414e-05,73.007,0.4729999899864197,-2.568360374639988
73.086207,,3.585170113988763e-05,73.474,0.4740000069141388,-2.5662496606315606
73.551724,,4.015149489971699e-05,73.94,0.45500001311302185,-2.6077426958404275
74.017241,,4.449401348342318e-05,74.4,0.47200000286102295,-2.570832396725187
74.482759,,4.8865642193690086e-05,74.87,0.46399998664855957,-2.5884122995575747
74.94827599999999,,5.32520760969597e-05,75.334,0.46299999952316284,-2.5907609649542853
75.41379300000001,,5.7638341301401474e-05,75.796,0.4699999988079071,-2.5756947710938536
75.87931,,6.200881954379958e-05,76.264,0.46399998664855957,-2.5889597118323144
76.344828,,6.634727614086902e-05,76.726,0.4620000123977661,-2.5935130567372915
76.810345,,7.063689135092183e-05,77.192,0.47600001096725464,-2.563205315278929
77.275862,,7.48602951816367e-05,77.655,0.47200000286102295,-2.572104462908921
77.741379,,7.899960566895013e-05,78.121,0.4620000123977661,-2.5940613988980177
78.206897,,8.303647064079852e-05,78.585,0.46700000762939453,-2.5833200426145804
78.67241399999999,,8.695211296761487e-05,79.051,0.46399998664855957,-2.5899850936344744
79.137931,,9.072737928913951e-05,79.516,0.4819999933242798,-2.5508717129392955
79.603448,,9.434279219426342e-05,79.981,0.4790000021457672,-2.5574798791453217
80.068966,,9.777860581730908e-05,80.445,0.4390000104904175,-2.644666643847048
80.53448300000001,,0.00010101486480039432,80.91,0.4749999940395355,-2.566244644489592
81.0,,0.00010403146655734917,81.378,0.47699999809265137,-2.561864537499318
81.465517,,0.00010680822676009686,81.841,0.45500001311302185,-2.6097404209947146
81.931034,,0.0001093249479535024,82.304,0.4650000035762787,-2.5878704358586466
82.396552,,0.00011156149118947422,82.774,0.41100001335144043,-2.7054085031370656
82.86206899999999,,0.00011349785055561634,83.238,0.48100000619888306,-2.5527724868593915
83.327586,,0.00011511423045801344,83.7,0.4690000116825104,-2.578766546598642
83.79310299999999,,0.00011639112550183709,84.165,0.46000000834465027,-2.598209226411144
84.258621,,0.00011730940279743311,84.63,0.4659999907016754,-2.584961993890095
84.72413800000001,,0.000117850386503443,85.096,0.47200000286102295,-2.571709383391995
85.189655,,0.00011799594440237732,85.563,0.47600001096725464,-2.5628135423831644
85.65517200000001,,0.00011772857628795323,86.029,0.46399998664855957,-2.588780773049367
86.12069,,0.00011703150392748974,86.493,0.4410000145435333,-2.638723492437419
86.586207,,0.00011588876234678371,86.959,0.5139999985694885,-2.4795308731806354
87.051724,,0.00011428529216922948,87.424,0.4650000035762787,-2.5861511895877154
87.517241,,0.00011220703272556013,87.89,0.4569999873638153,-2.603469100143234
87.98275899999999,,0.00010964101563554469,88.353,0.47999998927116394,-2.553274943573799
88.448276,,0.00010657545854834195,88.815,0.4620000123977661,-2.5924334701253766
88.913793,,0.00010299985871405578,89.285,0.460999995470047,-2.594584995747294
89.37931,,9.890508604543079e-05,89.748,0.47600001096725464,-2.5619088157532492
89.844828,,9.42834753156426e-05,90.214,0.4490000009536743,-2.620766495420857
90.310345,,8.912891712584593e-05,90.68,0.46799999475479126,-2.579436151071705
90.775862,,8.34369472646194e-05,91.146,0.46299999952316284,-2.5904211718501884
91.241379,,7.720483407076263e-05,91.604,0.4729999899864197,-2.56875120300356
91.706897,,7.043166340113209e-05,92.07,0.46399998664855957,-2.588496724512658
92.17241399999999,,6.311842079642063e-05,92.541,0.47999998927116394,-2.553792989539267
92.63793100000001,,5.526807043006603e-05,92.999,0.47999998927116394,-2.553959707591829
93.103448,,4.68856304188873e-05,93.464,0.4659999907016754,-2.584634724171086
93.568966,,3.7978244068666923e-05,93.93,0.492000013589859,-2.528165993761914
94.03448300000001,,2.855524662379217e-05,94.4,0.44999998807907104,-2.619842849385806
94.5,,1.862822708730871e-05,94.862,0.45500001311302185,-2.6091164956140824
94.965517,,8.211084676391089e-06,95.33,0.47200000286102295,-2.5722353994193004
95.431034,,2.67992052163739e-06,95.792,0.45100000500679016,-2.6181271581764265
95.896552,,1.4026123125935994e-05,96.256,0.46299999952316284,-2.5921039800195187
96.36206899999999,,2.5806414701364957e-05,96.726,0.47200000286102295,-2.572593536449585
96.827586,,3.7997213085307465e-05,97.184,0.4819999933242798,-2.550877742335367
97.293103,,5.057243922048533e-05,97.655,0.4749999940395355,-2.5661698105693627
97.758621,,6.350350190377615e-05,98.114,0.4779999852180481,-2.559645119604924
98.224138,,7.675929085085711e-05,98.585,0.45899999141693115,-2.601020499996916
98.689655,,9.030617846447726e-05,99.051,0.4749999940395355,-2.566113947784447
99.155172,,0.000104108030680261,99.516,0.4729999899864197,-2.570395113156179
99.62069,,0.00011812622724814051,99.974,0.47699999809265137,-2.5615783147445
100.086207,,0.00013231969178978045,100.442,0.47999998927116394,-2.5549169858138163
100.551724,,0.00014664493195267508,100.908,0.48899999260902405,-2.5351638334687117
101.017241,,0.0001610560899599543,101.371,0.47200000286102295,-2.5720398305979453
101.482759,,0.00017550500383132543,101.84,0.4569999873638153,-2.604548346998938
101.948276,,0.00018994127952500186,102.301,0.43799999356269836,-2.6457674234999975
102.413793,,0.00020431237422293848,102.771,0.4749999940395355,-2.5649835469725604
102.87931,,0.0002185636909522206,103.234,0.49000000953674316,-2.532134990582231
103.344828,,0.00023263868470406384,103.696,0.4560000002384186,-2.6060495759336657
103.810345,,0.0002464789801786046,104.162,0.46399998664855957,-2.5884755761705667
104.275862,,0.000260024501248538,104.626,0.4779999852180481,-2.557848520075834
104.741379,,0.0002732136121977383,105.092,0.45100000500679016,-2.6165682890295643
105.206897,,0.0002859832707523333,105.557,0.4740000069141388,-2.5663811073777545
105.672414,,0.00029826919288136256,106.022,0.46399998664855957,-2.5881168545632174
106.13793100000001,,0.00031000602930220664,106.489,0.47699999809265137,-2.5597721091370618
106.603448,,0.0003211275535825083,106.955,0.4560000002384186,-2.605530595301365
107.068966,,0.00033156686168541897,107.42,0.49000000953674316,-2.5314921030402853
107.534483,,0.000341256582758786,107.886,0.46299999952316284,-2.5903785135497586
108.0,,0.00035012910092146196,108.348,0.46399998664855957,-2.588288489306592
108.46551699999999,,0.00035811678775139196,108.811,0.45899999141693115,-2.5992940206440576
108.931034,,0.00036515224513063984,109.279,0.4569999873638153,-2.603784245833917
109.396552,,0.0003711685580521917,109.741,0.4880000054836273,-2.5363953287386884
109.862069,,0.0003760995569423697,110.207,0.47200000286102295,-2.5714141382731315
110.32758600000001,,0.0003798800890011608,110.67,0.4519999921321869,-2.6151544920790397
110.793103,,0.00038244629801087546,111.135,0.4699999988079071,-2.5761089689717984
111.258621,,0.00038373591201147135,111.6,0.44699999690055847,-2.6263861565661117
111.724138,,0.0003836885381887942,112.066,0.3490000069141388,-2.8400575922324474
112.189655,,0.0003822459642700858,112.533,0.4620000123977661,-2.594026807623193
112.655172,,0.00037935246566958775,112.999,0.574999988079071,-2.347979617245965
113.12069,,0.0003749551175761309,113.464,0.45100000500679016,-2.618247470901764
113.586207,,0.00036900411112445575,113.93,0.4659999907016754,-2.5856572490612266
114.051724,,0.0003614530727428752,114.393,0.4569999873638153,-2.605328022599344
114.51724100000001,,0.0003522593857219916,114.855,0.47600001096725464,-2.5639678895131155
114.982759,,0.0003413845130027431,115.319,0.4519999921321869,-2.616260039415621
115.448276,,0.00032879432013731123,115.789,0.4699999988079071,-2.5770192569473194
115.913793,,0.0003144593973336101,116.249,0.46399998664855957,-2.5900371548364887
116.37931,,0.00029835537945343085,116.719,0.47200000286102295,-2.572526324752502
116.84482799999999,,0.0002804632627960801,117.184,0.46700000762939453,-2.583312731533744
117.310345,,0.0002607697174637798,117.648,0.47200000286102295,-2.57229057268104
117.77586199999999,,0.00023926739407243493,118.114,0.46700000762939453,-2.583036637949912
118.241379,,0.000215955223541846,118.579,0.45899999141693115,-2.6003050800504655
118.70689700000001,,0.00019083870867328103,119.044,0.5070000290870667,-2.4955597125942393
119.172414,,0.00016393020619979363,119.504,0.47699999809265137,-2.5607437895463554
119.63793100000001,,0.00013524919797606728,119.97,0.49000000953674316,-2.532245763774377
120.103448,,0.00010482254996009968,120.435,0.4729999899864197,-2.5691128963442935
120.568966,,7.268475762882751e-05,120.9,0.46399998664855957,-2.588562147127125
121.034483,,3.887817646400767e-05,121.371,0.46299999952316284,-2.5905990292275103
121.5,,3.4532361437232854e-06,121.833,0.4729999899864197,-2.5686920183695228
121.96551699999999,,3.3531362920760746e-05,122.301,0.460999995470047,-2.5947399939411384
122.431034,,7.20084720533947e-05,122.763,0.46399998664855957,-2.588136112262626
122.896552,,0.00011190233712310116,123.23,0.46299999952316284,-2.5902768118049675
123.362069,,0.00015312846301166667,123.693,0.4699999988079071,-2.575019352282117
123.827586,,0.00019559350103092666,124.159,0.4699999988079071,-2.575043369488849
124.293103,,0.00023919516054701014,124.623,0.4749999940395355,-2.564204090407999
124.758621,,0.00028382214602966404,125.089,0.46299999952316284,-2.590430129635147
125.22413800000001,,0.00032935412070247044,125.555,0.4650000035762787,-2.5861811767414378
125.68965500000002,,0.000375661697925001,126.014,0.4790000021457672,-2.5558111055598047
126.15517200000001,,0.0004226064613822978,126.479,0.46399998664855957,-2.5886402656653504
126.62069000000001,,0.00047004101508389765,126.945,0.4569999873638153,-2.6040544428742005
127.086207,,0.0005178090640956071,127.419,0.4180000126361847,-2.689195866400898
127.55172400000001,,0.0005657455268652308,127.877,0.45399999618530273,-2.610944775516675
128.017241,,0.0006136766799526164,128.345,0.4569999873638153,-2.6045889067379897
128.48275900000002,,0.0006614203358830738,128.807,0.4830000102519989,-2.548116942957225
128.948276,,0.000708786054682342,129.271,0.49000000953674316,-2.533025694192378
129.413793,,0.0007555753895038736,129.741,0.46000000834465027,-2.598525645006724
129.87931,,0.0008015821667515761,130.199,0.46399998664855957,-2.5899293154705147
130.344828,,0.0008465928011635105,130.669,0.4659999907016754,-2.5856647107289854
130.81034499999998,,0.0008903866461393333,131.135,0.4699999988079071,-2.57701420862874
131.275862,,0.0009327363790590507,131.596,0.49000000953674316,-2.533474206821018
131.741379,,0.0009734084210155241,132.062,0.4569999873638153,-2.605370404026172
132.206897,,0.0010121633909383494,132.526,0.460999995470047,-2.5966250701291638
132.67241399999997,,0.0010487565949006215,132.992,0.45399999618530273,-2.6118150778419493
133.13793099999998,,0.0010829385505993765,133.456,0.46399998664855957,-2.589940189274101
133.60344800000001,,0.0011144555443698028,133.921,0.460999995470047,-2.596362409479269
134.06896600000002,,0.0011430502173136652,134.389,0.45100000500679016,-2.618013536533771
134.53448300000002,,0.0011684621815739218,134.852,0.46399998664855957,-2.589538534675538
135.0,,0.0011904286725983905,135.315,0.49000000953674316,-2.532727663535352
135.465517,,0.0012086852375700178,135.785,0.4749999940395355,-2.5652323358479086
135.931034,,0.0012229664454153698,136.249,0.46299999952316284,-2.5911975781681336
136.396552,,0.001233006603315476,136.711,0.46799999475479126,-2.5801285525350677
136.862069,,0.0012385404942562618,137.177,0.4519999921321869,-2.6148197022294855
137.327586,,0.001239304174418809,137.64,0.46000000834465027,-2.5972373171119534
137.793103,,0.0012350358273111523,138.106,0.38999998569488525,-2.7496097792582064
138.258621,,0.0012254765878717958,138.573,0.44200000166893005,-2.636212608438233
138.724138,,0.001210371268830445,139.038,0.46299999952316284,-2.5903813821608477
139.189655,,0.0011894691085124478,139.504,0.4650000035762787,-2.5859726850614284
139.655172,,0.0011625247688384491,139.97,0.4620000123977661,-2.592486359929996
140.12069,,0.0011292995150221198,140.434,0.45899999141693115,-2.59902981800795
140.586207,,0.001089562045743065,140.9,0.46399998664855957,-2.5881733890941128
141.05172399999998,,0.0010430886843721214,141.36,0.46700000762939453,-2.5817020215609676
141.51724099999998,,0.0009896637858979851,141.83,0.48500001430511475,-2.542576060831441
141.982759,,0.0009290816293436693,142.29,0.46399998664855957,-2.588439387337868
142.44827600000002,,0.0008611490438615857,142.76,0.4749999940395355,-2.5646045008227722
142.913793,,0.0007856855502262458,143.223,0.4790000021457672,-2.556034692858329
143.37931,,0.0007025199886820019,143.685,0.4740000069141388,-2.5670826138334104
143.844828,,0.0006114894219448964,144.151,0.4659999907016754,-2.584672035466033
144.310345,,0.0005124470389073078,144.615,0.46000000834465027,-2.5979053492424273
144.77586200000002,,0.00040527251251446514,145.081,0.460999995470047,-2.595885052681016
145.241379,,0.0002898657520126654,145.546,0.46399998664855957,-2.5894996976120215
145.706897,,0.0001661222987731727,146.011,0.48500001430511475,-2.543885913216324
146.172414,,3.392815255322737e-05,146.478,0.45899999141693115,-2.600651751743585
146.637931,,0.0001067922377987153,146.944,0.4650000035762787,-2.5876807624564293
147.103448,,0.00025602561741341467,147.404,0.4790000021457672,-2.5572578040602703
147.568966,,0.00041372709710714743,147.874,0.46700000762939453,-2.583454356929823
148.034483,,0.0005799680695634146,148.337,0.45399999618530273,-2.6118033047608167
148.5,,0.0007549355174265053,148.8,0.4790000021457672,-2.557336909356508
148.965517,,0.0009386263039701136,149.271,0.4690000116825104,-2.579096283039168
149.43103399999998,,0.001130603856393546,149.733,0.46799999475479126,-2.5812218374033393
149.89655199999999,,0.0013304319444250668,150.199,0.4729999899864197,-2.570251319178097
150.362069,,0.0015385204142725649,150.661,0.46299999952316284,-2.5919388290015988
150.82758600000003,,0.0017559073999937089,151.127,0.4830000102519989,-2.548248160421195
151.293103,,0.001982346238246135,151.596,0.4620000123977661,-2.593866868243586
151.758621,,0.0022152270858386107,152.054,0.4779999852180481,-2.5588645059103805
152.224138,,0.0024526504843463397,152.519,0.4690000116825104,-2.578321447202937
152.68965500000002,,0.002698096687871132,152.985,0.46700000762939453,-2.582525687499526
153.155172,,0.0029578306223575685,153.452,0.46299999952316284,-2.5910898768377812
153.62069,,0.0032292310010752115,153.918,0.4659999907016754,-2.5844107232841416
154.086207,,0.003496817266401159,154.382,0.46399998664855957,-2.5886361761016357
154.551724,,0.0037530793862915876,154.844,0.46299999952316284,-2.590698142474505
155.017241,,0.00402326410612617,155.312,0.47200000286102295,-2.5709920462925493
155.482759,,0.004342316474142318,155.774,0.45899999141693115,-2.5992373263747828
155.948276,,0.004685520982355462,156.242,0.4749999940395355,-2.564324907423729
156.413793,,0.004960590753406388,156.705,0.47200000286102295,-2.570831049371303
156.87931,,0.0051439779447140606,157.17,0.46399998664855957,-2.588255353658015
157.34482799999998,,0.005405866570086049,157.637,0.45100000500679016,-2.61659821918101
157.81034499999998,,0.005929550440386019,158.103,0.46399998664855957,-2.588321242978754
158.275862,,0.0065102702779241475,158.568,0.46700000762939453,-2.5818537618514736
158.741379,,0.006606864691847921,159.034,0.47600001096725464,-2.5623347419622897
159.20689700000003,,0.006209956665314495,159.494,0.4620000123977661,-2.592942027234049
159.672414,,0.006434597773489666,159.959,0.46399998664855957,-2.588705376508271
160.137931,,0.008208225611504133,160.424,0.4740000069141388,-2.5670501401960264
160.60344800000001,,0.009920043508922057,160.889,0.46700000762939453,-2.5824384496859025
161.06896600000002,,0.007840172503335886,161.36,0.4729999899864197,-2.5695066830643563
161.534483,,0.0005894793089847069,161.822,0.4659999907016754,-2.5848955550882655
162.0,,0.007744448890076679,162.286,0.46299999952316284,-2.5915642342672687
162.465517,,0.011192996410182126,162.755,0.47200000286102295,-2.572079813716589
162.931034,,0.008277852872894367,163.214,0.47999998927116394,-2.554760821763125
163.396552,,0.0029973409171819105,163.679,0.4749999940395355,-2.5657475260924065
163.862069,,9.001033784249152e-05,164.144,0.5170000195503235,-2.474317690270134
164.327586,,0.0011382579890024953,164.611,0.4740000069141388,-2.568050594670012
164.793103,,0.004784296048924876,165.077,0.46299999952316284,-2.5920440753137135
165.258621,,0.008739968809848588,165.541,0.46399998664855957,-2.589871900233385
165.72413799999998,,0.011018534121373292,166.007,0.4819999933242798,-2.550640795152911
166.189655,,0.010409002568896205,166.471,0.3479999899864197,-2.8425451677574523
166.655172,,0.00718601321907269,166.937,0.46399998664855957,-2.589771787830665
167.12069,,0.003549001390375739,167.4,0.46299999952316284,-2.591884642456972
167.58620699999997,,0.002079969499900623,167.87,0.47600001096725464,-2.5634802488674446
168.051724,,0.0028683458817148426,168.332,0.46399998664855957,-2.5895280830875738
168.517241,,0.003142897718643891,168.794,0.4699999988079071,-2.576348863486318
168.98275900000002,,0.0008639036775467848,169.264,0.49000000953674316,-2.53265989208172
169.44827600000002,,0.002193820252904946,169.726,0.4580000042915344,-2.6022550203423083
169.913793,,0.002354237433178919,170.191,0.4909999966621399,-2.5302358568692487
170.37931,,0.001339382800824877,170.654,0.45899999141693115,-2.5998302054506492
170.844828,,0.005749552696140738,171.12,0.48500001430511475,-2.543067661424579
171.310345,,0.007084222145424193,171.586,0.4650000035762787,-2.5865311584658977
171.775862,,0.004839939181389189,172.052,0.45399999618530273,-2.6103984261786204
172.241379,,0.0018155904924742655,172.519,0.46399998664855957,-2.5885289953272004
172.706897,,0.0006186028564108022,172.984,0.46299999952316284,-2.5906417021524812
173.172414,,0.000994373677780327,173.449,0.4749999940395355,-2.5644504428358252
173.637931,,0.0009611879427455783,173.914,0.45100000500679016,-2.6167102102384265
174.103448,,0.00020118442408121102,174.378,0.46700000762939453,-2.5818447697954205
174.568966,,0.0012126154748412718,174.841,0.46299999952316284,-2.5905730917566387
175.034483,,0.0008929051696554776,175.308,0.46399998664855957,-2.5884282605320057
175.5,,0.0001849592595820097,175.771,0.3630000054836273,-2.8085265203006635
175.96551699999998,,0.0005474484907566674,176.234,0.44999998807907104,-2.619060155156055
176.43103399999998,,0.00036575745552872246,176.703,0.4560000002384186,-2.6060817611759175
176.896552,,0.0015824904340098669,177.169,0.45899999141693115,-2.5996519192693004
177.36206900000002,,0.0014295778240157072,177.634,0.4490000009536743,-2.621553669042322
177.827586,,0.001034412159319606,178.1,0.46399998664855957,-2.5889949030158337
178.293103,,0.004912577384907215,178.564,0.47600001096725464,-2.562973373513022
178.758621,,0.007638125171993509,179.03,0.46299999952316284,-2.5914153687274166
179.224138,,0.006785154974581583,179.489,0.42100000381469727,-2.6830329060716935
179.68965500000002,,0.0023800783355539057,179.955,0.45899999141693115,-2.6003510777217715
180.155172,,0.0025691122595561154,180.42,0.46299999952316284,-2.5917320236742136
180.62069,,0.004482757615032836,180.885,0.4699999988079071,-2.5765620741972386
181.086207,,0.0024735134265834193,181.356,0.4620000123977661,-2.5940544525241687
181.551724,,0.0011232591651269843,181.819,0.46799999475479126,-2.581026829345918
182.01724099999998,,0.0034471031921614456,182.282,0.4699999988079071,-2.5766936155258033
182.482759,,0.0036287833978809166,182.745,0.47999998927116394,-2.5549103138104665
182.948276,,0.002500790672670735,183.21,0.4569999873638153,-2.6050017680649993
183.413793,,0.0008674194464684239,183.674,0.4300000071525574,-2.6637891904019977
183.87931,,0.001017900272662009,184.14,0.4620000123977661,-2.5940200257495007
184.34482799999998,,0.002675405808637712,184.607,0.4699999988079071,-2.5765231879534785
184.81034499999998,,0.003152412958992817,185.073,0.47600001096725464,-2.5633695612039245
185.27586200000002,,0.0019028727187108845,185.537,0.46299999952316284,-2.591598831523019
185.74137900000002,,0.000430605538349285,186.003,0.4779999852180481,-2.558817526524561
186.206897,,0.0023412402480988306,186.468,0.4729999899864197,-2.569603752068364
186.672414,,0.0025858640207107146,186.933,0.4729999899864197,-2.5694945823531263
187.137931,,0.0011130762702410099,187.401,0.4580000042915344,-2.6020667134823516
187.60344800000001,,0.0010625778210526,187.863,0.47600001096725464,-2.562748539865545
188.06896600000002,,0.0029237109632408477,188.326,0.46399998664855957,-2.5887979251431728
188.534483,,0.004177722331341158,188.789,0.4650000035762787,-2.586535676673335
189.0,,0.004843818743150312,189.257,0.4650000035762787,-2.586465608056642
189.465517,,0.004703295084395848,189.72,0.46000000834465027,-2.5973042963847304
189.931034,,0.0037089326182874484,190.185,0.46399998664855957,-2.5885522684283053
190.39655199999999,,0.0025106659734918384,190.656,0.4790000021457672,-2.5558526274496427
190.862069,,0.0018863525521603047,191.114,0.46700000762939453,-2.581994055141386
191.327586,,0.0018689296941026964,191.582,0.46299999952316284,-2.590723862643373
191.793103,,0.002004303727016397,192.047,0.46700000762939453,-2.58204153457457
192.25862099999998,,0.002213605081317878,192.511,0.4749999940395355,-2.564660258340534
192.72413799999998,,0.002750594327743472,192.977,0.47600001096725464,-2.5625429433351843
193.189655,,0.0034201828035927188,193.441,0.45399999618530273,-2.610546235986032
193.655172,,0.0034495555815391844,193.907,0.45500001311302185,-2.608450499190734
194.12069000000002,,0.0022812017357240863,194.375,0.4690000116825104,-2.578039744440541
194.586207,,0.00031847497544400607,194.837,0.5059999823570251,-2.4975233638801857
195.051724,,0.0011308429824795475,195.301,0.47099998593330383,-2.5738689733599687
195.517241,,0.0007994243885867962,195.77,0.47999998927116394,-2.5543509573251635
195.98275900000002,,0.0013025841753884191,196.234,0.4580000042915344,-2.6023660619126034
196.448276,,0.0035794047794633966,196.696,0.45500001311302185,-2.608980133901642
196.913793,,0.0040744831393224835,197.162,0.4690000116825104,-2.5785485380987097
197.37931,,0.0021790110029057327,197.627,0.47699999809265137,-2.5611776732018434
197.844828,,0.0007873747242704092,198.092,0.45100000500679016,-2.617868020392198
198.310345,,0.0026175085283678522,198.559,0.47999998927116394,-2.5547190352870683
198.775862,,0.001985581691748741,199.025,0.45100000500679016,-2.6179171974985898
199.241379,,0.0004898009103636489,199.49,0.4749999940395355,-2.5656323937689844
199.706897,,0.0027296533257304546,199.949,0.47200000286102295,-2.5721563325618915
200.172414,,0.002828683658389572,200.423,0.46399998664855957,-2.5895592531175526
200.63793099999998,,0.0005983455932809896,200.882,0.46700000762939453,-2.582983968995091
201.103448,,0.002228143158689458,201.345,0.46700000762939453,-2.582933142369495
201.568966,,0.003513744782378532,201.815,0.4699999988079071,-2.5763364667418935
202.034483,,0.002641773848326869,202.278,0.46299999952316284,-2.591518355322264
202.5,,0.0007017005289005492,202.741,0.43799999356269836,-2.645910903827994
202.965517,,0.0011931946884134476,203.206,0.4749999940395355,-2.5652248026054134
203.431034,,0.0029811709079191596,203.67,0.46700000762939453,-2.582577022306679
203.896552,,0.00459229602416031,204.135,0.46399998664855957,-2.5890371251684967
204.36206900000002,,0.004675801536575335,204.6,0.4790000021457672,-2.556284682830048
204.827586,,0.0017849812301061366,205.065,0.4620000123977661,-2.593254114773499
205.293103,,0.002917426187911214,205.531,0.515999972820282,-2.475545869262813
205.758621,,0.005581873179321582,205.996,0.47600001096725464,-2.562637527544706
206.224138,,0.0036733808067396126,206.463,0.46399998664855957,-2.588736405476999
206.689655,,0.0006580763700077175,206.929,0.4749999940395355,-2.564737779449143
207.155172,,0.0027920546845529573,207.389,0.46700000762939453,-2.5821458266092874
207.62069,,0.0009059770736554359,207.859,0.47600001096725464,-2.562529649240422
208.086207,,0.002501937365827429,208.322,0.46399998664855957,-2.588678122780713
208.551724,,0.004133716765401728,208.785,0.46299999952316284,-2.5908743711144684
209.01724099999998,,0.0032410010263363123,209.253,0.46399998664855957,-2.5887259657665185
209.482759,,0.0012266872058624627,209.715,0.47200000286102295,-2.5713383370993896
209.948276,,0.0004543740367614279,210.181,0.4699999988079071,-2.575746974137531
210.413793,,0.0009842652572387444,210.647,0.5339999794960022,-2.436371603082966
210.87930999999998,,0.00024387828562957286,211.112,0.46700000762939453,-2.5824030876688475
211.344828,,0.003219329798992252,211.578,0.4620000123977661,-2.593361854691621
211.810345,,0.0063565972654096295,212.043,0.4749999940395355,-2.565107784703515
212.27586200000002,,0.007100652992952606,212.508,0.46299999952316284,-2.5913205709253067
212.741379,,0.00435096798161817,212.974,0.3569999933242798,-2.8223273056782703
213.206897,,9.432350375901597e-05,213.438,0.460999995470047,-2.5958187624562665
213.672414,,0.0021286055794379095,213.904,0.4699999988079071,-2.576278687849836
214.137931,,0.0009087088712963268,214.367,0.47999998927116394,-2.554552138539495
214.60344800000001,,0.0012104458527048606,214.83,0.4519999921321869,-2.615604426769263
215.068966,,0.0004189396185306343,215.3,0.46299999952316284,-2.5916786120637574
215.534483,,0.0039278493841336205,215.763,0.460999995470047,-2.59606334748262
216.0,,0.008511943366347237,216.226,0.4569999873638153,-2.604792488730152
216.465517,,0.009678921161309497,216.689,0.46299999952316284,-2.59172173115161
216.93103399999998,,0.006772142065821996,217.154,0.47200000286102295,-2.572101240335924
217.39655199999999,,0.0017345796168862853,217.62,0.46399998664855957,-2.589504036533077
217.862069,,0.003293104405229906,218.085,0.45899999141693115,-2.600358027899293
218.327586,,0.007083830314599098,218.553,0.46399998664855957,-2.5894141479169996
218.793103,,0.008726968241757092,219.018,0.46299999952316284,-2.591532182076684
219.25862099999998,,0.007357692274750898,219.483,0.46799999475479126,-2.580570119232443
219.724138,,0.003148264976403585,219.948,0.46299999952316284,-2.5913883384670138
220.18965500000002,,0.002033697770904815,220.411,0.4699999988079071,-2.5760588892060556
220.65517200000002,,0.005740310819491707,220.874,0.45500001311302185,-2.6086583916211334
221.12069,,0.0066961831184291715,221.341,0.47699999809265137,-2.560649191960169
221.586207,,0.005269996792768158,221.804,0.47600001096725464,-2.5627521097490082
222.051724,,0.0026279611022172926,222.275,0.4690000116825104,-2.5779323929994966
222.517241,,0.00019979196644955496,222.737,0.4620000123977661,-2.5931208347441985
222.98275900000002,,0.00265881822463535,223.203,0.48500001430511475,-2.5429599871026145
223.448276,,0.004506412119086018,223.666,0.47600001096725464,-2.5625273248270504
223.913793,,0.005585508274629081,224.131,0.46700000762939453,-2.582107575656014
224.37931,,0.005900529772960454,224.597,0.4620000123977661,-2.5929877798691825
224.844828,,0.005655780811652908,225.062,0.4819999933242798,-2.5494169553764836
225.31034499999998,,0.004838901004769087,225.526,0.4749999940395355,-2.5646843655573943
225.775862,,0.0030993886201497443,225.992,0.4650000035762787,-2.5865021890271827
226.241379,,0.0006149032339745022,226.457,0.46399998664855957,-2.588726437699228
226.706897,,0.0013078726091179868,226.922,0.46399998664855957,-2.5887851678640312
227.172414,,0.001301847573547716,227.385,0.46299999952316284,-2.5910340076924996
227.63793099999998,,0.00047633705569367023,227.855,0.4560000002384186,-2.6063643073077274
228.103448,,0.002425924653612662,228.315,0.4569999873638153,-2.6042727746553407
228.56896600000002,,0.003152726718623109,228.785,0.4740000069141388,-2.5673271367878794
229.03448300000002,,0.0025129495697204943,229.245,0.47999998927116394,-2.554347367848192
229.5,,0.0009461149156754328,229.715,0.47600001096725464,-2.563151196990136
229.965517,,0.0013836068402937557,230.18,0.4699999988079071,-2.5763068291368394
230.431034,,0.003963760473399476,230.64,0.49000000953674316,-2.5328091419925385
230.896552,,0.005014344653121513,231.105,0.4620000123977661,-2.5938756473208784
231.362069,,0.0026846249827861906,231.57,0.46399998664855957,-2.5895702436337396
231.827586,,0.0023223806024693996,232.036,0.4659999907016754,-2.5852509297039794
232.293103,,0.006330849361353322,232.501,0.4650000035762787,-2.5874522573434775
232.758621,,0.005878489143780533,232.967,0.45899999141693115,-2.6005308277107444
233.224138,,0.0011468278183258938,233.434,0.46700000762939453,-2.583091890622175
233.689655,,0.00429426124131252,233.9,0.4869999885559082,-2.539492435906153
234.155172,,0.006920211595062975,234.36,0.46700000762939453,-2.5830221939552773
234.62069,,0.005999686710179395,234.83,0.46700000762939453,-2.5829639171328735
235.086207,,0.0033602186913212683,235.293,0.46399998664855957,-2.5894286806616122
235.55172399999998,,0.0013137660177042374,235.755,0.4180000126361847,-2.689565409618915
236.01724099999998,,0.000996575650308719,236.226,0.45100000500679016,-2.6175826636675223
236.482759,,0.0021162819507359568,236.689,0.46799999475479126,-2.5804539554124233
236.94827600000002,,0.0036260049484969506,237.155,0.45899999141693115,-2.5999673901757094
237.413793,,0.004409080041324448,237.615,0.4790000021457672,-2.5562997139126664
237.87931,,0.0037259477290773526,238.08,0.4569999873638153,-2.6041378110322517
238.344828,,0.0018008996645669344,238.545,0.46399998664855957,-2.5888006561651995
238.810345,,0.00018270224835597424,239.011,0.4749999940395355,-2.5647571400114084
239.27586200000002,,0.000711300815131399,239.478,0.46399998664855957,-2.588654341865735
239.741379,,0.003442622522524601,239.944,0.46799999475479126,-2.579884513347385
240.206897,,0.00605362677737207,240.404,0.4790000021457672,-2.555878587979356
240.672414,,0.006156546337385072,240.874,0.4729999899864197,-2.5689252611038005
241.137931,,0.004198711934221508,241.337,0.4560000002384186,-2.6059538914833182
241.603448,,0.0031738726928901206,241.8,0.46700000762939453,-2.5819982703915803
242.068966,,0.004910388498367555,242.271,0.47999998927116394,-2.5537029570277756
242.534483,,0.007459683062859424,242.733,0.4650000035762787,-2.58642631846371
243.0,,0.007350291162154345,243.199,0.4699999988079071,-2.5755924524445413
243.465517,,0.0040167291049011435,243.662,0.45500001311302185,-2.608346051414429
243.93103399999998,,0.0004386087967107302,244.127,0.4699999988079071,-2.5757529027989445
244.39655199999999,,0.0007325410775205272,244.589,0.4519999921321869,-2.6150654144494503
244.862069,,0.00011169553176786692,245.054,0.46399998664855957,-2.5890260316619793
245.327586,,8.073606061258974e-05,245.519,0.47600001096725464,-2.562990708064443
245.793103,,0.0016989592116316062,245.984,0.4650000035762787,-2.5870647414218313
246.258621,,0.004062608438591754,246.449,0.46700000762939453,-2.5828134635931255
246.724138,,0.005867175099921124,246.914,0.46399998664855957,-2.5894495218409728
247.18965500000002,,0.006545089251587973,247.382,0.47999998927116394,-2.554681837138205
247.655172,,0.006275773378390614,247.844,0.47999998927116394,-2.5547597327179687
248.12069,,0.005816194812773352,248.315,0.46399998664855957,-2.5896806697253782
248.586207,,0.006168064924280832,248.778,0.4729999899864197,-2.5701183607716214
249.051724,,0.007609868243836914,249.241,0.47600001096725464,-2.563609237281196
249.517241,,0.009013552535434122,249.704,0.4650000035762787,-2.5875815045357182
249.982759,,0.008745492565106604,250.17,0.46299999952316284,-2.5919261416461414
250.44827600000002,,0.00652004334898255,250.634,0.46000000834465027,-2.5984301429019614
250.913793,,0.004094098493968549,251.1,0.4519999921321869,-2.6158092510703663
251.37931000000003,,0.0037236303353923913,251.567,0.4699999988079071,-2.5765265616476265
251.844828,,0.005686436727078834,252.033,0.46000000834465027,-2.598230657682474
252.31034499999998,,0.007576728283774725,252.498,0.4560000002384186,-2.6068499185921725
252.77586200000002,,0.006666584998106683,252.964,0.46299999952316284,-2.591493956330048
253.241379,,0.0030018657632289655,253.43,0.4729999899864197,-2.5695946566894263
253.706897,,0.0005871387862185174,253.895,0.578000009059906,-2.340717035121798
254.172414,,0.0017729357580734933,254.356,0.47600001096725464,-2.5628146627774187
254.63793099999998,,0.0012283979331782723,254.826,0.46700000762939453,-2.582298697668196
255.10344800000001,,0.001393746317400961,255.289,0.4569999873638153,-2.603968651291038
255.56896600000002,,0.0034022835958944096,255.752,0.46399998664855957,-2.588613014982805
256.03448299999997,,0.005874580248793378,256.223,0.5130000114440918,-2.4817680650457725
256.5,,0.006513948261248605,256.685,0.460999995470047,-2.594982912758192
256.965517,,0.004445094350599154,257.144,0.45899999141693115,-2.59928514608153
257.431034,,0.0011329158175035223,257.615,0.46299999952316284,-2.590538377668176
257.896552,,0.000774379138830582,258.08,0.4620000123977661,-2.592709016573098
258.362069,,0.00010576028850692322,258.545,0.46399998664855957,-2.5883684541103853
258.827586,,0.0023502755044905645,259.01,0.47600001096725464,-2.5622654361047665
259.29310300000003,,0.003222764983782161,259.475,0.4729999899864197,-2.568864949904221
259.758621,,0.0019105659089440293,259.94,0.4790000021457672,-2.5558772612675336
260.224138,,0.00031803482673321273,260.404,0.46299999952316284,-2.5908382998976025
260.689655,,0.0001956737040213379,260.866,0.46000000834465027,-2.5974927825953897
261.155172,,0.0006542542335447173,261.334,0.46399998664855957,-2.5889094334056812
261.62068999999997,,0.00041211671868362517,261.796,0.46399998664855957,-2.5890491221066947
262.086207,,0.0031167468277334912,262.264,0.4620000123977661,-2.593550104233474
262.551724,,0.005141797798931944,262.726,0.47999998927116394,-2.5544774039207914
263.017241,,0.004534350395103876,263.192,0.4729999899864197,-2.5698649489967025
263.482759,,0.0017143377619722809,263.654,0.4830000102519989,-2.548204741971178
263.94827599999996,,0.0016757657715060484,264.12,0.4729999899864197,-2.5701027116520017
264.413793,,0.004575077662236367,264.588,0.46299999952316284,-2.5919823750291076
264.87931,,0.006313915795798172,265.054,0.4830000102519989,-2.548481336194771
265.34482799999995,,0.005996487816171495,265.519,0.4819999933242798,-2.550707706414102
265.810345,,0.0036113087716736552,265.984,0.46399998664855957,-2.589945049659376
266.27586199999996,,0.001065885699265569,266.449,0.45899999141693115,-2.6008337411313707
266.741379,,0.0005407374254570472,266.915,0.4560000002384186,-2.607339405348358
267.206897,,0.0018159127866030432,267.378,0.4620000123977661,-2.5942122738882087
267.672414,,0.0024092926074568326,267.84,0.4620000123977661,-2.594133406328589
268.137931,,0.0007569572446527209,268.308,0.46299999952316284,-2.5918543307166266
268.603448,,0.001635972007402953,268.77,0.4650000035762787,-2.58737780306517
269.06896600000005,,0.002110236130089377,269.234,0.4129999876022339,-2.7005339990586625
269.53448299999997,,0.00045370073349800845,269.703,0.46700000762939453,-2.582743782942858
270.0,,0.0007718365306870433,270.169,0.46299999952316284,-2.5913090554609015
270.465517,,0.00029858261331865024,270.633,0.4650000035762787,-2.586799757482306
270.931034,,0.002470178128743609,271.099,0.44699999690055847,-2.625865769583069
271.396552,,0.003387364684456887,271.565,0.46299999952316284,-2.590864919619834
271.86206899999996,,0.0026152220261859674,272.031,0.4690000116825104,-2.5776618137369467
272.327586,,0.001586000612648041,272.49,0.46000000834465027,-2.597153516152599
272.793103,,0.001159871123498627,272.956,0.46299999952316284,-2.5905203584328302
273.258621,,0.0007611195280732886,273.422,0.46299999952316284,-2.590445287435652
273.724138,,5.77714128602482e-05,273.888,0.47600001096725464,-2.5620721562673547
274.18965499999996,,0.0006943152472268334,274.349,0.4779999852180481,-2.5576899697511
274.655172,,0.0007903450710488645,274.818,0.46700000762939453,-2.581656828857924
275.12069,,0.001252336741219662,275.282,0.4620000123977661,-2.592579331798419
275.586207,,0.002903289908732422,275.744,0.5400000214576721,-2.422699875052424
276.051724,,0.004867244377024857,276.21,0.4779999852180481,-2.557854427900518
276.517241,,0.005502880573736861,276.674,0.44200000166893005,-2.6363866418467734
276.98275900000004,,0.004627394711321957,277.14,0.46000000834465027,-2.597294064329342
277.448276,,0.003714663720311754,277.605,0.46399998664855957,-2.588721484733634
277.913793,,0.003879850018841045,278.07,0.46299999952316284,-2.59105647230427
278.37931,,0.004549590574709173,278.535,0.46299999952316284,-2.5912226928243682
278.844828,,0.0043483101491885705,279.0,0.4620000123977661,-2.5935725319978866
279.31034500000004,,0.0026792819141284487,279.467,0.46399998664855957,-2.5893863633980665
279.77586199999996,,0.00016184156519666266,279.932,0.4410000145435333,-2.639661302242967
280.241379,,0.001984528336664039,280.4,0.460999995470047,-2.5962446753001704
280.706897,,0.002644030976499804,280.862,0.45899999141693115,-2.600743254810582
281.172414,,0.0014063808351776333,281.324,0.4729999899864197,-2.570363179674989
281.637931,,0.0008856719090691387,281.794,0.4620000123977661,-2.5944246276676832
282.10344799999996,,0.0024375016801017175,282.256,0.5,-2.5117037070346595
282.568966,,0.002134904443139432,282.726,0.46299999952316284,-2.592349734358678
283.034483,,0.0008894891157157778,283.184,0.4690000116825104,-2.579281069502622
283.5,,0.0005793973623240304,283.655,0.4659999907016754,-2.5857875131680705
283.965517,,0.0016498346199513817,284.114,0.5080000162124634,-2.4942214757825307
284.431034,,0.0028091792309196868,284.586,0.46299999952316284,-2.592165661380975
284.89655200000004,,0.0031315947654306808,285.044,0.47699999809265137,-2.5615403387219753
285.362069,,0.0029712611239129773,285.516,0.4560000002384186,-2.6071427792763093
285.827586,,0.002566822290156851,285.974,0.4650000035762787,-2.5873654700726822
286.293103,,0.0016131064317157595,286.442,0.4650000035762787,-2.5871807972828065
286.758621,,0.0007516979206038991,286.908,0.4740000069141388,-2.5673782461431407
287.22413800000004,,0.001429442611992304,287.371,0.4860000014305115,-2.541035078241578
287.689655,,0.003329572939600848,287.84,0.44699999690055847,-2.6258045750541705
288.155172,,0.0037014736324393616,288.301,0.48100000619888306,-2.551540969644172
288.62069,,0.00037093954138190543,288.77,0.4699999988079071,-2.5753305821085233
289.086207,,0.005671625133656701,289.234,0.4490000009536743,-2.6209264203201164
289.55172400000004,,0.01144056201211019,289.696,0.47600001096725464,-2.561972389004109
290.01724099999996,,0.014873442891649406,290.162,0.4659999907016754,-2.5836576572998844
290.482759,,0.015861302316083497,290.629,0.4699999988079071,-2.574874251888337
290.948276,,0.014912598388152561,291.095,0.45500001311302185,-2.607520469518713
291.413793,,0.012013754251668339,291.56,0.382999986410141,-2.7643883452371343
291.87931,,0.007519985062947129,292.019,0.4690000116825104,-2.5770696444676786
292.344828,,0.0034624191181948814,292.485,0.46799999475479126,-2.5793306419530775
292.81034500000004,,0.002442215850024965,292.951,0.46299999952316284,-2.590339490885023
293.275862,,0.0046714963034187535,293.423,0.48899999260902405,-2.5338398696950204
293.74137900000005,,0.007054255587713105,293.881,0.46700000762939453,-2.5819402106711657
294.206897,,0.006260966176482183,294.345,0.46299999952316284,-2.5908450841139046
294.672414,,0.0025981708662215362,294.815,0.4650000035762787,-2.5866929942720285
295.13793100000004,,0.00021992191308394795,295.278,0.460999995470047,-2.5956216248280097
295.603448,,0.00033311631007583404,295.74,0.47699999809265137,-2.560979306187291
296.068966,,0.0022345959758596095,296.206,0.45100000500679016,-2.6178356081333276
296.534483,,0.001453341243054532,296.669,0.4790000021457672,-2.5570338247452247
297.0,,0.0027236695099555532,297.135,0.4830000102519989,-2.548501653474785
297.46551700000003,,0.006807215940212873,297.6,0.48399999737739563,-2.5464811054393395
297.931034,,0.007695215620570139,298.065,0.46700000762939453,-2.5836470450477855
298.396552,,0.006099357867342873,298.531,0.4650000035762787,-2.588100694220542
298.862069,,0.004508226728636733,298.996,0.46299999952316284,-2.592519086969532
299.327586,,0.003586158681200912,299.463,0.47200000286102295,-2.572934965861759
299.79310300000003,,0.0023305169562436636,299.929,0.4659999907016754,-2.585992160365588
300.258621,,0.0008359389408013609,300.393,0.48500001430511475,-2.5445445517129897
300.724138,,0.0007993685354454852,300.855,0.46399998664855957,-2.5902057765893516
301.189655,,0.003023271351568126,301.323,0.4519999921321869,-2.616225107373023
301.65517200000005,,0.005932324424522407,301.785,0.46399998664855957,-2.5899271825679313
302.12069,,0.007338482902840562,302.249,0.4699999988079071,-2.576675651137109
302.586207,,0.006815944960268961,302.719,0.460999995470047,-2.596083507909427
303.05172400000004,,0.005533018625832817,303.184,0.46700000762939453,-2.582797326188978
303.517241,,0.004305600629142115,303.648,0.46299999952316284,-2.5912898996202536
303.982759,,0.002835504120875319,304.114,0.46700000762939453,-2.5823521553675577
304.448276,,0.0008266493901964527,304.578,0.46399998664855957,-2.588670704842067
304.913793,,0.0011238065238571217,305.044,0.46299999952316284,-2.5906442737027136
305.37931000000003,,0.0021704028755204067,305.509,0.46399998664855957,-2.5882793669973925
305.844828,,0.0021194274782381194,305.974,0.45100000500679016,-2.6164402253640167
306.310345,,0.00121954000492004,306.434,0.45500001311302185,-2.60759421901358
306.775862,,0.0004096618479351147,306.899,0.4699999988079071,-2.574817180070644
307.241379,,0.002507311831686512,307.367,0.46399998664855957,-2.5878283710886394
307.70689699999997,,0.004060556658035796,307.829,0.46399998664855957,-2.5878061489909614
308.172414,,0.0036723040339359447,308.297,0.47200000286102295,-2.5703939750588365
308.637931,,0.0009722857491766988,308.76,0.453000009059906,-2.61184430710454
309.103448,,0.0025193117713923517,309.23,0.46399998664855957,-2.5879729740222874
309.568966,,0.004627139295818208,309.693,0.4699999988079071,-2.575029674844605
310.034483,,0.004885085656911196,310.159,0.46700000762939453,-2.5817249266171323
310.5,,0.004851418151972169,310.623,0.4259999990463257,-2.671235625936258
310.96551700000003,,0.005526798340814397,311.089,0.47200000286102295,-2.57122571030784
311.431034,,0.0055991517021769695,311.555,0.46399998664855957,-2.5888776994837075
311.896552,,0.0034876227190768433,312.021,0.4740000069141388,-2.5673212052628838
312.362069,,0.000229698326762072,312.479,0.46799999475479126,-2.5806233346610328
312.827586,,0.0014330584967226475,312.944,0.46399998664855957,-2.589561417407994
313.29310300000003,,0.0006970831436959903,313.419,0.4909999966621399,-2.5309475319338843
313.758621,,0.00023494753715739048,313.877,0.5059999823570251,-2.4984560740063055
314.224138,,0.0008228475703249274,314.345,0.45500001311302185,-2.609728125435373
314.689655,,0.0032175490814638063,314.807,0.4779999852180481,-2.55974936625843
315.155172,,0.00447156863276267,315.275,0.48100000619888306,-2.553308722696826
315.62068999999997,,0.003389110863937232,315.737,0.46399998664855957,-2.590403316047227
316.086207,,0.0013075442719960612,316.203,0.45899999141693115,-2.6013152048158057
316.551724,,0.0004286818360030759,316.665,0.46399998664855957,-2.5904016383580695
317.017241,,0.0014267037693720332,317.131,0.4620000123977661,-2.594700130178784
317.482759,,0.002880858578958408,317.596,0.4620000123977661,-2.5946046979644466
317.94827599999996,,0.0029509563829529643,318.062,0.46799999475479126,-2.5814034953479092
318.413793,,0.0012477985737417777,318.526,0.4729999899864197,-2.5703505324121654
318.87931000000003,,0.0011411880480922366,318.991,0.46399998664855957,-2.589772903695513
319.344828,,0.002910299168410067,319.457,0.46299999952316284,-2.5917460924153355
319.810345,,0.003244585574054543,319.922,0.46299999952316284,-2.591527045946491
320.275862,,0.0018729300071353887,320.385,0.45100000500679016,-2.6174449422226598
320.741379,,0.0005399120299390977,320.855,0.45500001311302185,-2.60850470889665
321.20689699999997,,0.0021759536576024256,321.319,0.46700000762939453,-2.5821421222075585
321.672414,,0.0013478062567492401,321.781,0.47600001096725464,-2.562328061164226
322.137931,,0.0015197109263536956,322.245,0.4569999873638153,-2.6035347365296446
322.603448,,0.0038917670694003682,322.715,0.49900001287460327,-2.5118675282988163
323.068966,,0.0037271769014418474,323.174,0.4650000035762787,-2.58580587031269
323.53448299999997,,0.0015530466544488052,323.644,0.48100000619888306,-2.550844130092702
324.0,,0.0007277513151181993,324.11,0.48500001430511475,-2.5420616931212594
324.465517,,0.0024411817936090905,324.575,0.4659999907016754,-2.5834258200558686
324.931034,,0.00443980079791433,325.034,0.46399998664855957,-2.587792146106922
325.396552,,0.007054205934461201,325.501,0.46399998664855957,-2.5878407548620284
325.86206899999996,,0.008923247571167015,325.967,0.41200000047683716,-2.701218382589491
326.327586,,0.008284547325795222,326.434,0.47200000286102295,-2.570624903931985
326.793103,,0.005035353985453573,326.899,0.4819999933242798,-2.548996320616436
327.258621,,0.0011926568925644978,327.36,0.47699999809265137,-2.5600737357252346
327.724138,,0.0008504869164427684,327.829,0.46700000762939453,-2.582065375718312
328.189655,,0.000660471045355245,328.29,0.47699999809265137,-2.5604992346075237
328.655172,,0.00027537252196684916,328.759,0.4659999907016754,-2.5846933428502443
329.12068999999997,,0.0021501062320139507,329.219,0.47200000286102295,-2.571852282379533
329.586207,,0.006441424909640851,329.689,0.4129999876022339,-2.700619588867811
330.051724,,0.010389142780538915,330.154,0.4740000069141388,-2.567939157870539
330.517241,,0.010785678368162658,330.62,0.4620000123977661,-2.5942828555777004
330.982759,,0.007402392189586819,331.085,0.4699999988079071,-2.5770293620667553
331.44827599999996,,0.0034927864147966193,331.545,0.4650000035762787,-2.5880686420980457
331.913793,,0.0021773209528000736,332.011,0.4699999988079071,-2.5772872516027783
332.37931,,0.0027873349286355272,332.478,0.4659999907016754,-2.586076001150915
332.844828,,0.0019626811785599225,332.944,0.4779999852180481,-2.5599661199836095
333.310345,,0.0016738754020788587,333.408,0.47200000286102295,-2.5730302363950694
333.77586199999996,,0.005377627731818072,333.871,0.46700000762939453,-2.5838743193752753
334.241379,,0.005658428093609149,334.334,0.4790000021457672,-2.5576414492464026
334.706897,,0.0027839408352354437,334.804,0.4749999940395355,-2.5662293761610595
335.17241399999995,,0.0003840327650667856,335.267,0.46299999952316284,-2.5922128041587835
335.637931,,0.0008230134014638559,335.73,0.4729999899864197,-2.5702374787198132
336.103448,,0.0027098105364509162,336.195,0.4410000145435333,-2.6397429912101025
336.56896600000005,,0.003424517188278167,336.665,0.4560000002384186,-2.6068368210318966
337.034483,,0.0024317078816884375,337.124,0.460999995470047,-2.59570862789086
337.5,,0.0010183725926217705,337.59,0.4569999873638153,-2.6041864513341615
337.965517,,6.954214347062825e-05,338.055,0.4569999873638153,-2.603954984876844
338.431034,,0.000265140838906132,338.52,0.4690000116825104,-2.5775917870613103
338.89655200000004,,0.0005603170795894973,338.985,0.46399998664855957,-2.58828406490311
339.36206899999996,,0.002858397839434508,339.452,0.45899999141693115,-2.599000698728045
339.827586,,0.004832074635773076,339.918,0.46299999952316284,-2.5901394188323157
340.293103,,0.0034854252721959736,340.386,0.46399998664855957,-2.5878484099885655
340.758621,,0.001515734702611103,340.848,0.46399998664855957,-2.5877735802627146
341.224138,,0.006359896697261068,341.315,0.47200000286102295,-2.570309184895383
341.68965499999996,,0.006808497558370688,341.778,0.46299999952316284,-2.589922498266197
342.155172,,0.0027636640948764464,342.241,0.43799999356269836,-2.644435379230881
342.62069,,0.0017231592684441724,342.704,0.46700000762939453,-2.581341541453014
343.086207,,0.0025516215428544693,343.169,0.35100001096725464,-2.834191210220251
343.551724,,0.0008369754251751456,343.634,0.46399998664855957,-2.588167442221353
344.01724099999996,,0.0054248361193372395,344.099,0.45100000500679016,-2.6166836699683778
344.48275900000004,,0.007440727603379342,344.564,0.45899999141693115,-2.599470788650057
344.948276,,0.005349376643034186,345.03,0.4560000002384186,-2.6062387215750293
345.413793,,0.0007802671172390895,345.497,0.46000000834465027,-2.5977645211992164
345.87931,,0.00301559099106673,345.963,0.46399998664855957,-2.5892911920669386
346.344828,,0.0037535955170281995,346.43,0.46399998664855957,-2.589525563627556
346.81034500000004,,0.0015759132021818906,346.895,0.4429999887943268,-2.635497847364688
347.275862,,0.00160708842733079,347.356,0.515999972820282,-2.476656109284781
347.741379,,0.0037739868109363476,347.819,0.4659999907016754,-2.5857596727308994
348.206897,,0.003934821020294468,348.289,0.46299999952316284,-2.592433727341669
348.672414,,0.0024827634847315876,348.752,0.49000000953674316,-2.5337118096473388
349.13793100000004,,0.0007604591161102178,349.223,0.4560000002384186,-2.6078478664229174
349.60344799999996,,0.00016093580369002882,349.685,0.4790000021457672,-2.557759951560064
350.068966,,0.00019025726772246376,350.144,0.460999995470047,-2.5969555160729905
350.534483,,0.0006162056935959736,350.616,0.49399998784065247,-2.524999380872586
351.0,,0.002669260856675183,351.074,0.46399998664855957,-2.590259401188989
351.465517,,0.005582750629152153,351.541,0.460999995470047,-2.596661087716112
351.93103399999995,,0.00726280127509962,352.006,0.47600001096725464,-2.5638171210524514
352.396552,,0.005910299663700736,352.471,0.4490000009536743,-2.622451842468597
352.862069,,0.0025923252215980606,352.937,0.47999998927116394,-2.5547064489535583
353.32758600000005,,0.0002852453137564456,353.405,0.46000000834465027,-2.5980598864756588
353.793103,,0.00026613466932980416,353.867,0.46700000762939453,-2.5825845089264097
354.258621,,0.0007281777895624209,354.33,0.4729999899864197,-2.5692894378084885
354.72413800000004,,0.0005763412163212856,354.8,0.4790000021457672,-2.5560022926599983
355.189655,,0.003289172307289426,355.263,0.45500001311302185,-2.6080892736074217
355.655172,,0.004842135283290662,355.726,0.4659999907016754,-2.5839448732811072
356.12069,,0.0035041616741558848,356.191,0.46399998664855957,-2.5881495460027137
356.586207,,0.0003266270953851125,356.654,0.46399998664855957,-2.5880279043779604
357.05172400000004,,0.0019075788893923116,357.119,0.46399998664855957,-2.5879407436826
357.517241,,0.0012009197216024535,357.585,0.44999998807907104,-2.6183917626041326
357.982759,,0.002258263282358535,358.051,0.460999995470047,-2.5944151220590217
358.448276,,0.006638148438327304,358.516,0.4779999852180481,-2.5574046954134237
358.913793,,0.009701475937451126,358.982,0.46000000834465027,-2.596683260106155
359.37931000000003,,0.009736008588630624,359.449,0.4620000123977661,-2.5924232143145667
359.844828,,0.006628332542789909,359.915,0.4650000035762787,-2.5860157259489744
360.310345,,0.0027543190798068945,360.375,0.4699999988079071,-2.575277575080685
360.775862,,0.0016221070958573989,360.845,0.4560000002384186,-2.6059553430744002
361.241379,,0.00419971269260122,361.308,0.40299999713897705,-2.721617776732558
361.706897,,0.007092884262630304,361.77,0.4650000035762787,-2.5867477493910513
362.172414,,0.006001820899395456,362.234,0.4690000116825104,-2.578243617801531
362.63793100000004,,0.0010887265913550157,362.704,0.4869999885559082,-2.5392343973581935
363.103448,,0.002917441800453056,363.17,0.48899999260902405,-2.5350722056132136
363.568966,,0.002744375914638459,363.63,0.46000000834465027,-2.598430966698455
364.034483,,0.0006218696498132506,364.095,0.46299999952316284,-2.592051512585865
364.5,,0.0005154077283130677,364.56,0.4740000069141388,-2.568216971329955
364.96551700000003,,0.0023050196051668773,365.026,0.45899999141693115,-2.600997592114125
365.431034,,0.002650746333936162,365.49,0.46299999952316284,-2.592351595625251
365.896552,,0.0005070428120816635,365.956,0.4560000002384186,-2.607637083255753
366.362069,,0.0016237566417014303,366.423,0.4909999966621399,-2.531384529969397
366.827586,,0.001888608765247973,366.889,0.5040000081062317,-2.5030264821564896
367.29310300000003,,0.0015516077883073471,367.352,0.4860000014305115,-2.542171663256808
367.758621,,0.0024635411226322174,367.814,0.4620000123977661,-2.5943573898917225
368.224138,,0.0040428809469079865,368.282,0.46299999952316284,-2.592050570637124
368.689655,,0.0039838324373798134,368.744,0.4339999854564667,-2.655082323774947
369.155172,,0.001183752777765846,369.21,0.4749999940395355,-2.5655930424361606
369.62068999999997,,0.003001110250392713,369.674,0.4519999921321869,-2.6155266806885695
370.086207,,0.006236544104250329,370.14,0.4569999873638153,-2.604453163569065
370.55172400000004,,0.007208125241238389,370.605,0.4659999907016754,-2.584665840331924
371.017241,,0.006027806370093189,371.071,0.4790000021457672,-2.5561696166374204
371.482759,,0.0032816004573358306,371.537,0.4779999852180481,-2.5581849291948817
371.948276,,0.0005933426182811748,372.003,0.45899999141693115,-2.5994313218474363
372.413793,,0.0046359867575448575,372.468,0.46399998664855957,-2.5884105933706394
372.87931000000003,,0.006696701692158685,372.934,0.45500001311302185,-2.6079152987824217
373.344828,,0.004976066986104621,373.397,0.4779999852180481,-2.557730371501103
373.810345,,0.0007797574873124283,373.859,0.46799999475479126,-2.5794692017394394
374.275862,,0.001781144263617768,374.33,0.46700000762939453,-2.5816295328433045
374.741379,,0.00019403861855512005,374.793,0.460999995470047,-2.5947128944903635
375.20689699999997,,0.0032347681634298468,375.256,0.47600001096725464,-2.562073360104319
375.672414,,0.004001498481720652,375.726,0.4580000042915344,-2.601356199994552
376.137931,,0.0008578651394958713,376.184,0.4740000069141388,-2.56658934229259
376.603448,,0.002817019688766015,376.655,0.4690000116825104,-2.5775950233179556
377.068966,,0.00333021124275523,377.12,0.46000000834465027,-2.597332370560864
377.53448299999997,,0.0009921731716350652,377.586,0.46399998664855957,-2.5887603463744937
378.0,,0.0009465646981202743,378.044,0.46299999952316284,-2.5910898432870764
378.465517,,0.0008692833049284823,378.509,0.4659999907016754,-2.5847081460253083
378.931034,,0.0005451722917643118,378.974,0.45500001311302185,-2.6088260144145456
379.396552,,0.0018651582925012296,379.441,0.4650000035762787,-2.5871862359922284
379.862069,,0.0033228575442727755,379.907,0.45500001311302185,-2.609108810749903
380.327586,,0.0014343223195546076,380.375,0.4259999990463257,-2.672411789927434
380.79310300000003,,0.0044177980442080475,380.837,0.4699999988079071,-2.576656176574103
381.258621,,0.010222266778891702,381.3,0.47600001096725464,-2.563667761437567
381.724138,,0.011442422031537355,381.77,0.421999990940094,-2.6813745521462633
382.189655,,0.008010272242926138,382.234,0.45500001311302185,-2.6095146970239114
382.655172,,0.004108130722279663,382.696,0.47600001096725464,-2.5637732189253035
383.12068999999997,,0.003431811163041357,383.162,0.4650000035762787,-2.587721895304996
383.586207,,0.005716066764704572,383.629,0.46700000762939453,-2.5833223535392356
384.051724,,0.0077982004979742356,384.095,0.4729999899864197,-2.5701842579587297
384.517241,,0.007056235731550184,384.56,0.4950000047683716,-2.522165523795618
384.982759,,0.003354029722418482,385.025,0.46399998664855957,-2.5895959469098044
385.44827599999996,,0.0015305080840093902,385.489,0.4729999899864197,-2.569865441326014
385.913793,,0.00512083935910378,385.954,0.46399998664855957,-2.5893404219556846
386.37931,,0.0051129722815176255,386.42,0.460999995470047,-2.595738058841184
386.84482799999995,,0.0009925787981080526,386.885,0.46399998664855957,-2.5890633221168406
387.310345,,0.004190312522734277,387.348,0.47200000286102295,-2.5714991862116734
387.775862,,0.005211483785176113,387.811,0.45100000500679016,-2.617124272311956
388.241379,,0.00032997003348615966,388.274,0.46299999952316284,-2.5908668031656528
388.70689699999997,,0.008702244161484513,388.745,0.46000000834465027,-2.5973054722341726
389.172414,,0.01309088968379874,389.21,0.4659999907016754,-2.5841555268512395
389.637931,,0.01032114109193244,389.674,0.4699999988079071,-2.57538402602496
390.103448,,0.003851563782615511,390.14,0.47600001096725464,-2.5622775792863295
390.56896600000005,,0.00032812304780067026,390.604,0.45100000500679016,-2.6167326006602547
391.03448299999997,,7.921687544603715e-05,391.07,0.4659999907016754,-2.584065502572342
391.5,,0.0014765781073182284,391.53,0.46299999952316284,-2.5906370178599243
391.965517,,0.00046230200749528986,391.995,0.5019999742507935,-2.5057258395551574
392.431034,,0.003240339772434526,392.46,0.47600001096725464,-2.562444083771463
392.896552,,0.006483956545038735,392.925,0.45899999141693115,-2.5995697874363546
393.36206899999996,,0.00698022518250834,393.393,0.45899999141693115,-2.5996715311006846
393.827586,,0.005800746595999162,393.855,0.44600000977516174,-2.6281057752588595
394.293103,,0.005455446358377663,394.319,0.47600001096725464,-2.562864276737296
394.75862099999995,,0.006374154745219361,394.789,0.46700000762939453,-2.5825914759903315
395.224138,,0.00660098948295336,395.252,0.4690000116825104,-2.578350572226295
395.68965499999996,,0.004891361404446251,395.715,0.460999995470047,-2.595889611421142
396.155172,,0.002475440406756577,396.18,0.45399999618530273,-2.6112401473306392
396.62069,,0.001024667363125137,396.647,0.47699999809265137,-2.561218122480716
397.086207,,0.00022290513181373627,397.112,0.45100000500679016,-2.6179338066565054
397.551724,,0.001393660498377884,397.578,0.47600001096725464,-2.5635201731631456
398.017241,,0.0038329402564138758,398.043,0.4560000002384186,-2.60712595993422
398.48275900000004,,0.005227073958166222,398.509,0.4650000035762787,-2.5875303116028245
398.94827599999996,,0.004225503699481281,398.974,0.46799999475479126,-2.580985840079062
399.413793,,0.0019066881307090965,399.434,0.46700000762939453,-2.5831354678206893
399.87931,,0.000609479667896377,399.899,0.4560000002384186,-2.607052619302443
400.344828,,0.0012192026703006027,400.368,0.46399998664855957,-2.5895586014466034
400.810345,,0.0024217632383654007,400.83,0.47600001096725464,-2.563335172585654
401.27586199999996,,0.002750468694386798,401.3,0.45100000500679016,-2.6177098805126113
401.741379,,0.00262266732781464,401.763,0.46299999952316284,-2.5914663929050032
402.206897,,0.003652626116892565,402.227,0.48100000619888306,-2.5521460242886658
402.672414,,0.006165158949929948,402.689,0.4659999907016754,-2.584719218783337
403.137931,,0.008380927250054352,403.155,0.46399998664855957,-2.588972008702858
403.60344799999996,,0.008511193412521115,403.622,0.45500001311302185,-2.608481470722941
404.068966,,0.006797887446564982,404.088,0.45899999141693115,-2.599678448113718
404.534483,,0.004694564048332005,404.552,0.4659999907016754,-2.584352144180658
405.0,,0.002766692378588023,405.018,0.46700000762939453,-2.58211255140551
405.465517,,0.0005778105782282902,405.482,0.45100000500679016,-2.616926981997701
405.931034,,0.0015670979298836637,405.948,0.46700000762939453,-2.582043199975934
406.39655200000004,,0.0021052046687648424,406.411,0.4729999899864197,-2.5689648031566037
406.862069,,0.00022878870421813536,406.881,0.46399998664855957,-2.5885846330498135
407.327586,,0.002215788354278438,407.341,0.5090000033378601,-2.490574656312116
407.793103,,0.0021893513647488717,407.804,0.45899999141693115,-2.5995519597659738
408.258621,,0.0008332213004085905,408.272,0.47600001096725464,-2.5625742776577023
408.72413800000004,,0.0038100008362374287,408.741,0.46799999475479126,-2.5800757943613912
409.18965499999996,,0.0036466473665901136,409.199,0.4650000035762787,-2.5866943734865306
409.655172,,0.0009295262131357854,409.669,0.45399999618530273,-2.6107501091310907
410.12069,,0.0009516884061095982,410.135,0.46799999475479126,-2.5803445650962558
410.586207,,0.0001336516870452299,410.6,0.45899999141693115,-2.600049434924899
411.05172400000004,,0.0014508482075249012,411.066,0.45899999141693115,-2.6001446225053244
411.51724099999996,,0.000754587180631575,411.531,0.4909999966621399,-2.5305174446635816
411.982759,,0.0022427794335589603,411.989,0.4560000002384186,-2.606850538657523
412.448276,,0.004465546348779867,412.456,0.4729999899864197,-2.569882297294191
412.913793,,0.0037173814557004505,412.922,0.46299999952316284,-2.5917237920090157
413.37931,,0.001199814484360487,413.389,0.45899999141693115,-2.6004779424386286
413.844828,,0.00031589347158463243,413.852,0.4659999907016754,-2.58525032266071
414.31034500000004,,0.00037656830875429007,414.315,0.4650000035762787,-2.587434325751905
414.775862,,0.0019687218035786764,414.785,0.4699999988079071,-2.576528587369599
415.241379,,0.0019075890920953787,415.249,0.4659999907016754,-2.585213185552853
415.706897,,0.0015282872472567354,415.711,0.47999998927116394,-2.55466543740368
416.172414,,0.007474421421695276,416.177,0.4659999907016754,-2.585104687671522
416.63793100000004,,0.01237072863282326,416.641,0.492000013589859,-2.528384720142558
417.103448,,0.01238408309395456,417.107,0.49399998784065247,-2.523941164664767
417.568966,,0.007002585900974328,417.571,0.4729999899864197,-2.569598137100261
418.034483,,0.00020658495111760836,418.036,0.46399998664855957,-2.5891073293385674
418.5,,0.002994041395232344,418.501,0.46000000834465027,-2.5977236022753494
418.96551700000003,,0.0015575752126408785,418.967,0.4659999907016754,-2.5845576122156686
419.43103399999995,,0.000933172390504737,419.435,0.46299999952316284,-2.5910068530626127
419.896552,,0.0009080480193966726,419.9,0.46000000834465027,-2.597466714080569
420.362069,,0.0010930267036673598,420.363,0.4620000123977661,-2.5930468194957284
420.827586,,0.001924700901340067,420.826,0.46299999952316284,-2.5908212903472627
421.293103,,0.0006479811298524999,421.294,0.4860000014305115,-2.540682289067182
421.758621,,8.190433471472091e-05,421.756,0.45500001311302185,-2.608207941338351
422.22413800000004,,0.0028501268741696795,422.226,0.48500001430511475,-2.5428542523856708
422.689655,,0.00723286373288258,422.689,0.4009999930858612,-2.7258857037194186
423.15517200000005,,0.008734482816310405,423.155,0.45399999618530273,-2.610461934246363
423.62069,,0.005491875933335086,423.62,0.4620000123977661,-2.5930949197934146
424.086207,,0.0003644705120860541,424.085,0.46399998664855957,-2.5888138142062043
424.55172400000004,,0.002664120198500444,424.545,0.46399998664855957,-2.588900820408126
425.017241,,0.00265210602054947,425.01,0.46799999475479126,-2.5802807496701208
425.482759,,0.0015144230974405315,425.474,0.4659999907016754,-2.5847365382778444
425.948276,,0.0008351152885387877,425.94,0.48899999260902405,-2.5347259666056847
426.413793,,0.00023775206282336772,426.408,0.4790000021457672,-2.556606447303885
426.87931000000003,,0.0012162089487746093,426.871,0.47200000286102295,-2.5719432994300258
427.344828,,0.003214526485972555,427.334,0.4620000123977661,-2.5938058984988484
427.810345,,0.004385130524370669,427.804,0.47200000286102295,-2.5720829488779304
428.275862,,0.0038268357872593504,428.267,0.46700000762939453,-2.5830247185373487
428.741379,,0.0018780531626976815,428.73,0.4429999887943268,-2.6353445828068915
429.20689699999997,,0.0006301254145895523,429.195,0.45399999618530273,-2.611394977728208
429.672414,,0.0034392618113780467,429.665,0.4569999873638153,-2.6048572808113013
430.137931,,0.006610934807564949,430.124,0.46700000762939453,-2.583051128106784
430.603448,,0.00916725425281141,430.589,0.492000013589859,-2.5285471262444266
431.068966,,0.009038127911046698,431.055,0.46299999952316284,-2.5916727687157013
431.534483,,0.00544123357713034,431.52,0.453000009059906,-2.613389283647507
432.0,,0.0007269735048637167,431.986,0.47099998593330383,-2.574091983929231
432.46551700000003,,0.0016401400341365955,432.452,0.4749999940395355,-2.5652863139902053
432.931034,,0.0009780992670094582,432.918,0.4749999940395355,-2.565188611627551
433.396552,,8.272612950782756e-05,433.381,0.46299999952316284,-2.5912316910565436
433.862069,,0.0007352015725590588,433.844,0.4699999988079071,-2.5758814087774633
434.327586,,0.002537333661764288,434.312,0.4830000102519989,-2.5474635174854092
434.79310300000003,,0.002907144216576993,434.774,0.4790000021457672,-2.556089990328094
435.258621,,0.0012290787052428797,435.245,0.4729999899864197,-2.569084373394238
435.724138,,0.0009419779713643851,435.707,0.46700000762939453,-2.582092671305414
436.189655,,0.002243037550018611,436.173,0.46299999952316284,-2.5907606162431818
436.655172,,0.0028140545681192993,436.637,0.4699999988079071,-2.5754823369531223
437.12068999999997,,0.0032935062982965176,437.102,0.45899999141693115,-2.5994399568003588
437.586207,,0.003745898666641072,437.567,0.46299999952316284,-2.5907387349911124
438.051724,,0.0040343440416457915,438.033,0.47600001096725464,-2.5624501775556516
438.517241,,0.004488866774701418,438.496,0.4779999852180481,-2.55814578768373
438.982759,,0.005467935147355449,438.962,0.47999998927116394,-2.5538582708259723
439.448276,,0.006431209588845113,439.43,0.4790000021457672,-2.556121268319287
439.913793,,0.006199337926555197,439.896,0.45899999141693115,-2.5997908250421218
440.37931000000003,,0.004425359646764151,440.356,0.4650000035762787,-2.586825031139831
440.844828,,0.0021894900594172386,440.819,0.46399998664855957,-2.5891159562818697
441.310345,,0.0006120123775697396,441.289,0.45899999141693115,-2.600123646568354
441.775862,,0.0005490332266775636,441.752,0.47600001096725464,-2.5631990661266926
442.241379,,0.0021077125183130343,442.218,0.47600001096725464,-2.563305013877476
442.70689699999997,,0.0036213332726143695,442.681,0.46700000762939453,-2.5830082353907833
443.172414,,0.0034906924171728866,443.147,0.46799999475479126,-2.5809111761414756
443.637931,,0.0012484308111009677,443.611,0.4779999852180481,-2.559189287109939
444.103448,,0.0011222183947580556,444.077,0.47699999809265137,-2.5614125772220984
444.568966,,0.0010429253531792967,444.541,0.46299999952316284,-2.591936641214982
445.03448299999997,,0.0017266740022614056,445.007,0.4729999899864197,-2.570150660195061
445.5,,0.004782549230547212,445.472,0.46700000762939453,-2.58320013657929
445.965517,,0.005704014427256415,445.937,0.4659999907016754,-2.585334032269968
446.431034,,0.004397537476925756,446.4,0.45100000500679016,-2.6179481558042923
446.896552,,0.0027455156809276,446.871,0.4659999907016754,-2.5851842822162268
447.36206899999996,,0.0024092658785549747,447.334,0.46299999952316284,-2.5916198026523753
447.827586,,0.0032823238809058268,447.797,0.48399999737739563,-2.545754115369422
448.29310300000003,,0.004012988014696954,448.26,0.45500001311302185,-2.60881068851151
448.758621,,0.0037502563775329498,448.73,0.4729999899864197,-2.569465113826294
449.224138,,0.003100348429508293,449.195,0.460999995470047,-2.5954776792287233
449.689655,,0.003329975983937375,449.658,0.48899999260902405,-2.534347069119925
450.155172,,0.004729113170092004,450.124,0.4620000123977661,-2.5930490225658076
450.62068999999997,,0.005857056309924376,450.589,0.4569999873638153,-2.6038325720835593
451.086207,,0.00476733172062712,451.055,0.39500001072883606,-2.73881661696332
451.551724,,0.0013505066422775257,451.519,0.4690000116825104,-2.5775264158501603
452.017241,,0.002005866115967594,451.984,0.46299999952316284,-2.5905513055034124
452.482759,,0.0028631185910388537,452.449,0.4620000123977661,-2.5927067220202624
452.94827599999996,,0.0014035577438546623,452.915,0.4749999940395355,-2.5643859227871193
453.413793,,0.0003602077047680672,453.378,0.46299999952316284,-2.5905561283408716
453.87931,,0.0014945140821666387,453.841,0.4620000123977661,-2.5927856769814634
454.344828,,0.0026192618762307853,454.309,0.45899999141693115,-2.59939605059027
454.810345,,0.0036168817550748245,454.77,0.4699999988079071,-2.5755264862631924
455.27586199999996,,0.002996351530091151,455.234,0.4650000035762787,-2.5865333700351014
455.741379,,0.00038238119011610515,455.704,0.43700000643730164,-2.6476642217842037
456.206897,,0.00213740236588549,456.171,0.46799999475479126,-2.5802663137374338
456.672414,,0.002542002380497813,456.63,0.43799999356269836,-2.6457728922506094
457.137931,,0.0014741960363519539,457.095,0.47699999809265137,-2.5609545420699993
457.603448,,0.000773547286892571,457.56,0.46299999952316284,-2.591600881630739
458.06896600000005,,0.0005223417560788995,458.025,0.4359999895095825,-2.650561352121241
458.53448299999997,,0.0005429629947581632,458.489,0.49300000071525574,-2.5265024196737955
459.0,,0.0022984222982131127,458.955,0.49000000953674316,-2.533143728606436
459.465517,,0.0029481298322958094,459.42,0.46399998664855957,-2.589871128940707
459.931034,,0.0016085133423212542,459.886,0.46700000762939453,-2.583392702334176
460.39655200000004,,0.00037565717743507336,460.356,0.46399998664855957,-2.5899596330588532
460.86206899999996,,0.0012014033281804483,460.818,0.45500001311302185,-2.6095706548055184
461.327586,,0.0006142708637708109,461.279,0.45500001311302185,-2.6095461824602415
461.793103,,0.00046041983931741114,461.748,0.45500001311302185,-2.609494663811648
462.258621,,0.0013390702201517798,462.214,0.46299999952316284,-2.5919881559774316
462.724138,,0.0017212386125986644,462.679,0.4699999988079071,-2.5766362358528245
463.18965499999996,,0.001152414775734553,463.145,0.36800000071525574,-2.798737567547599
463.655172,,0.0005211214908583948,463.604,0.4560000002384186,-2.6068817351727125
464.12069,,0.002508638614133046,464.07,0.4490000009536743,-2.621986572708829
464.58620699999994,,0.0037147617987245743,464.534,0.4659999907016754,-2.584795558533615
465.051724,,0.003727060508198903,465.0,0.46399998664855957,-2.5889948344479414
465.517241,,0.00274618719894745,465.467,0.4749999940395355,-2.564872098171837
465.98275900000004,,0.001151022606801344,465.932,0.47600001096725464,-2.5625409048599126
466.448276,,0.00028855350690904066,466.4,0.4880000054836273,-2.5362541770713762
466.913793,,0.000297113226688602,466.862,0.45500001311302185,-2.608021108199495
467.37931,,0.001850268806758738,467.33,0.47200000286102295,-2.5708751868620854
467.844828,,0.004943558463845602,467.792,0.46700000762939453,-2.5816830226546084
468.31034500000004,,0.006317761591800075,468.256,0.4480000138282776,-2.623018850365657
468.77586199999996,,0.004575334685415074,468.726,0.46399998664855957,-2.5881317975339346
469.241379,,0.001557828083629412,469.184,0.4690000116825104,-2.5772406330084925
469.706897,,0.0006965690591081968,469.655,0.46399998664855957,-2.588166989949116
470.172414,,0.0033691934882508355,470.114,0.3869999945163727,-2.7559879393823246
470.63793100000004,,0.007568959536174329,470.58,0.48500001430511475,-2.5425766998021695
471.10344799999996,,0.01016721762022738,471.046,0.4740000069141388,-2.5666650179429866
471.568966,,0.009834123363345841,471.512,0.46000000834465027,-2.597311224894683
472.034483,,0.007573258920270907,471.978,0.4779999852180481,-2.55825871586052
472.5,,0.004960292562093285,472.445,0.4749999940395355,-2.564970453144125
472.965517,,0.002542097768081233,472.91,0.3659999966621399,-2.8026280919825317
473.43103399999995,,0.00011328503721255175,473.371,0.4690000116825104,-2.5784175173836075
473.89655200000004,,0.0020584297911364607,473.841,0.46399998664855957,-2.589498720139837
474.362069,,0.003088554836583106,474.304,0.47200000286102295,-2.572246874625873
474.827586,,0.002703444070284199,474.767,0.45100000500679016,-2.6181596237796168
475.293103,,0.0020977093498641157,475.235,0.44699999690055847,-2.627014332199752
475.758621,,0.0029921501074988118,475.697,0.4300000071525574,-2.6641664034287755
476.22413800000004,,0.005712445253372054,476.163,0.4699999988079071,-2.5771062811916714
476.689655,,0.008614579470208385,476.63,0.46299999952316284,-2.5924090937306365
477.155172,,0.009791597449715056,477.095,0.44699999690055847,-2.6272837719990303
477.62069,,0.009089388684752696,477.559,0.4429999887943268,-2.635978398902267
478.086207,,0.007967557358953053,478.025,0.49000000953674316,-2.5335252127920778
478.55172400000004,,0.007551461497328046,478.49,0.4560000002384186,-2.6075062524755794
479.01724099999996,,0.007493043868398466,478.956,0.4519999921321869,-2.616094339096209
479.482759,,0.006934105918481862,479.423,0.4790000021457672,-2.557114694469767
479.948276,,0.005883788895135363,479.881,0.4729999899864197,-2.5700047848895484
480.413793,,0.004910513210810278,480.345,0.46700000762939453,-2.5828744835858597
480.87931000000003,,0.003914376147928364,480.815,0.45399999618530273,-2.610981391335311
481.344828,,0.0024164803486999295,481.278,0.4490000009536743,-2.6216532467598417
481.810345,,0.0010745681415736262,481.741,0.46299999952316284,-2.590932285406466
482.275862,,0.0014236699286304508,482.206,0.45399999618530273,-2.6103286988096523
482.74137900000005,,0.0034974867774868607,482.669,0.4699999988079071,-2.575274091735383
483.206897,,0.0048798206218668315,483.135,0.4440000057220459,-2.6317446296488645
483.672414,,0.0029677181029005312,483.6,0.4560000002384186,-2.605454838315387
484.13793100000004,,0.002240942658344601,484.066,0.4569999873638153,-2.6031636628818755
484.603448,,0.00787603158383978,484.533,0.46299999952316284,-2.590016362575836
485.068966,,0.010518699864580469,484.999,0.45899999141693115,-2.598695541034353
485.534483,,0.009060520055298876,485.464,0.48100000619888306,-2.550771037931529
486.0,,0.005574002915156251,485.929,0.46299999952316284,-2.5900337666554343
486.46551700000003,,0.0031701295775563207,486.389,0.4569999873638153,-2.603193376784804
486.931034,,0.003050004470663772,486.859,0.4659999907016754,-2.5837120226548675
487.396552,,0.004117843058103934,487.322,0.4569999873638153,-2.6034815931317103
487.862069,,0.005176370424897625,487.785,0.47600001096725464,-2.562279251364251
488.327586,,0.006265606519080479,488.249,0.46399998664855957,-2.5886394005575797
488.79310300000003,,0.007399096306877451,488.719,0.46399998664855957,-2.588873466782461
489.258621,,0.0073137903101838505,489.184,0.4740000069141388,-2.5673315525128824
489.724138,,0.004886399668004321,489.648,0.45500001311302185,-2.6089733640032864
490.189655,,0.0012600814922537238,490.114,0.46299999952316284,-2.591787072330226
490.655172,,0.0009588485731728261,490.579,0.4749999940395355,-2.5658735637286942
491.12069,,0.0007572523986078403,491.044,0.47999998927116394,-2.5551897888944617
491.586207,,0.00016080583364290143,491.504,0.460999995470047,-2.5967657763874596
492.05172400000004,,0.0002817836013649408,491.969,0.47600001096725464,-2.564234097787737
492.517241,,0.0018625587778025947,492.434,0.4490000009536743,-2.6231673590579994
492.982759,,0.0024968064077703273,492.9,0.46299999952316284,-2.592734112431347
493.448276,,0.0010278502141564932,493.368,0.46700000762939453,-2.5840426888562833
493.913793,,0.00146185381055099,493.83,0.45399999618530273,-2.612342218232657
494.37931000000003,,0.003361933794134806,494.3,0.46399998664855957,-2.590487041060929
494.844828,,0.004450628629404673,494.763,0.4909999966621399,-2.5315499567063857
495.310345,,0.00529989924207232,495.227,0.46700000762939453,-2.5836814344879087
495.775862,,0.005508759991363545,495.689,0.46700000762939453,-2.5834876425981177
496.241379,,0.003695962992760523,496.155,0.47200000286102295,-2.5723689684226914
496.70689699999997,,0.0005215330303341402,496.622,0.5659999847412109,-2.367323745231521
497.172414,,0.005114811000670375,497.087,0.4659999907016754,-2.584915674235358
497.637931,,0.006966439758490182,497.552,0.48500001430511475,-2.543237821799593
498.103448,,0.005046599839339412,498.018,0.45899999141693115,-2.599599571873156
498.568966,,0.0018698375020090071,498.482,0.4230000078678131,-2.6777585223963656
499.03448299999997,,0.0009793647339282562,498.948,0.46000000834465027,-2.596896981398432
499.5,,0.002986716585244414,499.411,0.43299999833106995,-2.6554979680393065
499.96551700000003,,0.005036483118819589,499.874,0.45500001311302185,-2.607381333429778
500.431034,,0.004596675825717219,500.341,0.45100000500679016,-2.61595187362398
500.89655200000004,,0.0026864255772345623,500.804,0.46299999952316284,-2.589710686189329
501.362069,,0.0021268014461286186,501.275,0.4490000009536743,-2.620164352290046
501.827586,,0.0033299343188964007,501.737,0.47600001096725464,-2.5613450151964905
502.293103,,0.0037636473090381585,502.203,0.453000009059906,-2.611509694328805
502.758621,,0.0017707890889135701,502.665,0.46299999952316284,-2.5898292351454204
503.224138,,0.0009715707429245226,503.131,0.45399999618530273,-2.6095905526766945
503.68965499999996,,0.0017260298773836905,503.597,0.460999995470047,-2.594536371337933
504.15517200000005,,0.00018738737958846696,504.062,0.48500001430511475,-2.542481481066537
504.62068999999997,,0.0014099456025139958,504.526,0.46000000834465027,-2.5972090962353316
505.08620699999994,,0.0011776953022079597,504.992,0.4819999933242798,-2.5495608234977025
505.55172400000004,,0.00036859750592421357,505.457,0.46399998664855957,-2.589070295519995
506.017241,,0.0012629872223312998,505.923,0.4699999988079071,-2.5762948804169574
506.48275899999993,,0.0004909370305408744,506.385,0.47200000286102295,-2.5722275495714184
506.948276,,0.0011378885056103046,506.855,0.46299999952316284,-2.5921096425228676
507.413793,,0.0022726515541698473,507.315,0.4569999873638153,-2.6054317453641467
507.87931,,0.0023696562397697756,507.785,0.46299999952316284,-2.5925781842353812
508.344828,,0.0016693816462522548,508.245,0.5189999938011169,-2.470752126110739
508.810345,,0.0006675807117182904,508.715,0.46299999952316284,-2.59288767040279
509.27586199999996,,5.095817627796852e-05,509.174,0.4950000047683716,-2.523251088787772
509.74137900000005,,0.0005799000877503545,509.645,0.45899999141693115,-2.601709488823264
510.20689699999997,,0.0023342641115112867,510.11,0.4650000035762787,-2.588610936642965
510.67241399999995,,0.004091023502809125,510.57,0.45500001311302185,-2.6103184075374104
511.13793100000004,,0.004051328297726786,511.036,0.46399998664855957,-2.5905815962714125
511.603448,,0.001683434647624218,511.501,0.46399998664855957,-2.590406206694615
512.0689659999999,,0.0013396670913779383,511.966,0.4650000035762787,-2.5880108464337326
512.534483,,0.0026378201135069516,512.43,0.40799999237060547,-2.7119435184467653
513.0,,0.001668827658487549,512.895,0.47600001096725464,-2.563519746055231
513.465517,,0.00018690984189631833,513.363,0.45399999618530273,-2.6111565749248613
513.931034,,0.00020774108284616645,513.826,0.4650000035762787,-2.586888333775738
514.396552,,0.00027090021733309556,514.289,0.4880000054836273,-2.5364755873234928
514.862069,,0.0017781980021791275,514.759,0.45500001311302185,-2.6080753932826104
515.327586,,0.004275235614999661,515.223,0.4699999988079071,-2.575118014817062
515.793103,,0.0048650486331415456,515.685,0.45500001311302185,-2.6075470216537084
516.258621,,0.0018882307182328491,516.151,0.4699999988079071,-2.574651497083169
516.724138,,0.002658458498026877,516.615,0.453000009059906,-2.611514487947997
517.189655,,0.005486192022012759,517.081,0.460999995470047,-2.593958910032565
517.655172,,0.005735166923928272,517.546,0.4560000002384186,-2.6047776122722768
518.1206900000001,,0.005067082342298405,518.012,0.46299999952316284,-2.589506883749476
518.5862070000001,,0.004748775670134059,518.479,0.46399998664855957,-2.5873631222169746
519.051724,,0.004245013761058177,518.945,0.4650000035762787,-2.585273336083528
519.517241,,0.002841406103931362,519.408,0.4580000042915344,-2.6006644028534267
519.982759,,0.001210736358249535,519.871,0.46299999952316284,-2.589959363939885
520.448276,,0.00044912355682576844,520.334,0.47600001096725464,-2.5618668727421428
520.9137929999999,,0.00031879081913147023,520.803,0.4690000116825104,-2.577381807232648
521.37931,,0.0004094476875319481,521.264,0.46700000762939453,-2.582029988367014
521.844828,,0.0018797057923841366,521.734,0.515999972820282,-2.4755840670875986
522.310345,,0.0024148762265462503,522.2,0.460999995470047,-2.595724356375897
522.7758620000001,,0.0005762499873021658,522.662,0.4699999988079071,-2.5764293600194264
523.241379,,0.0025678859211686394,523.128,0.47200000286102295,-2.572374253797338
523.7068969999999,,0.004456235085121403,523.595,0.4880000054836273,-2.5377976207304984
524.172414,,0.004300717826309218,524.06,0.46299999952316284,-2.5925163673109304
524.637931,,0.0037776313816658058,524.519,0.4740000069141388,-2.5687671070539793
525.103448,,0.004011290046255085,524.985,0.5839999914169312,-2.329286332211798
525.568966,,0.003768117989135797,525.45,0.48100000619888306,-2.5538048284812467
526.034483,,0.0018926518359230515,525.915,0.48399999737739563,-2.5473317908190745
526.5,,0.00010932059926599545,526.386,0.4339999854564667,-2.6562733197988795
526.9655170000001,,0.00015965282899922239,526.848,0.46799999475479126,-2.5821553773557513
527.4310340000001,,0.0023872307953065014,527.312,0.47200000286102295,-2.5733449436404614
527.8965519999999,,0.0036232943781455036,527.774,0.4860000014305115,-2.5426978791112806
528.362069,,0.0019832267638891284,528.245,0.515999972820282,-2.4771455332323993
528.827586,,0.0012428625322746273,528.708,0.4830000102519989,-2.5488060379937942
529.293103,,0.0035296100444596364,529.174,0.4880000054836273,-2.5376437634250846
529.7586210000001,,0.0038483794764113503,529.637,0.4779999852180481,-2.5591358734294762
530.224138,,0.0029323412640479764,530.103,0.48899999260902405,-2.5348599540953893
530.689655,,0.001993120624425213,530.568,0.4959999918937683,-2.5192914409061435
531.155172,,0.001793472545731609,531.034,0.546999990940094,-2.407863452959826
531.62069,,0.0020555661170066877,531.5,0.5299999713897705,-2.444592772241192
532.086207,,0.0014583643418060533,531.966,0.4880000054836273,-2.535807364765876
532.5517239999999,,0.000758107183804566,532.43,0.503000020980835,-2.5028688342312932
533.017241,,0.0030856870443181465,532.896,0.48399999737739563,-2.544043086732484
533.482759,,0.0029415455544374147,533.356,0.5019999742507935,-2.5046530636312436
533.9482760000001,,7.411881370778558e-05,533.819,0.5009999871253967,-2.5067083744383094
534.413793,,0.0031669248369778713,534.289,0.4909999966621399,-2.5284265634448224
534.87931,,0.003072957994655593,534.752,0.492000013589859,-2.5262373668626097
535.344828,,0.0006997138155775559,535.219,0.5120000243186951,-2.4827119728102676
535.810345,,0.005417652628330789,535.681,0.5,-2.5089597836403557
536.275862,,0.007466210246177711,536.147,0.5170000195503235,-2.472079807336072
536.7413789999999,,0.005299730341545953,536.611,0.49799999594688416,-2.513679759888408
537.206897,,0.0007311342560613471,537.077,0.5009999871253967,-2.5073920716386193
537.672414,,0.0025456090551046347,537.541,0.5049999952316284,-2.4989610727546667
538.137931,,0.0022449681685526293,538.007,0.5099999904632568,-2.4883779332135374
538.6034480000001,,0.0002857655224064874,538.472,0.492000013589859,-2.5279207725595256
539.0689659999999,,0.0013647887813021523,538.938,0.5289999842643738,-2.447644997289708
539.5344829999999,,0.0011545619637078723,539.401,0.5370000004768372,-2.4305454654773886
540.0,,0.005588327425001579,539.871,0.5239999890327454,-2.459182259173182
540.465517,,0.008460025163526175,540.334,0.5299999713897705,-2.4463999386338466
540.931034,,0.008371276598763038,540.796,0.527999997138977,-2.451013106631097
541.396552,,0.006783866516713231,541.264,0.5440000295639038,-2.4163687938536147
541.862069,,0.005157403448437822,541.726,0.5419999957084656,-2.420891477310848
542.327586,,0.0030682631679013364,542.191,0.5540000200271606,-2.394858662502855
542.7931030000001,,1.760708270348113e-05,542.654,0.5419999957084656,-2.4210557770639536
543.258621,,0.002690872569183012,543.12,0.5019999742507935,-2.5081968047903853
543.7241379999999,,0.0029382122738963257,543.586,0.550000011920929,-2.4035594612930544
544.189655,,0.000810136527657527,544.052,0.5249999761581421,-2.4579080481578495
544.655172,,0.001649573503930414,544.519,0.546999990940094,-2.4098077787093772
545.12069,,0.0027285845409374264,544.985,0.546999990940094,-2.409590607354145
545.5862070000001,,0.0023552810176303857,545.449,0.550000011920929,-2.4027965846750745
546.051724,,0.0017244488677769178,545.915,0.5419999957084656,-2.419935060528968
546.517241,,0.002427848164020736,546.378,0.5540000200271606,-2.393476869442619
546.982759,,0.0051320750555100885,546.841,0.5540000200271606,-2.393148470424264
547.448276,,0.008237425745626236,547.304,0.5730000138282776,-2.3514213996569904
547.9137929999999,,0.008634564282252073,547.774,0.5659999847412109,-2.366344764888667
548.3793099999999,,0.004869551182059243,548.235,0.47200000286102295,-2.570827972097418
548.844828,,0.0007946107151138629,548.704,0.5540000200271606,-2.3918982165472293
549.310345,,0.004348486119027965,549.17,0.5730000138282776,-2.3502597914814736
549.775862,,0.003818457294617978,549.63,0.5640000104904175,-2.3696654156375834
550.241379,,0.00039584751163886263,550.095,0.5820000171661377,-2.3302953049305355
550.706897,,0.003460891110836006,550.56,0.5659999847412109,-2.365051810002778
551.172414,,0.005664352062955945,551.026,0.5630000233650208,-2.371541751084999
551.637931,,0.004862427048523405,551.493,0.5789999961853027,-2.33669518918725
552.103448,,0.0011815172176443383,551.959,0.5730000138282776,-2.3498358501833407
552.568966,,0.0031946814813246694,552.419,0.5419999957084656,-2.417498396994454
553.034483,,0.005692291035434627,552.884,0.5640000104904175,-2.3697452174769427
553.5,,0.00589054304701994,553.352,0.5460000038146973,-2.409185562855495
553.965517,,0.005463639629231259,553.815,0.5759999752044678,-2.3440911585352104
554.4310340000001,,0.005729235716103651,554.285,0.5460000038146973,-2.409747603179458
554.896552,,0.006342432775116498,554.748,0.5540000200271606,-2.392638694542445
555.3620689999999,,0.00642021474044411,555.214,0.5669999718666077,-2.3646500903213874
555.827586,,0.005902075400668042,555.68,0.5910000205039978,-2.3126981078927247
556.293103,,0.005488800381560584,556.146,0.5669999718666077,-2.3653123619684795
556.758621,,0.005887180394335992,556.604,0.5669999718666077,-2.3656201106683445
557.224138,,0.007256122822308992,557.069,0.5690000057220459,-2.3615425364812186
557.689655,,0.008758956700896945,557.536,0.5540000200271606,-2.394465606892656
558.155172,,0.00863451712477608,558.001,0.550000011920929,-2.403380167145241
558.6206900000001,,0.005629461150207968,558.468,0.5490000247955322,-2.405709494778207
559.0862070000001,,0.0007098327266383136,558.933,0.5960000157356262,-2.303408912520122
559.5517239999999,,0.003377027215036399,559.397,0.5490000247955322,-2.405842553885574
560.017241,,0.004606675775961468,559.859,0.5529999732971191,-2.3971059697028254
560.482759,,0.0033077714292025196,560.33,0.5540000200271606,-2.394847123662973
560.948276,,0.0012757539460525726,560.792,0.5460000038146973,-2.4121406112431947
561.413793,,0.00021102352149448672,561.256,0.5690000057220459,-2.3618441493998508
561.87931,,0.0013415923429318038,561.726,0.5540000200271606,-2.3942897228717124
562.344828,,0.002867802618592842,562.184,0.5490000247955322,-2.4049094940486726
562.8103450000001,,0.004359744588052903,562.655,0.5540000200271606,-2.393712114764443
563.275862,,0.003928321116033295,563.114,0.5339999794960022,-2.4369598755902975
563.7413789999999,,0.00032358644362905396,563.585,0.5419999957084656,-2.41919455376524
564.206897,,0.0049637983601206245,564.044,0.5410000085830688,-2.421036603851142
564.672414,,0.008451307416846708,564.509,0.5379999876022339,-2.427245708630335
565.137931,,0.0077946882093271495,564.974,0.5460000038146973,-2.409509173364863
565.603448,,0.0040470534013972706,565.442,0.5199999809265137,-2.4658759435431503
566.068966,,0.0006390426086448059,565.908,0.5199999809265137,-2.4656361765504435
566.534483,,0.00011900655479802746,566.371,0.527999997138977,-2.4480131351127046
567.0,,0.002143281190502965,566.84,0.5339999794960022,-2.4347987987551685
567.465517,,0.004587231265911738,567.301,0.5239999890327454,-2.456498140091504
567.931034,,0.0058205013862416876,567.77,0.5130000114440918,-2.480434422779663
568.396552,,0.005381868717931256,568.234,0.5059999823570251,-2.49571597503263
568.862069,,0.003237138353783703,568.696,0.503000020980835,-2.502341907466332
569.327586,,0.0003250690360224321,569.162,0.4959999918937683,-2.5177390809096596
569.793103,,0.003942475621442704,569.627,0.5139999985694885,-2.4787216495372526
570.2586210000001,,0.005519169378517933,570.092,0.5130000114440918,-2.4811433314269835
570.724138,,0.004193128809473415,570.559,0.49000000953674316,-2.5315324801119536
571.189655,,0.0015035698673628256,571.025,0.5070000290870667,-2.4948044129739158
571.655172,,4.322011638438554e-05,571.489,0.5080000162124634,-2.4929535793554356
572.12069,,0.0007225183060177362,571.955,0.5059999823570251,-2.4976468282270607
572.586207,,0.0028986375925842667,572.42,0.503000020980835,-2.5045161796419566
573.051724,,0.004336088006631273,572.886,0.4909999966621399,-2.530981011491519
573.517241,,0.0030968943144154483,573.348,0.4970000088214874,-2.5182078973461275
573.982759,,0.000900357154351304,573.811,0.492000013589859,-2.529368485485328
574.4482760000001,,0.005315606654201807,574.279,0.492000013589859,-2.529596079633746
574.913793,,0.007161691072913675,574.741,0.4950000047683716,-2.5232408956491255
575.37931,,0.0055632860646725145,575.206,0.5080000162124634,-2.4950463118473465
575.844828,,0.0026269149445483685,575.669,0.47200000286102295,-2.5735488704210914
576.310345,,0.0015109338064571247,576.135,0.4830000102519989,-2.5495968330608814
576.775862,,0.0035295914692372345,576.6,0.4950000047683716,-2.5234077659176783
577.241379,,0.006873970987297421,577.066,0.4779999852180481,-2.560342212134074
577.706897,,0.008067722689108702,577.531,0.503000020980835,-2.5057190534494813
578.172414,,0.0049565506100705875,577.996,0.4699999988079071,-2.5774083354602877
578.6379310000001,,0.0011840476661684545,578.463,0.5460000038146973,-2.4115812118348297
579.1034480000001,,0.0062436134273847355,578.929,0.4699999988079071,-2.57687220709964
579.5689659999999,,0.0065937745465024095,579.389,0.47999998927116394,-2.5547730014670327
580.034483,,0.0026039901719471627,579.859,0.4339999854564667,-2.6546634755538085
580.5,,0.0014541532422066943,580.322,0.46399998664855957,-2.5889731161477862
580.965517,,0.0018407999301966165,580.785,0.4729999899864197,-2.5690407195586333
581.431034,,0.0005903684782882199,581.253,0.47999998927116394,-2.553480918497515
581.896552,,0.0018363392613660703,581.715,0.48100000619888306,-2.5510172888801463
582.362069,,9.777640076900485e-05,582.181,0.46799999475479126,-2.579087904272744
582.827586,,0.0020102034663183866,582.647,0.49000000953674316,-2.5309465548773513
583.2931030000001,,0.0013929165237193534,583.112,0.46399998664855957,-2.587427563790011
583.758621,,0.0010860346037425642,583.578,0.4860000014305115,-2.5393855165907615
584.2241379999999,,0.001995023577109582,584.044,0.47699999809265137,-2.55893696415884
584.689655,,0.00024294135057810194,584.509,0.4650000035762787,-2.585081418250113
585.155172,,0.001712153535145053,584.974,0.49000000953674316,-2.530672915089878
585.6206900000001,,0.001543429160323294,585.434,0.4749999940395355,-2.5634651419749
586.0862070000001,,0.0001295211621825442,585.9,0.46399998664855957,-2.587594171794407
586.551724,,0.0011965742785359993,586.367,0.46700000762939453,-2.5812689321001443
587.017241,,0.0007722864177498297,586.83,0.4690000116825104,-2.577162694992376
587.482759,,0.00046540296069078513,587.3,0.46399998664855957,-2.5883394769350625
587.948276,,0.0016121401463164793,587.763,0.4699999988079071,-2.575574617781542
588.4137929999999,,0.0020690695099142074,588.231,0.41499999165534973,-2.695722289851812
588.87931,,0.0012800851514787148,588.693,0.4909999966621399,-2.530472222533819
589.344828,,0.0008094689689798918,589.158,0.46700000762939453,-2.5830807746933595
589.810345,,0.0030401028560753897,589.623,0.45500001311302185,-2.6095288987178042
590.2758620000001,,0.003769384051475692,590.089,0.46299999952316284,-2.592378657389404
590.741379,,0.002585739250843637,590.556,0.46399998664855957,-2.5904447177864074
591.2068969999999,,0.0008916206953864945,591.014,0.46399998664855957,-2.5906473164735884
591.672414,,0.0007649220109610546,591.479,0.4779999852180481,-2.5603001328448753
592.137931,,0.0032718501142292556,591.944,0.4779999852180481,-2.5604000201812553
592.603448,,0.007508074520273284,592.416,0.47200000286102295,-2.573514520767367
593.068966,,0.011251820817197479,592.874,0.46299999952316284,-2.593106904944898
593.534483,,0.01293231641732982,593.345,0.45899999141693115,-2.6017490426201686
594.0,,0.01282108462949462,593.807,0.4699999988079071,-2.5776568681041816
594.4655170000001,,0.011964201993158301,594.275,0.4519999921321869,-2.6166950697399516
594.9310340000001,,0.010410403267401733,594.737,0.46700000762939453,-2.583793128962501
595.3965519999999,,0.007259414560139042,595.203,0.4779999852180481,-2.5595677761483047
595.862069,,0.0024680532072921496,595.666,0.4560000002384186,-2.6072075873841483
596.327586,,0.002106497825511137,596.132,0.45100000500679016,-2.617790050290718
596.793103,,0.004161808027616258,596.597,0.46399998664855957,-2.5891466498622755
597.2586210000001,,0.003481903024944122,597.062,0.46399998664855957,-2.5888250700587605
597.724138,,0.002376490284665592,597.526,0.4749999940395355,-2.564547343082546
598.189655,,0.0032574972415094355,597.992,0.46399998664855957,-2.5882184869794296
598.655172,,0.006261721881496403,598.457,0.4729999899864197,-2.568344386856696
599.12069,,0.009517131882296921,598.922,0.47699999809265137,-2.5593993863689013
599.586207,,0.011140406725370294,599.389,0.47600001096725464,-2.561390379345844
600.0517239999999,,0.010622081229664779,599.852,0.4650000035762787,-2.5852167077913952
600.517241,,0.008857792585736088,600.315,0.45500001311302185,-2.6069181252386358
600.982759,,0.007460413461762784,600.785,0.47699999809265137,-2.5589594374258193
601.448276,,0.007812810045776263,601.249,0.47999998927116394,-2.5524518913693206
601.913793,,0.009943512801897033,601.711,0.46299999952316284,-2.5895730289436125
602.37931,,0.011888675895682323,602.177,0.46000000834465027,-2.596246852890382
602.844828,,0.010877868091034902,602.64,0.4650000035762787,-2.58554133303259
603.310345,,0.006197071107379031,603.106,0.46399998664855957,-2.58795158266086
603.775862,,0.0007153702671854705,603.57,0.4620000123977661,-2.5925769726081795
604.2413789999999,,0.0014802694809896567,604.036,0.4790000021457672,-2.5558360646599376
604.706897,,0.0007050062163520951,604.501,0.46700000762939453,-2.582294255747563
605.172414,,0.004061064332043101,604.967,0.47200000286102295,-2.57172392755254
605.637931,,0.00431993849246391,605.435,0.4690000116825104,-2.57858124428075
606.1034480000001,,0.0005531363398230538,605.9,0.49000000953674316,-2.533139052540131
606.5689659999999,,0.003993219636143035,606.363,0.47999998927116394,-2.555212863690307
607.0344829999999,,0.005498857543506719,606.826,0.4429999887943268,-2.6360797194807235
607.5,,0.0035907989541932458,607.289,0.46399998664855957,-2.590547665204564
607.965517,,0.0013908914643896834,607.759,0.4749999940395355,-2.5667576709238036
608.431034,,0.0018376812059042818,608.227,0.45899999141693115,-2.6017408248919325
608.896552,,0.004689565384079583,608.689,0.4830000102519989,-2.5495235856177643
609.362069,,0.007446287025123004,609.155,0.4569999873638153,-2.606182188434807
609.827586,,0.008462141067982897,609.62,0.45899999141693115,-2.601781879204238
610.293103,,0.008098100149783509,610.085,0.45500001311302185,-2.6103985462551393
610.758621,,0.007156916760447436,610.545,0.46399998664855957,-2.590640939260254
611.2241379999999,,0.005821288867467573,611.011,0.4729999899864197,-2.5708354976043055
611.689655,,0.004558976050645995,611.478,0.46000000834465027,-2.598918359185901
612.155172,,0.004516017870315276,611.944,0.46000000834465027,-2.598644588255594
612.62069,,0.005976019104569561,612.404,0.4699999988079071,-2.5765586339635362
613.0862070000001,,0.007286396260387442,612.874,0.4690000116825104,-2.578420973172823
613.551724,,0.006399130263773204,613.337,0.44600000977516174,-2.628206912112082
614.017241,,0.0033793109898878192,613.8,0.4390000104904175,-2.643138769023456
614.4827590000001,,0.0005605265957456413,614.268,0.4440000057220459,-2.631941619833815
614.948276,,0.00021289849067870068,614.731,0.4490000009536743,-2.620768461700422
615.4137929999999,,0.00015976715245849386,615.197,0.4569999873638153,-2.6030915281173295
615.8793099999999,,0.0005498944025450383,615.659,0.45399999618530273,-2.6094190818935226
616.344828,,0.0026711321279988143,616.125,0.4650000035762787,-2.5852910542605385
616.810345,,0.004244714387488349,616.589,0.4620000123977661,-2.5917142688670327
617.275862,,0.004041051330066604,617.055,0.4519999921321869,-2.61344175527104
617.741379,,0.003457843696237181,617.519,0.46700000762939453,-2.580758516245961
618.206897,,0.004396003194395764,617.984,0.4429999887943268,-2.6330983946396374
618.672414,,0.0061876712588008285,618.449,0.46000000834465027,-2.596167944250824
619.137931,,0.00624406290095965,618.914,0.35499998927116394,-2.8250856045701673
619.603448,,0.00383872596350264,619.382,0.45100000500679016,-2.6161443120737515
620.068966,,0.0015375334023980066,619.845,0.45100000500679016,-2.6163947333826436
620.534483,,0.0016775499179445736,620.315,0.4519999921321869,-2.614498106018344
621.0,,0.002793044250580055,620.778,0.44699999690055847,-2.6256960296003498
621.465517,,0.0017140497077769992,621.241,0.44699999690055847,-2.6260139612006825
621.9310340000001,,0.0013963456172229544,621.704,0.4490000009536743,-2.6219778766412563
622.396552,,0.00285539083695261,622.17,0.4659999907016754,-2.585254896198393
622.862069,,0.0007002944667025893,622.637,0.4390000104904175,-2.6443752331487835
623.327586,,0.002576666478314908,623.103,0.4659999907016754,-2.58582235118154
623.793103,,0.003743489123519217,623.568,0.45899999141693115,-2.6013084849138646
624.258621,,0.0029922528224997735,624.034,0.46399998664855957,-2.5906082335169405
624.724138,,0.0025558341938956633,624.5,0.4390000104904175,-2.6452193253050034
625.189655,,0.002810511545591139,624.959,0.4620000123977661,-2.5952032994494347
625.655172,,0.002048768400355779,625.43,0.453000009059906,-2.6148491338939106
626.1206900000001,,0.0004710669351030832,625.889,0.44999998807907104,-2.62136717780848
626.5862070000001,,0.003333634237411363,626.356,0.44699999690055847,-2.6278303467055335
627.0517239999999,,0.005004965126918782,626.819,0.46299999952316284,-2.5928467463037252
627.5172409999999,,0.005502881655340065,627.289,0.45500001311302185,-2.610101987186427
627.982759,,0.005470032379425473,627.752,0.44999998807907104,-2.620778381465536
628.448276,,0.004799257905077693,628.218,0.43799999356269836,-2.646669800493775
628.913793,,0.0031569845712244356,628.681,0.4410000145435333,-2.639854521232412
629.37931,,0.0010835665491088938,629.147,0.45100000500679016,-2.6177705929709743
629.844828,,0.0006408088811625222,629.612,0.4620000123977661,-2.593498516533828
630.3103450000001,,0.002251226399594444,630.077,0.4339999854564667,-2.654193899938173
630.7758620000001,,0.0041615166906933,630.545,0.4429999887943268,-2.634289496340684
631.2413789999999,,0.005035695756700338,631.011,0.43799999356269836,-2.6449059486874393
631.706897,,0.002549327895907832,631.471,0.4099999964237213,-2.705660160250347
632.172414,,0.0031601143509963478,631.937,0.4390000104904175,-2.642268300447001
632.637931,,0.008185013244433811,632.4,0.46700000762939453,-2.5810973081153827
633.103448,,0.008323277970619495,632.87,0.4729999899864197,-2.5679020601906783
633.568966,,0.0034879375610173237,633.33,0.45899999141693115,-2.5983282447073046
634.034483,,0.0023175204353923905,633.8,0.46399998664855957,-2.587410987793307
634.5,,0.005286062601246096,634.26,0.453000009059906,-2.611403747399228
634.9655170000001,,0.0051219722678090725,634.73,0.45500001311302185,-2.6071250286135004
635.431034,,0.004019807254429523,635.195,0.4090000092983246,-2.707470801560882
635.8965519999999,,0.00357914860692991,635.658,0.4480000138282776,-2.6226775066162133
636.362069,,0.0036495427231910973,636.124,0.453000009059906,-2.611998171659854
636.827586,,0.0036164737602019516,636.589,0.44600000977516174,-2.627494885379586
637.293103,,0.0035579354634410554,637.055,0.46399998664855957,-2.5885497408924465
637.7586210000001,,0.0037526224053581058,637.519,0.45100000500679016,-2.617158161219523
638.224138,,0.0038468122927786796,637.985,0.45100000500679016,-2.6174509378747652
638.689655,,0.003317637003624555,638.445,0.4480000138282776,-2.6242776170579036
639.155172,,0.00242551316526572,638.911,0.44999998807907104,-2.620200197208833
639.62069,,0.0018570005606306668,639.378,0.44699999690055847,-2.6269964567369346
640.086207,,0.001655322322684945,639.84,0.4620000123977661,-2.594549356196016
640.551724,,0.0014301624223395535,640.308,0.4790000021457672,-2.5577094648822607
641.017241,,0.0013562437643423982,640.77,0.46299999952316284,-2.592722907957894
641.482759,,0.001830460331436037,641.234,0.44600000977516174,-2.6298689580089722
641.9482760000001,,0.002266473907463629,641.704,0.4490000009536743,-2.623393858856718
642.413793,,0.0014467566840596386,642.169,0.46399998664855957,-2.5907251329217345
642.87931,,0.0007305609811762659,642.634,0.453000009059906,-2.6146509259284407
643.344828,,0.002762457088538734,643.099,0.45399999618530273,-2.612384372636224
643.810345,,0.0030316203261378676,643.563,0.45100000500679016,-2.61878699360692
644.275862,,0.0011773453869473266,644.029,0.4569999873638153,-2.605540847368554
644.7413789999999,,0.001985021852406927,644.494,0.46299999952316284,-2.592259022308264
645.206897,,0.004959351678669548,644.959,0.4410000145435333,-2.6399505477882417
645.672414,,0.005688193241681171,645.419,0.45100000500679016,-2.617904619718287
646.1379310000001,,0.0024712362016129363,645.885,0.46299999952316284,-2.591488614420731
646.6034480000001,,0.003891864933595282,646.353,0.4569999873638153,-2.60428350145621
647.0689659999999,,0.009460959674680762,646.816,0.5419999957084656,-2.418823457071524
647.534483,,0.0102899627910472,647.286,0.44999998807907104,-2.6189937360238384
648.0,,0.006412957836808915,647.748,0.4300000071525574,-2.66232107886734
648.465517,,0.0016837162879088522,648.215,0.4569999873638153,-2.603281451658322
648.931034,,0.0002806248510104594,648.68,0.4560000002384186,-2.6052794134380024
649.396552,,0.001093532811828478,649.146,0.45500001311302185,-2.6073178830771813
649.862069,,0.004278028820892717,649.604,0.44699999690055847,-2.6246518457958974
650.327586,,0.0076263447938808085,650.07,0.45899999141693115,-2.598460512623837
650.7931030000001,,0.009832064714183958,650.534,0.45899999141693115,-2.5984615844465226
651.258621,,0.00987980524228547,650.999,0.46700000762939453,-2.5810813593451654
651.7241379999999,,0.007839190578791795,651.464,0.46399998664855957,-2.587712234391561
652.189655,,0.005226305190329892,651.93,0.44600000977516174,-2.627065703671644
652.655172,,0.003655406106820618,652.4,0.45399999618530273,-2.609813356984929
653.12069,,0.0033281907901788694,652.863,0.4519999921321869,-2.614380787351206
653.5862070000001,,0.0032645313406558883,653.33,0.4560000002384186,-2.605902672759632
654.051724,,0.0025118835671019226,653.792,0.453000009059906,-2.6126938440607392
654.517241,,0.0007881489579616107,654.26,0.453000009059906,-2.6129597354143184
654.982759,,0.0012792266314076708,654.723,0.4560000002384186,-2.606691918173305
655.448276,,0.002073501035592758,655.188,0.45100000500679016,-2.6178470073588644
655.9137929999999,,0.0001554801838214788,655.652,0.4169999957084656,-2.692169239487453
656.37931,,0.0035753125933533914,656.117,0.4440000057220459,-2.633573193868943
656.844828,,0.005756491183768311,656.582,0.4429999887943268,-2.635951263564002
657.310345,,0.003946443903136033,657.047,0.46399998664855957,-2.5903637863163236
657.7758620000001,,0.00028385160711452825,657.511,0.44699999690055847,-2.6275241543001617
658.241379,,0.003054267739498344,657.977,0.4440000057220459,-2.634139134743899
658.7068969999999,,0.0027519948832361936,658.445,0.46299999952316284,-2.5927772548225025
659.172414,,0.0013573289161794753,658.91,0.48399999737739563,-2.547009515569987
659.637931,,0.0013037743550168338,659.371,0.46399998664855957,-2.5905177727150406
660.103448,,0.0028532524011421743,659.841,0.4480000138282776,-2.625265631233381
660.568966,,0.004920180090598086,660.301,0.4440000057220459,-2.6338288459864487
661.034483,,0.006744167093095891,660.77,0.4490000009536743,-2.6227486661139854
661.5,,0.007917799256447252,661.234,0.46299999952316284,-2.592030848352485
661.965517,,0.007942467517269939,661.696,0.4659999907016754,-2.5852547804055437
662.4310340000001,,0.0067919480285053525,662.162,0.4309999942779541,-2.6612520127779935
662.8965519999999,,0.00538960688738241,662.629,0.45100000500679016,-2.617417303879432
663.362069,,0.004556698990812708,663.089,0.4490000009536743,-2.621515032792828
663.827586,,0.003728033751541429,663.556,0.46700000762939453,-2.582049518952532
664.293103,,0.0018567947032032913,664.021,0.45100000500679016,-2.616675462582994
664.7586210000001,,0.00042070674498255977,664.487,0.4429999887943268,-2.6338973742155884
665.224138,,0.001023298381175747,664.952,0.4519999921321869,-2.6141142943183513
665.689655,,0.0006733800133525056,665.419,0.4480000138282776,-2.622691054334325
666.155172,,0.0025592211442156147,665.885,0.44699999690055847,-2.6247736274434086
666.62069,,0.002226782297674409,666.345,0.45100000500679016,-2.6160074937338145
667.086207,,0.00022592171931411684,666.815,0.453000009059906,-2.6116445281296388
667.5517239999999,,0.0024673703988305692,667.278,0.46399998664855957,-2.5877192438459744
668.017241,,0.0024236366613162212,667.741,0.44999998807907104,-2.6183039341980554
668.482759,,0.00016056911515471834,668.206,0.45500001311302185,-2.607535392332831
668.948276,,0.002332756533362087,668.669,0.45100000500679016,-2.6164119084229855
669.413793,,0.00316052666897083,669.135,0.4440000057220459,-2.631856352828412
669.87931,,0.0024520643051207675,669.6,0.45500001311302185,-2.6081108925489516
670.3448279999999,,0.0018804826846077222,670.065,0.4519999921321869,-2.614885014650369
670.810345,,0.0022477422259210267,670.53,0.4699999988079071,-2.575917741718728
671.275862,,0.002733849064075959,670.996,0.45399999618530273,-2.611026554688026
671.7413789999999,,0.0029413916093384835,671.461,0.4729999899864197,-2.5698765480141663
672.206897,,0.0038413828986145378,671.926,0.45899999141693115,-2.600607942864095
672.672414,,0.005435446121147604,672.389,0.4560000002384186,-2.6073531473262372
