Trial: ,17
Threshold: ,0.0
Maximum EMG: ,0.015263810811735239
Success: ,True

EMG Time,Raw EMG,Filtered EMG,Force Time,Raw Force (V),Filtered Force (N)
0.0,samples,2.7399064532367794e-06,0.466,0.5379999876022339,-2.4247659268843162
0.46551699999999996,time,2.8099767170034033e-06,0.935,0.546999990940094,-2.405256651685987
0.9310339999999999,value,2.8730578377125e-06,1.398,0.5529999732971191,-2.3923760639178395
1.396552,,2.9286231380339246e-06,1.865,0.5389999747276306,-2.4231555012449766
1.862069,,2.9761499825868935e-06,2.327,0.49000000953674316,-2.5302678372843057
2.327586,,3.015121815282775e-06,2.791,0.5450000166893005,-2.4108713474527583
2.793103,,3.0450302629889613e-06,3.261,0.5540000200271606,-2.3917491175053747
3.258621,,3.0653773008802753e-06,3.719,0.550000011920929,-2.4009897129052034
3.724138,,3.0756774744243926e-06,4.19,0.5540000200271606,-2.3928253349473994
4.189654999999999,,3.075460172527669e-06,4.649,0.5249999761581421,-2.456564427036494
4.655172,,3.064271945949021e-06,5.121,0.5419999957084656,-2.4200770522557815
5.12069,,3.0416788646736856e-06,5.579,0.5540000200271606,-2.3944572315672294
5.586207,,3.0072689075273966e-06,6.046,0.5680000185966492,-2.3644372834777814
6.051723999999999,,2.9606543769064336e-06,6.512,0.5490000247955322,-2.406254573940064
6.517241,,2.9014743311017658e-06,6.976,0.5669999718666077,-2.367390789835371
6.982759,,2.8293970263079706e-06,7.442,0.5669999718666077,-2.3676601236237738
7.448276,,2.7441223600315095e-06,7.906,0.550000011920929,-2.404875510290547
7.913793000000001,,2.645384307250128e-06,8.375,0.5640000104904175,-2.374456705434166
8.379309999999998,,2.5329533403275026e-06,8.837,0.550000011920929,-2.40494129011774
8.844828000000001,,2.406638823356651e-06,9.3,0.5649999976158142,-2.3721466283279153
9.310345,,2.266291371293967e-06,9.764,0.5540000200271606,-2.395901596507496
9.775862,,2.1118051639549962e-06,10.235,0.5370000004768372,-2.4326401387115877
10.241379,,1.943120204675163e-06,10.701,0.5429999828338623,-2.419191085975865
10.706897,,1.7602245131954962e-06,11.165,0.550000011920929,-2.403496014285582
11.172414,,1.5631562421169776e-06,11.63,0.5669999718666077,-2.3659601276543722
11.637931,,1.3520057060793262e-06,12.095,0.5669999718666077,-2.365421128272953
12.103447999999998,,1.126917312662783e-06,12.561,0.5410000085830688,-2.421503485808116
12.568966000000001,,8.880913838866017e-07,13.02,0.5419999957084656,-2.4187571455513215
13.034483,,6.357858570873841e-07,13.486,0.5540000200271606,-2.392057925912314
13.5,,3.7031785390588775e-07,13.958,0.5540000200271606,-2.3915314569814585
13.965517,,9.206510609423853e-08,14.416,0.5410000085830688,-2.419372548936859
14.431034,,1.9853277312169652e-07,14.88,0.5180000066757202,-2.4690609355740194
14.896552,,5.009731833260652e-07,15.35,0.5239999890327454,-2.4556432854297
15.362069,,8.146896079375593e-07,15.813,0.5490000247955322,-2.400916298200805
15.827586000000002,,1.1390508729185671e-06,16.275,0.5450000166893005,-2.4094623622895806
16.293103,,1.4733606039164906e-06,16.741,0.5370000004768372,-2.4268201623861207
16.758621,,1.8168568923416755e-06,17.204,0.5490000247955322,-2.4007043525827805
17.224138,,2.1687121805953716e-06,17.67,0.5419999957084656,-2.4160814375586317
17.689655,,2.5280333763211302e-06,18.135,0.5370000004768372,-2.427195862353536
18.155172,,2.893862205163167e-06,18.601,0.5320000052452087,-2.4383986488111775
18.62069,,3.2651758110747046e-06,19.066,0.5410000085830688,-2.4191793441209195
19.086207,,3.6408876127275476e-06,19.532,0.5690000057220459,-2.3586320348144514
19.551724,,4.0198484240306325e-06,19.999,0.503000020980835,-2.502930113929589
20.017241000000002,,4.400847846169804e-06,20.464,0.5709999799728394,-2.3553268543085983
20.482758999999998,,4.782615937933423e-06,20.925,0.5419999957084656,-2.419072521357067
20.948276,,5.163825170388705e-06,21.394,0.5370000004768372,-2.4305333081167033
21.413793000000002,,5.543092671222151e-06,21.857,0.5540000200271606,-2.3940494931287275
21.87931,,5.918982763254441e-06,22.32,0.5669999718666077,-2.3662484150422354
22.344828,,6.29000980078649e-06,22.791,0.5379999876022339,-2.4299022605994987
22.810344999999998,,6.654641306529769e-06,23.253,0.5440000295639038,-2.41724141546941
23.275862,,7.011301410921549e-06,23.719,0.5440000295639038,-2.41757843128756
23.741379,,7.358374594625762e-06,24.183,0.546999990940094,-2.4112950189907516
24.206897,,7.694209733974086e-06,24.648,0.5540000200271606,-2.3962043690904373
24.672414,,8.017124448011601e-06,25.113,0.5460000038146973,-2.4136960425452965
25.137931,,8.3254097446787e-06,25.579,0.5389999747276306,-2.428910016798855
25.603448,,8.617334962488128e-06,26.044,0.5410000085830688,-2.4244184709449006
26.068966,,8.891153002845638e-06,26.509,0.5720000267028809,-2.3566522028522194
26.534483,,9.145105846917302e-06,26.969,0.6499999761581421,-2.1864000003289656
27.0,,9.377430349669085e-06,27.435,0.531000018119812,-2.44526048478067
27.465517,,9.586364302397874e-06,27.906,0.5249999761581421,-2.4578682923126998
27.931034,,9.770152753741367e-06,28.368,0.5419999957084656,-2.4203181015011372
28.396552,,9.927054577800548e-06,28.832,0.5339999794960022,-2.4372007927265273
28.862069,,1.0055349276636857e-05,29.294,0.5170000195503235,-2.4736749249543815
29.327586,,1.015334400302076e-05,29.762,0.5410000085830688,-2.420825888544159
29.793103000000002,,1.0219380787913479e-05,30.224,0.49000000953674316,-2.531394396884648
30.258620999999998,,1.0251843955763766e-05,30.689,0.5659999847412109,-2.3653099255737384
30.724138,,1.0249167709301626e-05,31.154,0.5440000295639038,-2.412782207305734
31.189655000000002,,1.020984386411568e-05,31.62,0.5669999718666077,-2.362277545538783
31.655172000000004,,1.0132429711915736e-05,32.087,0.5440000295639038,-2.4120644301404575
32.12069,,1.0015555990012295e-05,32.553,0.5540000200271606,-2.3900398660396456
32.586207,,9.857934933195926e-06,33.017,0.5379999876022339,-2.424751518176013
33.051724,,9.658368382877213e-06,33.483,0.5360000133514404,-2.4290580048973798
33.517241000000006,,9.415755927058256e-06,33.946,0.5419999957084656,-2.4160330816178632
33.982759,,9.12910304345553e-06,34.409,0.550000011920929,-2.3987465255933524
34.448276,,8.797529216887341e-06,34.877,0.5410000085830688,-2.418588015417044
34.913793,,8.4202760008834e-06,35.339,0.5379999876022339,-2.425441567745769
35.37931,,7.99671499237551e-06,35.81,0.5389999747276306,-2.4236548509549127
35.844828,,7.526355687293386e-06,36.272,0.5299999713897705,-2.4437170449806294
36.310345,,7.008853183924686e-06,36.738,0.5519999861717224,-2.3962894300537974
36.775862,,6.444015700009738e-06,37.2,0.5460000038146973,-2.4098963542280964
37.241378999999995,,5.831811868735936e-06,37.666,0.5289999842643738,-2.447484595655273
37.706897000000005,,5.172377778080553e-06,38.132,0.5649999976158142,-2.36960366369929
38.172414,,4.466023717330269e-06,38.597,0.5339999794960022,-2.437674350349417
38.637931,,3.713240594087489e-06,39.061,0.5379999876022339,-2.4294585005656932
39.103448,,2.9147059846636515e-06,39.527,0.6050000190734863,-2.2839379646852533
39.568965999999996,,2.0712897804644127e-06,39.991,0.5339999794960022,-2.4390066097602814
40.034483,,1.1840593927968394e-06,40.456,0.5519999861717224,-2.4001003373798295
40.5,,2.5428447848034785e-07,40.924,0.5450000166893005,-2.4155768015694097
40.965517,,7.165588512732345e-07,41.387,0.5540000200271606,-2.396104623554553
41.431034,,1.7267843760240644e-06,41.85,0.5699999928474426,-2.3612872922007835
41.896552,,2.7744927022631027e-06,42.32,0.5299999713897705,-2.448378664081329
42.362069000000005,,3.857568827004292e-06,42.784,0.531000018119812,-2.446052784779452
42.827586000000004,,4.973680364586011e-06,43.246,0.5540000200271606,-2.3957092876558685
43.293103,,6.120276471638542e-06,43.712,0.515999972820282,-2.478183290384221
43.758621,,7.294587504195065e-06,44.175,0.550000011920929,-2.4037242882073064
44.224138,,8.49362543978111e-06,44.641,0.5299999713897705,-2.4468541145702125
44.689655,,9.714185096008359e-06,45.106,0.5299999713897705,-2.446366146819015
45.155172,,1.0952846175720722e-05,45.571,0.5529999732971191,-2.39573933086924
45.620689999999996,,1.220597616709167e-05,46.036,0.5460000038146973,-2.4104570021670804
46.086206999999995,,1.3469734125250371e-05,46.502,0.546999990940094,-2.407746585488059
46.551724,,1.4740075360019404e-05,46.969,0.5529999732971191,-2.3941599894683065
47.017241,,1.6012757052178117e-05,47.434,0.5540000200271606,-2.39149881354451
47.482759,,1.728334481832346e-05,47.895,0.5429999828338623,-2.4150285038949315
47.948276,,1.8547220241885087e-05,48.364,0.5379999876022339,-2.4255466710729383
48.413793,,1.979958938516524e-05,48.825,0.5540000200271606,-2.3903849288630243
48.879310000000004,,2.1035492294418725e-05,49.295,0.5329999923706055,-2.435914040651856
49.344828,,2.2249813506966645e-05,49.758,0.5669999718666077,-2.3617045483279235
49.810345,,2.343729356615352e-05,50.22,0.5450000166893005,-2.4095898467921613
50.275862,,2.4592541546614936e-05,50.686,0.5289999842643738,-2.444495671530857
50.741379,,2.5710048588827175e-05,51.15,0.5460000038146973,-2.4075973041781844
51.206897,,2.678420243826734e-05,51.616,0.5299999713897705,-2.4426814073760736
51.672414,,2.7809302980728774e-05,52.083,0.5540000200271606,-2.3906991140075955
52.137931,,2.8779578761419354e-05,52.549,0.5429999828338623,-2.4150396630336166
52.603448,,2.9689204471428006e-05,53.014,0.5389999747276306,-2.424188051260257
53.068966,,3.053231938098628e-05,53.48,0.5540000200271606,-2.3919872421577715
53.534483,,3.130304669468719e-05,53.942,0.5509999990463257,-2.3990324778659105
54.0,,3.1995513799462714e-05,54.405,0.5460000038146973,-2.4104496110067593
54.465517,,3.2603873371676743e-05,54.869,0.5440000295639038,-2.415329802864191
54.931034,,3.312232530517293e-05,55.339,0.5529999732971191,-2.3962282670572432
55.396552,,3.3545139417540946e-05,55.799,0.5419999957084656,-2.420667413168603
55.862069,,3.386667888724288e-05,56.268,0.550000011920929,-2.403665934895696
56.327586,,3.408142436958882e-05,56.734,0.5460000038146973,-2.4127491473831086
56.793102999999995,,3.418399873488263e-05,57.196,0.527999997138977,-2.45226361405279
57.258621000000005,,3.416919236739089e-05,57.662,0.550000011920929,-2.404553678935473
57.724138,,3.403198895913688e-05,58.131,0.5360000133514404,-2.4351900158740616
58.189655,,3.376759172790485e-05,58.589,0.5429999828338623,-2.419985694735242
58.655172,,3.3371449984275044e-05,59.054,0.5460000038146973,-2.4134054539095766
59.120689999999996,,3.283928596801614e-05,59.519,0.5460000038146973,-2.413272032481011
59.586207,,3.216712186975758e-05,59.984,0.5389999747276306,-2.42830428616432
60.051724,,3.135130694956926e-05,60.45,0.5419999957084656,-2.421471936330689
60.517241,,3.038854465991075e-05,60.921,0.5130000114440918,-2.484287996240622
60.982758999999994,,2.9275919676396192e-05,61.383,0.5350000262260437,-2.4359362789195593
61.448276,,2.801092473597622e-05,61.844,0.5419999957084656,-2.4202200680251313
61.913793,,2.659148717848436e-05,62.313,0.5540000200271606,-2.393579307011179
62.379310000000004,,2.501599508405494e-05,62.776,0.5540000200271606,-2.39306559457777
62.84482800000001,,2.328332289571318e-05,63.239,0.546999990940094,-2.407801080135204
63.310345000000005,,2.139285641348784e-05,63.704,0.5460000038146973,-2.4094789782208816
63.775862000000004,,1.9344517043724065e-05,64.169,0.5699999928474426,-2.3567199135588415
64.241379,,1.7138785184900054e-05,64.634,0.5540000200271606,-2.391149599548668
64.706897,,1.4776722629197958e-05,65.099,0.5389999747276306,-2.4234570494517023
65.172414,,1.225999385736737e-05,65.565,0.5419999957084656,-2.416617006283289
65.637931,,9.590886103070349e-06,66.031,0.5669999718666077,-2.3619240256889174
66.103448,,6.772328061930222e-06,66.497,0.5540000200271606,-2.390102938354297
66.56896599999999,,3.8079071199426347e-06,66.962,0.5329999923706055,-2.435799381327508
67.03448300000001,,7.01884975765774e-07,67.428,0.5320000052452087,-2.4380136948860875
67.5,,2.5407884682938272e-06,67.891,0.5379999876022339,-2.4250677476479647
67.965517,,5.914463071025082e-06,68.354,0.5299999713897705,-2.442709244170142
68.431034,,9.412778395976328e-06,68.824,0.5669999718666077,-2.362390896431589
68.896552,,1.3028655755503219e-05,69.287,0.4880000054836273,-2.534866575623506
69.362069,,1.675429247442995e-05,69.758,0.527999997138977,-2.4481443599620527
69.827586,,2.0581158489797592e-05,70.22,0.5669999718666077,-2.3636484133132174
70.293103,,2.4499995399883535e-05,70.679,0.5669999718666077,-2.364150691542975
70.75862099999999,,2.8500818071840956e-05,71.144,0.5429999828338623,-2.41695588103949
71.22413800000001,,3.257291891291649e-05,71.609,0.5389999747276306,-2.4261887047983475
71.689655,,3.670487490525011e-05,72.076,0.5339999794960022,-2.437585671622795
72.15517200000001,,4.088455749873646e-05,72.541,0.5419999957084656,-2.420630497334153
72.62069,,4.5099145450326665e-05,73.006,0.5410000085830688,-2.4232388944895016
73.086207,,4.9335140691470966e-05,73.472,0.5649999976158142,-2.371323200677178
73.551724,,5.357838729814427e-05,73.935,0.5630000233650208,-2.3759822567011186
74.017241,,5.781409363005892e-05,74.405,0.5540000200271606,-2.395812534558398
74.482759,,6.202685769725552e-05,74.869,0.5419999957084656,-2.4220933425302005
74.94827599999999,,6.620069580327804e-05,75.331,0.5669999718666077,-2.367674760270963
75.41379300000001,,7.031907450459112e-05,75.795,0.5540000200271606,-2.3959535363742637
75.87931,,7.436494591579499e-05,76.265,0.5289999842643738,-2.450287088498038
76.344828,,7.83207863795485e-05,76.73,0.5659999847412109,-2.3694597860524778
76.810345,,8.21686385089389e-05,77.193,0.5389999747276306,-2.4279878696149484
77.275862,,8.58901565983536e-05,77.659,0.5410000085830688,-2.4232662371848064
77.741379,,8.946665538673533e-05,78.124,0.5130000114440918,-2.4838474963084884
78.206897,,9.287916214445864e-05,78.59,0.550000011920929,-2.4027730838499877
78.67241399999999,,9.61084720419776e-05,79.055,0.5440000295639038,-2.4153504482707073
79.137931,,9.913520674489019e-05,79.52,0.5540000200271606,-2.3930537240688836
79.603448,,0.00010193987616617243,79.98,0.5540000200271606,-2.3925429080047507
80.068966,,0.00010450294329208947,80.446,0.5440000295639038,-2.4138334682246643
80.53448300000001,,0.00010680489198372496,80.913,0.5540000200271606,-2.3915811873146056
81.0,,0.00010882629764122325,81.376,0.5370000004768372,-2.428196778757585
81.465517,,0.00011054790060275232,81.839,0.515999972820282,-2.4735848774439395
81.931034,,0.00011195068213491067,82.309,0.574999988079071,-2.344749777352082
82.396552,,0.00011301594285586524,82.772,0.5509999990463257,-2.3968188670155888
82.86206899999999,,0.0001137253834169688,83.235,0.5669999718666077,-2.36182438131413
83.327586,,0.0001140611872530129,83.701,0.5460000038146973,-2.407526399114794
83.79310299999999,,0.00011400610519568157,84.168,0.5379999876022339,-2.4249947842611186
84.258621,,0.000113543541729235,84.634,0.5540000200271606,-2.3902633531670037
84.72413800000001,,0.0001126576426520308,85.094,0.5730000138282776,-2.349079239140665
85.189655,,0.00011133338389224098,85.56,0.5460000038146973,-2.4081892879914077
85.65517200000001,,0.00010955666121110847,86.024,0.5419999957084656,-2.417258755535843
86.12069,,0.00010731438051236933,86.49,0.515999972820282,-2.4743173127492195
86.586207,,0.00010459454846211312,86.955,0.45500001311302185,-2.6076768893129993
87.051724,,0.00010138636310942814,87.421,0.5640000104904175,-2.37070126928035
87.517241,,9.768030418475022e-05,87.891,0.550000011920929,-2.4017166558181624
87.98275899999999,,9.346822273997132e-05,88.354,0.5540000200271606,-2.3935161172942894
88.448276,,8.874342978213715e-05,88.817,0.5389999747276306,-2.4266944375134916
88.913793,,8.350078354104244e-05,89.28,0.5529999732971191,-2.396661201632015
89.37931,,7.773677500028857e-05,89.745,0.5860000252723694,-2.325187710733763
89.844828,,7.144961131147369e-05,90.209,0.5709999799728394,-2.358229707574079
90.310345,,6.463929670220977e-05,90.674,0.5440000295639038,-2.4173448824725274
90.775862,,5.730771048067675e-05,91.139,0.5649999976158142,-2.371806805460279
91.241379,,4.945868173250114e-05,91.604,0.5339999794960022,-2.4394741541680025
91.706897,,4.109806029995492e-05,92.071,0.5320000052452087,-2.4438733274941784
92.17241399999999,,3.223378362887899e-05,92.536,0.5649999976158142,-2.371931533251684
92.63793100000001,,2.2875939065411376e-05,93.002,0.5519999861717224,-2.4001199146988044
93.103448,,1.3036821182609808e-05,93.468,0.5009999871253967,-2.511014311248591
93.568966,,2.730983716464341e-06,93.936,0.5419999957084656,-2.421398453829212
94.03448300000001,,8.024714308339525e-06,94.398,0.5630000233650208,-2.375289003992496
94.5,,1.9211068680164498e-05,94.861,0.5529999732971191,-2.3966608792955344
94.965517,,3.080649674297343e-05,95.324,0.5299999713897705,-2.446311190143692
95.431034,,4.2787011187408986e-05,95.795,0.531000018119812,-2.4436449234950683
95.896552,,5.5126201290863054e-05,96.257,0.5519999861717224,-2.3973917729512335
96.36206899999999,,6.779522199802002e-05,96.723,0.5540000200271606,-2.392533109271423
96.827586,,8.076279122261798e-05,97.186,0.5009999871253967,-2.5075162960437383
97.293103,,9.399519573863385e-05,97.652,0.5659999847412109,-2.365450195537212
97.758621,,0.00010745630601473041,98.117,0.5910000205039978,-2.310573132238006
98.224138,,0.000121107600329579,98.583,0.5320000052452087,-2.4387571898923888
98.689655,,0.00013490819848757093,99.05,0.5379999876022339,-2.4253959112155274
99.155172,,0.0001488149054344382,99.516,0.5400000214576721,-2.420825550285912
99.62069,,0.0001627822650504103,99.98,0.550000011920929,-2.398908542553932
100.086207,,0.000176762624374738,100.445,0.5400000214576721,-2.4206505878382667
100.551724,,0.00019070620848971953,100.906,0.5180000066757202,-2.4686244514438087
101.017241,,0.00020456120626478468,101.369,0.5379999876022339,-2.4251822474613274
101.482759,,0.00021827386713174206,101.839,0.5659999847412109,-2.364393052108553
101.948276,,0.00023178860903100472,102.301,0.550000011920929,-2.3995388838208
102.413793,,0.0002450481376355101,102.769,0.5400000214576721,-2.421678827259371
102.87931,,0.00025799357692418777,103.231,0.5329999923706055,-2.4373388882062903
103.344828,,0.0002705646111402508,103.696,0.5440000295639038,-2.413826861478391
103.810345,,0.0002826996381313518,104.162,0.5649999976158142,-2.3685577583966237
104.275862,,0.0002943359340288232,104.628,0.5410000085830688,-2.4213418309932195
104.741379,,0.0003054098291818858,105.095,0.5490000247955322,-2.4044084669804326
105.206897,,0.00031585689521994754,105.56,0.5659999847412109,-2.367851556101533
105.672414,,0.0003256121430720175,106.024,0.5730000138282776,-2.3530497505431427
106.13793100000001,,0.000334610231726931,106.49,0.5490000247955322,-2.405741252797594
106.603448,,0.0003427856874716352,106.954,0.5339999794960022,-2.43876914774839
107.068966,,0.00035007313329733417,107.42,0.546999990940094,-2.4107292597868364
107.534483,,0.0003564075281149749,107.88,0.5540000200271606,-2.395687029535578
108.0,,0.0003617244153725035,108.35,0.550000011920929,-2.404529254616032
108.46551699999999,,0.0003659601806166825,108.813,0.5339999794960022,-2.439431184330428
108.931034,,0.00036905231749219245,109.275,0.5360000133514404,-2.4350326262957402
109.396552,,0.0003709397016204053,109.741,0.5419999957084656,-2.4218364144635385
109.862069,,0.0003715628717497847,110.205,0.5419999957084656,-2.4216324811323378
110.32758600000001,,0.00037086431751951886,110.67,0.5410000085830688,-2.4235337210762062
110.793103,,0.00036878877312791335,111.135,0.5540000200271606,-2.3948686338626786
111.258621,,0.00036528351614745837,111.601,0.5320000052452087,-2.4424013883031503
111.724138,,0.0003602986706795343,112.065,0.5389999747276306,-2.4267108526084464
112.189655,,0.00035378751399364316,112.531,0.5540000200271606,-2.393561573613181
112.655172,,0.0003457067857490612,112.998,0.5540000200271606,-2.393076158763016
113.12069,,0.00033601699885111994,113.464,0.5419999957084656,-2.418733137127835
113.586207,,0.0003246827509501608,113.924,0.5109999775886536,-2.485798634484466
114.051724,,0.00031167303554879844,114.394,0.5490000247955322,-2.402566225017714
114.51724100000001,,0.0002969615516427052,114.854,0.5360000133514404,-2.430486733136233
114.982759,,0.0002805270107819227,115.324,0.5540000200271606,-2.3909221568906407
115.448276,,0.00026235344040395636,115.787,0.5669999718666077,-2.3623137175375857
115.913793,,0.00024243048225684743,116.25,0.5460000038146973,-2.407850014139277
116.37931,,0.00022075368470028057,116.716,0.5519999861717224,-2.3946405562956286
116.84482799999999,,0.00019732478764581293,117.182,0.5440000295639038,-2.4120141319344808
117.310345,,0.00017215199887374739,117.648,0.5400000214576721,-2.420757204818256
117.77586199999999,,0.00014525026044425018,118.109,0.5400000214576721,-2.420869073249849
118.241379,,0.00011664150390424911,118.574,0.5540000200271606,-2.390559703375719
118.70689700000001,,8.635489297965046e-05,119.039,0.550000011920929,-2.3995396664219903
119.172414,,5.442705243473012e-05,119.505,0.5419999957084656,-2.4172999532668675
119.63793100000001,,2.0902281777445907e-05,119.969,0.5450000166893005,-2.4111511276690334
120.103448,,1.416724750891753e-05,120.435,0.49000000953674316,-2.5314095973239206
120.568966,,5.0721312520832066e-05,120.903,0.5419999957084656,-2.4185862246506558
121.034483,,8.869147857787839e-05,121.365,0.5440000295639038,-2.414713807907477
121.5,,0.00012800095923904718,121.835,0.550000011920929,-2.402129696591836
121.96551699999999,,0.00016856449795403885,122.298,0.5490000247955322,-2.4047838832417705
122.431034,,0.00021028827258319873,122.762,0.5339999794960022,-2.437912965666107
122.896552,,0.0002530698239860443,123.224,0.5540000200271606,-2.3947494798012454
123.362069,,0.0002967980098394973,123.69,0.5669999718666077,-2.3667840201507833
123.827586,,0.00034135298480166367,124.157,0.550000011920929,-2.40411386032556
124.293103,,0.00038660620808382443,124.623,0.5410000085830688,-2.4239424104051266
124.758621,,0.0004324204794334066,125.088,0.5460000038146973,-2.413191673338975
125.22413800000001,,0.00047865000446793026,125.554,0.5730000138282776,-2.354427684678495
125.68965500000002,,0.0005251404902347396,126.021,0.5460000038146973,-2.413225565004288
126.15517200000001,,0.0005717292717961267,126.479,0.5400000214576721,-2.4261880293759504
126.62069000000001,,0.0006182454705472027,126.947,0.5440000295639038,-2.417284378217079
127.086207,,0.0006645101848745805,127.409,0.5339999794960022,-2.4388082552177996
127.55172400000001,,0.0007103367136801653,127.876,0.5669999718666077,-2.3665841188601737
128.017241,,0.0007555308132236268,128.339,0.546999990940094,-2.409771630563588
128.48275900000002,,0.0007998909876312869,128.809,0.5419999957084656,-2.420234636110952
128.948276,,0.00084320881324513,129.272,0.5540000200271606,-2.393629121882552
129.413793,,0.0008852692968164199,129.738,0.5329999923706055,-2.438901693820527
129.87931,,0.0009258512675105917,130.2,0.546999990940094,-2.4079187872445704
130.344828,,0.0009647278027350522,130.666,0.5370000004768372,-2.4292353027069216
130.81034499999998,,0.001001666687630684,131.131,0.5540000200271606,-2.3917540437779845
131.275862,,0.001036430907543631,131.597,0.5400000214576721,-2.4218498592523714
131.741379,,0.0010687791724212422,132.061,0.5540000200271606,-2.3909944863965067
132.206897,,0.0010984664725412693,132.527,0.5540000200271606,-2.3907015085524583
132.67241399999997,,0.0011252446657967605,132.991,0.5419999957084656,-2.416622386368656
133.13793099999998,,0.0011488630961193154,133.457,0.5540000200271606,-2.390332449037832
133.60344800000001,,0.0011690692401018414,133.924,0.574999988079071,-2.3445153712924567
134.06896600000002,,0.0011856093778415736,134.387,0.5249999761581421,-2.453464770158752
134.53448300000002,,0.0011982292880300812,134.85,0.5130000114440918,-2.479708979336635
135.0,,0.0012066749722993797,135.32,0.5090000033378601,-2.488606048194218
135.465517,,0.0012106934092160535,135.784,0.550000011920929,-2.3995398157302725
135.931034,,0.0012100333240321899,136.246,0.5370000004768372,-2.4281874670066657
136.396552,,0.001204445958048592,136.712,0.5429999828338623,-2.415497206672973
136.862069,,0.0011936858486664525,137.175,0.527999997138977,-2.448603548245437
137.327586,,0.0011775116572034416,137.641,0.5419999957084656,-2.418561295524879
137.793103,,0.0011556870459758538,138.105,0.5299999713897705,-2.445182161117546
138.258621,,0.0011279815239754406,138.571,0.5519999861717224,-2.3977322992114245
138.724138,,0.0010941711877467428,139.036,0.5419999957084656,-2.4199876287138404
139.189655,,0.0010540394585317502,139.502,0.5540000200271606,-2.394286553832293
139.655172,,0.0010073780406520184,139.969,0.5299999713897705,-2.4469777079745674
140.12069,,0.0009539880659159845,140.435,0.5149999856948853,-2.4800103561296
140.586207,,0.0008936809262531148,140.898,0.5699999928474426,-2.360476389271061
141.05172399999998,,0.0008262784625324526,141.361,0.5419999957084656,-2.4216991016620177
141.51724099999998,,0.0007516132607167917,141.828,0.5419999957084656,-2.421841856138972
141.982759,,0.0006695303295230216,142.291,0.5640000104904175,-2.373972425953519
142.44827600000002,,0.0005798896234772271,142.761,0.5379999876022339,-2.430594348655585
142.913793,,0.00048256635561080206,143.224,0.550000011920929,-2.4043448272333703
143.37931,,0.0003774477564411014,143.69,0.5419999957084656,-2.4215893030307845
143.844828,,0.0002644314827904917,144.155,0.5709999799728394,-2.358150022365758
144.310345,,0.00014343258124498653,144.62,0.5630000233650208,-2.37525417286704
144.77586200000002,,1.4393806027289532e-05,145.08,0.5339999794960022,-2.438054082675383
145.241379,,0.0001227190631387307,145.545,0.5299999713897705,-2.446344734678289
145.706897,,0.0002679408594764184,146.01,0.5419999957084656,-2.419747522589339
146.172414,,0.0004213150464967181,146.475,0.5690000057220459,-2.3604542333556915
146.637931,,0.0005828504048281891,146.943,0.550000011920929,-2.4013759456844572
147.103448,,0.0007524690109793852,147.406,0.5379999876022339,-2.4270591877792542
147.568966,,0.0009300529423067887,147.869,0.5400000214576721,-2.4222680458422836
148.034483,,0.0011155877717710701,148.338,0.546999990940094,-2.406623841736713
148.5,,0.0013091804022884374,148.799,0.546999990940094,-2.4062817857999
148.965517,,0.0015107777821883222,149.268,0.5419999957084656,-2.416894911899763
149.43103399999998,,0.0017199055548825673,149.734,0.5339999794960022,-2.434114707560234
149.89655199999999,,0.0019360378272817952,150.196,0.5289999842643738,-2.444875874068857
150.362069,,0.002159429542833325,150.662,0.5540000200271606,-2.3903585292046423
150.82758600000003,,0.0023910202907938623,151.128,0.5379999876022339,-2.4252477391921063
151.293103,,0.0026306463411522093,151.594,0.5379999876022339,-2.4253592009217826
151.758621,,0.0028758126948602377,152.054,0.546999990940094,-2.40593997943417
152.224138,,0.003124390732595028,152.52,0.5339999794960022,-2.43452212063005
152.68965500000002,,0.0033792959041723056,152.984,0.5540000200271606,-2.3912715328995695
153.155172,,0.003646673016791115,153.449,0.4560000002384186,-2.6051557424841794
153.62069,,0.003924831298143661,153.917,0.5379999876022339,-2.426927143624456
154.086207,,0.0041991508204153975,154.379,0.5379999876022339,-2.4273774522856337
154.551724,,0.004460773159732461,154.85,0.5350000262260437,-2.4343777894145275
155.017241,,0.004731986005522009,155.312,0.5419999957084656,-2.4195914819045496
155.482759,,0.005048041236642236,155.78,0.5669999718666077,-2.36557411132174
155.948276,,0.0053904562896688185,156.242,0.5450000166893005,-2.4139232499349172
156.413793,,0.005671198596475436,156.708,0.5419999957084656,-2.4208359245088635
156.87931,,0.005857221010836708,157.172,0.5379999876022339,-2.429874099370376
157.34482799999998,,0.006102316443297511,157.638,0.546999990940094,-2.4105269718517572
157.81034499999998,,0.006596180474223389,158.103,0.5429999828338623,-2.4194315149305243
158.275862,,0.007172811711891061,158.568,0.5540000200271606,-2.395579657647139
158.741379,,0.007308745197073436,159.036,0.5509999990463257,-2.4021490293626893
159.20689700000003,,0.0069290234565159686,159.494,0.5379999876022339,-2.430424394329072
159.672414,,0.007060429594841236,159.961,0.5630000233650208,-2.3758324438132252
160.137931,,0.008696642447411264,160.427,0.5519999861717224,-2.399597288766444
160.60344800000001,,0.010463514425502274,160.889,0.5669999718666077,-2.3666487353595933
161.06896600000002,,0.008669551579178833,161.36,0.5360000133514404,-2.433858401173301
161.534483,,0.001381781997401273,161.821,0.5419999957084656,-2.420409956326561
162.0,,0.008140908228875336,162.29,0.5640000104904175,-2.3720667588625965
162.465517,,0.014005702640752828,162.749,0.5669999718666077,-2.3650937710236546
162.931034,,0.013518511988450313,163.214,0.550000011920929,-2.4016828992568566
163.396552,,0.009091174617375913,163.68,0.5410000085830688,-2.420847017425875
163.862069,,0.005032709342919445,164.146,0.546999990940094,-2.4073499044956135
164.327586,,0.003960353239404396,164.612,0.5419999957084656,-2.4178495851163317
164.793103,,0.005772386279001242,165.076,0.5479999780654907,-2.4044279536708855
165.258621,,0.008641427062343332,165.542,0.5730000138282776,-2.349665731460544
165.72413799999998,,0.010831844125003537,166.009,0.5400000214576721,-2.4213276063438993
166.189655,,0.011939840210220053,166.475,0.5400000214576721,-2.421164191958798
166.655172,,0.012325871316109068,166.935,0.550000011920929,-2.3992896003852797
167.12069,,0.011735729082829804,167.405,0.5419999957084656,-2.416708135548524
167.58620699999997,,0.0094923175695441,167.865,0.5299999713897705,-2.4429189627818797
168.051724,,0.006127042690557811,168.335,0.4970000088214874,-2.514957650056592
168.517241,,0.0035959262229788218,168.798,0.5630000233650208,-2.3713817414638
168.98275900000002,,0.0031959025054970193,169.261,0.5289999842643738,-2.445734063410465
169.44827600000002,,0.004093767091047853,169.726,0.5460000038146973,-2.409028873313501
169.913793,,0.004669871829725247,170.189,0.5630000233650208,-2.3723662719958196
170.37931,,0.004627585419588796,170.655,0.5329999923706055,-2.4381304041346303
170.844828,,0.004821243595994188,171.121,0.5540000200271606,-2.3928008745082625
171.310345,,0.005400165924916303,171.587,0.546999990940094,-2.408477722594524
171.775862,,0.005235641822315653,172.053,0.5669999718666077,-2.3653211474626845
172.241379,,0.0033848972868031732,172.519,0.5479999780654907,-2.4071086790414324
172.706897,,0.00044192961968797935,172.984,0.5419999957084656,-2.4205388505177914
173.172414,,0.0019167556385343806,173.45,0.5410000085830688,-2.4230304947972314
173.637931,,0.002485391767222359,173.91,0.5450000166893005,-2.4145741849843114
174.103448,,0.001477993818328765,174.38,0.5379999876022339,-2.430020652907742
174.568966,,9.151657703302573e-05,174.843,0.5419999957084656,-2.421433844057903
175.034483,,0.000690052086668671,175.305,0.5680000185966492,-2.364844606390092
175.5,,0.0006854373213207815,175.769,0.550000011920929,-2.404041915664935
175.96551699999998,,9.407256361192065e-05,176.239,0.5400000214576721,-2.4257373847314483
176.43103399999998,,0.0020585656257156074,176.704,0.5419999957084656,-2.4212205891721625
176.896552,,0.005322439179929033,177.169,0.5419999957084656,-2.4209981121045505
177.36206900000002,,0.00868540757755923,177.634,0.5540000200271606,-2.394576051984329
177.827586,,0.010345500696085846,178.094,0.5339999794960022,-2.4378242401093027
178.293103,,0.009689380854297814,178.56,0.527999997138977,-2.4505357275625004
178.758621,,0.007574392072837381,179.026,0.5360000133514404,-2.4327226667062622
179.224138,,0.004964141157925611,179.492,0.5249999761581421,-2.456292816073859
179.68965500000002,,0.0022750572256372945,179.957,0.5389999747276306,-2.425397855299768
180.155172,,1.661797737823069e-05,180.423,0.5540000200271606,-2.39233703345785
180.62069,,0.0010967750225164528,180.884,0.5149999856948853,-2.476948029747763
181.086207,,0.0010737784087490494,181.353,0.5460000038146973,-2.409089579136841
181.551724,,0.0008887715690452675,181.817,0.5730000138282776,-2.3499906277256946
182.01724099999998,,0.0012931465213540366,182.279,0.5519999861717224,-2.3955188507124774
182.482759,,0.0018259330410376941,182.746,0.5839999914169312,-2.3256368039382393
182.948276,,0.0014688694474889806,183.209,0.5400000214576721,-2.421395062012501
183.413793,,9.932713972400927e-05,183.674,0.5519999861717224,-2.3952157769140365
183.87931,,0.0011339209915898199,184.139,0.5419999957084656,-2.417034663307818
184.34482799999998,,0.0010295716840020533,184.605,0.4650000035762787,-2.584891250572258
184.81034499999998,,0.00020840543444426701,185.072,0.5419999957084656,-2.417302166908015
185.27586200000002,,0.000931579740006617,185.538,0.515999972820282,-2.474173623622456
185.74137900000002,,0.0004161112531289817,186.002,0.5289999842643738,-2.4461290253202774
186.206897,,0.003659287454661059,186.468,0.5669999718666077,-2.363659690253059
186.672414,,0.006695301995073383,186.931,0.5529999732971191,-2.394509683988087
187.137931,,0.007002359674208947,187.394,0.5509999990463257,-2.3992340076734378
187.60344800000001,,0.0037704131326683384,187.862,0.5809999704360962,-2.334247890751619
188.06896600000002,,0.0011336136812403173,188.324,0.5460000038146973,-2.410867823472701
188.534483,,0.0045967410455574195,188.795,0.5529999732971191,-2.3959677521475835
189.0,,0.005046637803051966,189.257,0.5419999957084656,-2.4202561473810893
189.465517,,0.0036364155350705907,189.723,0.5419999957084656,-2.420542745892843
189.931034,,0.002379920985382935,190.186,0.5649999976158142,-2.3706748318500965
190.39655199999999,,0.001554272215566703,190.651,0.5669999718666077,-2.3665049981951545
190.862069,,0.00022998087510050968,191.117,0.5630000233650208,-2.375347477250604
191.327586,,0.0033461313780281444,191.582,0.546999990940094,-2.4102715045223055
191.793103,,0.0056621733298812945,192.047,0.5299999713897705,-2.4473113090848213
192.25862099999998,,0.004827050605881207,192.513,0.5490000247955322,-2.405857888252157
192.72413799999998,,0.0016135420854523476,192.98,0.5540000200271606,-2.3948459823445853
193.189655,,0.0005287019059863914,193.445,0.48899999260902405,-2.5362848584305384
193.655172,,0.00039611749054635574,193.909,0.5329999923706055,-2.440203664841497
194.12069000000002,,0.0026142038204610054,194.372,0.5400000214576721,-2.4246919359865404
194.586207,,0.003191509819583494,194.84,0.5410000085830688,-2.4222190535508368
195.051724,,0.001849377566426594,195.302,0.5329999923706055,-2.4393302529147833
195.517241,,0.0009502380440854044,195.77,0.5339999794960022,-2.4368201247732273
195.98275900000002,,0.0020999082994111974,196.231,0.5540000200271606,-2.3929121454538818
196.448276,,0.003987699960145034,196.697,0.5920000076293945,-2.309794064184267
196.913793,,0.004032057743159448,197.165,0.5490000247955322,-2.403161102509998
197.37931,,0.0016771518434223124,197.63,0.5929999947547913,-2.3070100693438813
197.844828,,0.0005994529093846671,198.094,0.5460000038146973,-2.4091492420588976
198.310345,,9.166621952988609e-05,198.56,0.5379999876022339,-2.4263632575646876
198.775862,,0.003573280271190323,199.024,0.5540000200271606,-2.391339034809447
199.241379,,0.0063224469715161165,199.49,0.5249999761581421,-2.454408603041902
199.706897,,0.0050597252278401245,199.957,0.550000011920929,-2.3998887845300976
200.172414,,0.0003037385339773193,200.416,0.5460000038146973,-2.4086086848875903
200.63793099999998,,0.004183807593750477,200.884,0.5419999957084656,-2.417386544405973
201.103448,,0.0054154155637893475,201.346,0.515999972820282,-2.4741509787101625
201.568966,,0.004050323869474472,201.809,0.5419999957084656,-2.4176781937611977
202.034483,,0.0030250524008527757,202.279,0.5109999775886536,-2.4854354007713266
202.5,,0.003913285995860579,202.745,0.527999997138977,-2.448657304769481
202.965517,,0.005481949203387937,203.209,0.5789999961853027,-2.337835557775678
203.431034,,0.0058267426191657284,203.674,0.5640000104904175,-2.3708236028100576
203.896552,,0.004895288632928958,204.139,0.5540000200271606,-2.3929272389691842
204.36206900000002,,0.004178135941503219,204.605,0.5339999794960022,-2.4368172378571034
204.827586,,0.0044924721661525994,205.065,0.5400000214576721,-2.4240527774541496
205.293103,,0.005043222783446474,205.531,0.5789999961853027,-2.339373453974407
205.758621,,0.0046628552278434425,205.998,0.5669999718666077,-2.3657754138706832
206.224138,,0.003230673504884915,206.464,0.5540000200271606,-2.3943181692454285
206.689655,,0.0015291042400516826,206.925,0.5630000233650208,-2.374887056406214
207.155172,,5.669500016249152e-05,207.394,0.5540000200271606,-2.3946229740301654
207.62069,,0.0014855753515017895,207.858,0.5490000247955322,-2.4055924099929364
208.086207,,0.0033228968932238335,208.32,0.5419999957084656,-2.4208660581751884
208.551724,,0.004564138606444469,208.788,0.5299999713897705,-2.4469802698934173
209.01724099999998,,0.003685422244401839,209.25,0.5419999957084656,-2.4207560215391566
209.482759,,0.00035410381816180185,209.716,0.5080000162124634,-2.4947023768824748
209.948276,,0.003624426358880307,210.182,0.5400000214576721,-2.4248155942829457
210.413793,,0.005711425034668472,210.648,0.5460000038146973,-2.4115364742448517
210.87930999999998,,0.004973435594914415,211.114,0.5419999957084656,-2.4200126123864676
211.344828,,0.0027184928899297847,211.58,0.5379999876022339,-2.4284653471231046
211.810345,,0.0009023453196214479,212.039,0.550000011920929,-2.402044562079146
212.27586200000002,,0.0002645564889517154,212.505,0.5189999938011169,-2.4692996512805965
212.741379,,1.9602798784642184e-05,212.97,0.5640000104904175,-2.370980093272603
213.206897,,0.0009079146369619176,213.435,0.5389999747276306,-2.425176858203321
213.672414,,0.002410946721712837,213.905,0.5669999718666077,-2.363923686439254
214.137931,,0.0029743603731575466,214.367,0.5669999718666077,-2.3636982276525416
214.60344800000001,,0.0011561247909408611,214.836,0.5669999718666077,-2.3635045312132243
215.068966,,0.002667019705795778,215.298,0.5440000295639038,-2.4134575769844067
215.534483,,0.006358416339276918,215.761,0.5389999747276306,-2.4242386164937417
216.0,,0.007924134239030118,216.224,0.5450000166893005,-2.411101403949127
216.465517,,0.007088007938092626,216.689,0.5379999876022339,-2.426335543534967
216.93103399999998,,0.0049719693272501616,217.154,0.5460000038146973,-2.408938714271306
217.39655199999999,,0.0026837629309890247,217.62,0.5199999809265137,-2.465663803797549
217.862069,,0.0005770553274345565,218.088,0.531000018119812,-2.4418241901420377
218.327586,,0.0012818511637325237,218.553,0.5239999890327454,-2.4572417033003946
218.793103,,0.002447193956196631,219.014,0.5389999747276306,-2.424764318332568
219.25862099999998,,0.002337766801576928,219.479,0.5690000057220459,-2.3596347770473214
219.724138,,0.0012337230785435488,219.954,0.5649999976158142,-2.368598194955254
220.18965500000002,,0.0006651716412527091,220.412,0.5809999704360962,-2.333998722990391
220.65517200000002,,0.002184455270848578,220.88,0.5419999957084656,-2.419226886487216
221.12069,,0.005476518343985359,221.342,0.5540000200271606,-2.393338767200187
221.586207,,0.008143059293578213,221.806,0.531000018119812,-2.4436910815324353
222.051724,,0.007894097731956871,222.269,0.5540000200271606,-2.393805964577053
222.517241,,0.004764403703828422,222.734,0.5460000038146973,-2.411432437811268
222.98275900000002,,0.0008382091284428754,223.205,0.5410000085830688,-2.422490464731878
223.448276,,0.001751894720816191,223.671,0.5540000200271606,-2.3942956639563957
223.913793,,0.002069855506936179,224.135,0.5630000233650208,-2.374774228725459
224.37931,,0.0002870166883150476,224.6,0.5429999828338623,-2.4183900368009885
224.844828,,0.0026580991472110287,225.065,0.5299999713897705,-2.4467115555280388
225.31034499999998,,0.005361275322495347,225.531,0.5410000085830688,-2.422702900706796
225.775862,,0.0066638087343622405,225.995,0.5419999957084656,-2.4204400098532215
226.241379,,0.0064445185923881635,226.46,0.531000018119812,-2.4442830246244887
226.706897,,0.0056139715805270584,226.924,0.5199999809265137,-2.468093148982701
227.172414,,0.005177620935836433,227.386,0.5440000295639038,-2.4156226483883123
227.63793099999998,,0.005255551104516453,227.854,0.5260000228881836,-2.4546333721581135
228.103448,,0.00510986257704756,228.316,0.5659999847412109,-2.3672663259165634
228.56896600000002,,0.004252088895321041,228.784,0.5540000200271606,-2.39317869314985
229.03448300000002,,0.003291370032941084,229.247,0.5429999828338623,-2.4169094821996597
229.5,,0.0031772354622909265,229.713,0.550000011920929,-2.401429097879859
229.965517,,0.0036997035760098023,230.176,0.5120000243186951,-2.4840003094913405
230.431034,,0.003644098539755307,230.642,0.5419999957084656,-2.418443105449622
230.896552,,0.0027034576247173536,231.106,0.5419999957084656,-2.418270416574703
231.362069,,0.00213298422207564,231.572,0.550000011920929,-2.400697904456894
231.827586,,0.0027756951562405677,232.039,0.5419999957084656,-2.4180171668504005
232.293103,,0.003433926348965709,232.504,0.5509999990463257,-2.398335646623401
232.758621,,0.002348784792868514,232.969,0.5419999957084656,-2.417907966256097
233.224138,,0.000152890933355447,233.435,0.5410000085830688,-2.4200900603040028
233.689655,,0.0016398338387117314,233.898,0.531000018119812,-2.4419188759980015
234.155172,,0.0003918224679051701,234.361,0.531000018119812,-2.441998761732313
234.62069,,0.0024758721699041845,234.824,0.5419999957084656,-2.418148201089139
235.086207,,0.004168715877963875,235.294,0.5299999713897705,-2.444437107351867
235.55172399999998,,0.003199045425616205,235.758,0.5109999775886536,-2.486002780465912
236.01724099999998,,0.0006894089222145206,236.22,0.5260000228881836,-2.45351561242415
236.482759,,0.0012873450948322465,236.686,0.5419999957084656,-2.418864503433013
236.94827600000002,,0.0020046750215545173,237.15,0.5299999713897705,-2.4452227927763848
237.413793,,0.0022100418758157162,237.616,0.5450000166893005,-2.4127576710660317
237.87931,,0.0024170029935742577,238.081,0.5529999732971191,-2.395536318568401
238.344828,,0.0020701989659614845,238.546,0.531000018119812,-2.4436606737718973
238.810345,,0.0006069341842210558,239.013,0.5690000057220459,-2.36104666708887
239.27586200000002,,0.0014676253422748298,239.479,0.5460000038146973,-2.4113049184924837
239.741379,,0.0030027819506305503,239.94,0.5669999718666077,-2.3656727878435175
240.206897,,0.0031857740318153318,240.41,0.5370000004768372,-2.431118679402678
240.672414,,0.0018389159775684576,240.873,0.5419999957084656,-2.4202774275998613
241.137931,,0.0007186380288868513,241.335,0.5529999732971191,-2.3963289482389976
241.603448,,0.003781422436508696,241.806,0.5370000004768372,-2.4311683979258
242.068966,,0.006559118087140625,242.268,0.5419999957084656,-2.4202222931557413
242.534483,,0.008543902423624758,242.734,0.5429999828338623,-2.4179591563515594
243.0,,0.009457119197326535,243.196,0.515999972820282,-2.476670120598198
243.465517,,0.009057103391929758,243.662,0.5820000171661377,-2.3327422884995834
243.93103399999998,,0.007426561475944732,244.128,0.5389999747276306,-2.42626665964409
244.39655199999999,,0.005436638967311795,244.593,0.5540000200271606,-2.3934138247160504
244.862069,,0.004518554063141612,245.054,0.5329999923706055,-2.4389835123288934
245.327586,,0.00557317894042806,245.52,0.5210000276565552,-2.4649428434576977
245.793103,,0.0080061004791342,245.987,0.5339999794960022,-2.4364402052766425
246.258621,,0.010233607643020844,246.452,0.5299999713897705,-2.4449840011459574
246.724138,,0.011458764955226818,246.921,0.5419999957084656,-2.4186836664570652
247.18965500000002,,0.012398261222050838,247.383,0.5419999957084656,-2.418545724592012
247.655172,,0.013727912825313066,247.851,0.5429999828338623,-2.416251384046838
248.12069,,0.014698948004182876,248.313,0.5320000052452087,-2.440126290138731
248.586207,,0.014418766018608921,248.776,0.5270000100135803,-2.4509576314365793
249.051724,,0.013783971302325528,249.239,0.5460000038146973,-2.409531067378345
249.517241,,0.014599154923320503,249.705,0.5540000200271606,-2.3920988302345667
249.982759,,0.016899680272483723,250.172,0.5630000233650208,-2.3725158109257825
250.44827600000002,,0.018535651938972154,250.638,0.5360000133514404,-2.4313906437067048
250.913793,,0.017751169118833857,251.102,0.5440000295639038,-2.4140376585187764
251.37931000000003,,0.015261447606092552,251.568,0.5400000214576721,-2.4228508540253935
251.844828,,0.01333250865764193,252.032,0.5299999713897705,-2.4447550161659324
252.31034499999998,,0.013300692369358855,252.497,0.5410000085830688,-2.4209225077143706
252.77586200000002,,0.014302840983475989,252.962,0.531000018119812,-2.4428523399799538
253.241379,,0.01412281260841606,253.428,0.5460000038146973,-2.4103218085285727
253.706897,,0.011044344650783399,253.891,0.5419999957084656,-2.4191863085196714
254.172414,,0.005098631678966176,254.361,0.527999997138977,-2.449833396988649
254.63793099999998,,0.0021552072860575957,254.821,0.5239999890327454,-2.458686303881556
255.10344800000001,,0.008945153111148171,255.284,0.5429999828338623,-2.4174184444349653
255.56896600000002,,0.014569078124281465,255.75,0.5379999876022339,-2.428422041551939
256.03448299999997,,0.019690875943865743,256.215,0.5400000214576721,-2.4241555811357585
256.5,,0.025428519586801097,256.68,0.5389999747276306,-2.426403377748058
256.965517,,0.03193245737484891,257.146,0.5419999957084656,-2.4199128054527486
257.431034,,0.03773391527500449,257.612,0.5540000200271606,-2.393789533707197
257.896552,,0.0405993792518819,258.076,0.515999972820282,-2.4765741548911997
258.362069,,0.03929442000487001,258.542,0.5230000019073486,-2.4612964510347424
258.827586,,0.0348612382780124,259.007,0.546999990940094,-2.4089602676833968
259.29310300000003,,0.030253879869901565,259.472,0.5329999923706055,-2.4393924808562546
259.758621,,0.028185418369445166,259.935,0.5270000100135803,-2.452378050557039
260.224138,,0.028586851954995798,260.405,0.5339999794960022,-2.4370273631514983
260.689655,,0.02811466101453073,260.865,0.550000011920929,-2.4020578225191733
261.155172,,0.022940955896132334,261.335,0.5210000276565552,-2.4651202365518903
261.62068999999997,,0.012790326179348326,261.795,0.5379999876022339,-2.4279619887424464
262.086207,,0.002095277998331372,262.265,0.5370000004768372,-2.430020225435985
262.551724,,0.003607019685415106,262.73,0.5360000133514404,-2.432082894120905
263.017241,,0.0027807951069014746,263.193,0.5429999828338623,-2.416724370715872
263.482759,,0.0008898384212551328,263.658,0.5540000200271606,-2.39266177900559
263.94827599999996,,0.0024401075716692575,264.124,0.550000011920929,-2.4012920493415355
264.413793,,0.0002847056903365799,264.59,0.5389999747276306,-2.42518846236495
264.87931,,0.0032192204217535362,265.054,0.5400000214576721,-2.4229587346589345
265.34482799999995,,0.005177672437847827,265.519,0.5329999923706055,-2.4381777248600285
265.810345,,0.00528312894922395,265.984,0.5339999794960022,-2.435987645721607
266.27586199999996,,0.005443083407605112,266.449,0.5360000133514404,-2.431638939097309
266.741379,,0.007071510786104922,266.91,0.5320000052452087,-2.4403815754351528
267.206897,,0.009542222544035882,267.38,0.5370000004768372,-2.429534369721777
267.672414,,0.01121110315926767,267.843,0.527999997138977,-2.4492043868179834
268.137931,,0.011233127818629942,268.305,0.5889999866485596,-2.3163817972147136
268.603448,,0.010051055716445531,268.769,0.5320000052452087,-2.440648772166231
269.06896600000005,,0.008466240905242861,269.239,0.45899999141693115,-2.5997826277464724
269.53448299999997,,0.006807699659952036,269.704,0.5640000104904175,-2.3711239270992
270.0,,0.005247443899850359,270.169,0.531000018119812,-2.443120588215318
270.465517,,0.004464679276452061,270.634,0.5379999876022339,-2.4279688528418166
270.931034,,0.005220683226461267,271.099,0.5389999747276306,-2.425883575116484
271.396552,,0.007121098356372452,271.565,0.5690000057220459,-2.3606082768576573
271.86206899999996,,0.008388123965550935,272.024,0.6309999823570251,-2.2256023537869623
272.327586,,0.007422114503053221,272.49,0.546999990940094,-2.4086619122372435
272.793103,,0.004639259689705343,272.954,0.5460000038146973,-2.4108771138888305
273.258621,,0.0024053087655310007,273.42,0.5419999957084656,-2.419612957482958
273.724138,,0.0027531224147607433,273.887,0.550000011920929,-2.402189602621174
274.18965499999996,,0.0051502816286653035,274.35,0.5419999957084656,-2.419609782082215
274.655172,,0.006913109124526244,274.817,0.5419999957084656,-2.4195869572817825
275.12069,,0.0060730504963364944,275.279,0.4320000112056732,-2.659205372307765
275.586207,,0.0035497977882151784,275.745,0.546999990940094,-2.4086212657541286
276.051724,,0.002094162944858342,276.209,0.46799999475479126,-2.580689477546012
276.517241,,0.003194554542650293,276.675,0.5210000276565552,-2.4651718826236775
276.98275900000004,,0.005488567372072023,277.14,0.5320000052452087,-2.441154615190045
277.448276,,0.006346936914492187,277.606,0.5450000166893005,-2.4127769191496995
277.913793,,0.004614765604846841,278.073,0.5820000171661377,-2.3321088772011103
278.37931,,0.0014139147700292858,278.539,0.5339999794960022,-2.4366242744999793
278.844828,,0.0014463267901117112,279.003,0.5419999957084656,-2.4191360390652124
279.31034500000004,,0.0030055200311258357,279.468,0.546999990940094,-2.40818678926406
279.77586199999996,,0.0029872388051654206,279.931,0.5249999761581421,-2.4560656546960513
280.241379,,0.0013376614466029842,280.394,0.5540000200271606,-2.3928393355281408
280.706897,,0.0011409842299030756,280.865,0.5289999842643738,-2.4472671654596456
281.172414,,0.0026668298738196893,281.327,0.546999990940094,-2.4080207795542212
281.637931,,0.002312807586419736,281.795,0.5400000214576721,-2.4232488490576567
282.10344799999996,,0.0014588885573944505,282.257,0.6330000162124634,-2.2206188334055517
282.568966,,0.002209602931868257,282.723,0.5239999890327454,-2.4580816093732882
283.034483,,0.004666329306123125,283.186,0.5419999957084656,-2.418863528828816
283.5,,0.0067968598011721865,283.652,0.5509999990463257,-2.3992620580356228
283.965517,,0.006827638513065143,284.117,0.5529999732971191,-2.394918895458765
284.431034,,0.0049417461773837885,284.582,0.5210000276565552,-2.464657148407533
284.89655200000004,,0.002747309936011899,285.047,0.5270000100135803,-2.4516147191200544
285.362069,,0.0017632348984704537,285.513,0.5730000138282776,-2.3514326634417078
285.827586,,0.002405303282591885,285.98,0.5400000214576721,-2.4233679413798717
286.293103,,0.003910851716042186,286.445,0.5450000166893005,-2.4125177222692265
286.758621,,0.005052876890096855,286.906,0.5440000295639038,-2.4147417287941164
287.22413800000004,,0.005078336866586762,287.375,0.5540000200271606,-2.393001509428134
287.689655,,0.004102259439903285,287.836,0.5450000166893005,-2.412655048826299
288.155172,,0.0027393233255341588,288.306,0.5329999923706055,-2.4388432073779995
288.62069,,0.001495479550939767,288.769,0.5339999794960022,-2.4367070058557005
289.086207,,0.0005461281156800284,289.231,0.5540000200271606,-2.393173210370399
289.55172400000004,,2.7369278693593636e-05,289.697,0.5370000004768372,-2.4302450106760025
290.01724099999996,,0.00029762523238410196,290.162,0.6620000004768372,-2.157941126204684
290.482759,,0.0014859525380228294,290.627,0.5260000228881836,-2.454254848816085
290.948276,,0.002625896420299867,291.094,0.5299999713897705,-2.445550579753299
291.413793,,0.0018020478856970341,291.56,0.546999990940094,-2.4085186294582344
291.87931,,0.002023774579149688,292.024,0.5270000100135803,-2.4520914748604916
292.344828,,0.007232027934876874,292.49,0.5490000247955322,-2.4041561426376084
292.81034500000004,,0.010319382471587387,292.958,0.5230000019073486,-2.460791539530581
293.275862,,0.009152916837944643,293.416,0.5260000228881836,-2.454242421185231
293.74137900000005,,0.005423449664262214,293.88,0.5419999957084656,-2.4193678798221114
294.206897,,0.0032346537370850316,294.349,0.531000018119812,-2.443313643472239
294.672414,,0.004875891375476062,294.81,0.5540000200271606,-2.393182369951194
295.13793100000004,,0.008466790450951873,295.28,0.5540000200271606,-2.39315681649463
295.603448,,0.01031535290660218,295.745,0.5389999747276306,-2.425808230365028
296.068966,,0.009031895571933188,296.209,0.5419999957084656,-2.4192419976354174
296.534483,,0.006446380087672955,296.675,0.5419999957084656,-2.4192106778745734
297.0,,0.004907619097654507,297.14,0.5299999713897705,-2.445322857357192
297.46551700000003,,0.004755889273168561,297.606,0.527999997138977,-2.4496491283381134
297.931034,,0.0044723569995251955,298.066,0.5379999876022339,-2.427832993943829
298.396552,,0.0026558276251053368,298.532,0.5540000200271606,-2.392945993646642
298.862069,,0.00029677586311530307,298.999,0.5419999957084656,-2.419062285364986
299.327586,,0.0024327136796515807,299.465,0.5400000214576721,-2.4233935967279754
299.79310300000003,,0.002336639554432416,299.925,0.5440000295639038,-2.4146553449693666
300.258621,,0.0007198482459112058,300.395,0.5270000100135803,-2.4516717227267777
300.724138,,0.0005841653018507835,300.858,0.5460000038146973,-2.4102602457397806
301.189655,,0.0008268685424955033,301.32,0.5419999957084656,-2.4189612941004284
301.65517200000005,,0.0007001653936161972,301.791,0.5540000200271606,-2.392807368547199
302.12069,,0.0007551632488630117,302.253,0.527999997138977,-2.4494461228160636
302.586207,,0.000647710671574344,302.719,0.5230000019073486,-2.4603382058954564
303.05172400000004,,0.00022863325686924962,303.183,0.5410000085830688,-2.4211268950602407
303.517241,,0.00031394609033565503,303.649,0.546999990940094,-2.4080643401689636
303.982759,,0.0015759979996830026,304.114,0.5339999794960022,-2.436400671273853
304.448276,,0.0032542284923945076,304.579,0.5960000157356262,-2.301341877738439
304.913793,,0.003949003652430267,305.039,0.5270000100135803,-2.4516889697741626
305.37931000000003,,0.003576608174530762,305.505,0.5540000200271606,-2.39288921750888
305.844828,,0.003517318554552452,305.97,0.5540000200271606,-2.3929166099256016
306.310345,,0.00445841181545733,306.435,0.5099999904632568,-2.4888082511946106
306.775862,,0.004981920884379782,306.906,0.5680000185966492,-2.3624813126308677
307.241379,,0.0032067619304267897,307.367,0.550000011920929,-2.4017339889647893
307.70689699999997,,0.0005143167739182923,307.836,0.527999997138977,-2.4497028208749545
308.172414,,0.0035565504736802295,308.298,0.546999990940094,-2.4083486156282294
308.637931,,0.0038294723959165504,308.761,0.5440000295639038,-2.4149250853777735
309.103448,,0.0019008977244459318,309.224,0.5419999957084656,-2.4193223837701185
309.568966,,0.00012943083050947712,309.689,0.5049999952316284,-2.4999714461784603
310.034483,,0.0003237615737140502,310.154,0.5400000214576721,-2.4237564688688
310.5,,0.002530807735107184,310.62,0.531000018119812,-2.443399221635992
310.96551700000003,,0.005433324226877209,311.088,0.5360000133514404,-2.4325363241294435
311.431034,,0.0072627729938838596,311.553,0.5410000085830688,-2.4216675305119395
311.896552,,0.006741071234547319,312.02,0.5320000052452087,-2.441292681086325
312.362069,,0.004058953794857014,312.479,0.527999997138977,-2.4500167762827103
312.827586,,0.0010059039028635383,312.947,0.5669999718666077,-2.3650499323649448
313.29310300000003,,0.0005122209171588196,313.41,0.5419999957084656,-2.4195059623456174
313.758621,,0.00022778435103320297,313.88,0.5370000004768372,-2.4303785039974297
314.224138,,0.0005480969003055504,314.342,0.5540000200271606,-2.3933105800190937
314.689655,,0.0005848692861090442,314.806,0.5370000004768372,-2.4303068285505733
315.155172,,0.00015387829312995087,315.275,0.5389999747276306,-2.4258997819458177
315.62068999999997,,0.0009640323471045099,315.734,0.5509999990463257,-2.399698236532181
316.086207,,0.0014074220624291861,316.204,0.531000018119812,-2.4432068301571803
316.551724,,0.0016743582989603221,316.669,0.5659999847412109,-2.3668846945555293
317.017241,,0.0021951749609394502,317.135,0.5799999833106995,-2.336309687546417
317.482759,,0.003034152690245495,317.601,0.5260000228881836,-2.45388030079198
317.94827599999996,,0.0036805158901319587,318.065,0.5239999890327454,-2.458163049154627
318.413793,,0.0035858108338463123,318.524,0.5270000100135803,-2.451557612222044
318.87931000000003,,0.002851953380351846,318.991,0.550000011920929,-2.4013862227514724
319.344828,,0.0019407898980171238,319.457,0.550000011920929,-2.401332009141636
319.810345,,0.0006716552524882436,319.921,0.5440000295639038,-2.4143595675621237
320.275862,,0.0017032480711541096,320.39,0.5210000276565552,-2.4644365447607504
320.741379,,0.004923630391849758,320.85,0.5329999923706055,-2.4382753997097537
321.20689699999997,,0.006931675005225705,321.32,0.5450000166893005,-2.412129421929835
321.672414,,0.005703858230901691,321.784,0.5239999890327454,-2.4578945476949303
322.137931,,0.0018272247057247982,322.246,0.5419999957084656,-2.4187081379172124
322.603448,,0.001747609495288999,322.712,0.5460000038146973,-2.410037881653677
323.068966,,0.002909227870902936,323.175,0.531000018119812,-2.442775884265679
323.53448299999997,,0.002453781097988226,323.641,0.5389999747276306,-2.4254179673509104
324.0,,0.0022002573858918434,324.108,0.5329999923706055,-2.4385721516689327
324.465517,,0.00192668079095365,324.573,0.5659999847412109,-2.3667674289365457
324.931034,,0.0001797650163204224,325.039,0.5360000133514404,-2.4322227648567742
325.396552,,0.004072682624847183,325.505,0.5249999761581421,-2.456287078429844
325.86206899999996,,0.006825412287400787,325.965,0.5419999957084656,-2.419349963118413
326.327586,,0.006067458026082089,326.43,0.5950000286102295,-2.303977826768388
326.793103,,0.0029906808054685034,326.898,0.5239999890327454,-2.4587507433857794
327.258621,,0.000643405446749559,327.361,0.531000018119812,-2.4435799750609237
327.724138,,0.00032763432222623575,327.828,0.5540000200271606,-2.3935400077729745
328.189655,,0.0010395289947361158,328.29,0.5329999923706055,-2.439346844703373
328.655172,,0.0015735776640845992,328.758,0.5540000200271606,-2.3936344355967405
329.12068999999997,,0.0016241156408554694,329.22,0.527999997138977,-2.4503013315602336
329.586207,,0.0012596600417755315,329.686,0.5540000200271606,-2.3936600780309343
330.051724,,0.0007876856649329901,330.15,0.531000018119812,-2.4437538127091702
330.517241,,0.0010652915927338768,330.615,0.5479999780654907,-2.406682868368654
330.982759,,0.002718815722323235,331.08,0.5669999718666077,-2.3652358018977417
331.44827599999996,,0.0049047762446486134,331.546,0.5009999871253967,-2.508956532557691
331.913793,,0.005759376062660123,332.013,0.5419999957084656,-2.419547578610278
332.37931,,0.00437592612021521,332.479,0.5299999713897705,-2.4455950089447915
332.844828,,0.0018277732838386878,332.939,0.5460000038146973,-2.4106300216763445
333.310345,,3.6092155316408687e-05,333.409,0.527999997138977,-2.449731995704073
333.77586199999996,,8.078502811122775e-06,333.872,0.5440000295639038,-2.414755920931158
334.241379,,0.0012622641342208377,334.335,0.5260000228881836,-2.4538536076839157
334.706897,,0.00285094745508268,334.803,0.5429999828338623,-2.4167017992353292
335.17241399999995,,0.004065516129717215,335.265,0.5519999861717224,-2.396985249849214
335.637931,,0.004531746249548366,335.731,0.5419999957084656,-2.4186720835424342
336.103448,,0.003878168438995814,336.2,0.5460000038146973,-2.409870211494505
336.56896600000005,,0.002001161576092136,336.659,0.546999990940094,-2.407619632566131
337.034483,,0.0003434243167975977,337.125,0.4950000047683716,-2.5208560776222138
337.5,,0.0018323287268096119,337.591,0.5669999718666077,-2.363961360422145
337.965517,,0.0019255681753672152,338.058,0.5090000033378601,-2.490312870421682
338.431034,,0.0017007305138921375,338.523,0.5400000214576721,-2.422787549102071
338.89655200000004,,0.002805116907091383,338.987,0.5339999794960022,-2.4358953569454895
339.36206899999996,,0.005388520302518314,339.453,0.5419999957084656,-2.4185237285178753
339.827586,,0.007452881579683999,339.921,0.5540000200271606,-2.3924574906447957
340.293103,,0.006805119757409948,340.383,0.5339999794960022,-2.436125970070751
340.758621,,0.003720847463739059,340.846,0.5410000085830688,-2.42098642485988
341.224138,,0.0011238194861159015,341.309,0.5509999990463257,-2.399323549741749
341.68965499999996,,0.0016390962382136205,341.777,0.550000011920929,-2.4016343423197175
342.155172,,0.004669980237242931,342.246,0.5419999957084656,-2.4192005443906153
342.62069,,0.006973411695524515,342.704,0.5339999794960022,-2.4367680481043794
343.086207,,0.0061913670967816605,343.176,0.5410000085830688,-2.4216532604871897
343.551724,,0.0032316934563284706,343.634,0.5090000033378601,-2.4914998192648157
344.01724099999996,,0.0009157078422730189,344.106,0.5379999876022339,-2.4284392773501455
344.48275900000004,,0.0008895016745745152,344.564,0.5329999923706055,-2.4394390365386145
344.948276,,0.0024416674670731417,345.029,0.5509999990463257,-2.4003119458351128
345.413793,,0.003934684958418719,345.494,0.5220000147819519,-2.463560381756011
345.87931,,0.004458314737181861,345.962,0.5289999842643738,-2.448354757973163
346.344828,,0.003954432101175039,346.427,0.527999997138977,-2.450553938464725
346.81034500000004,,0.0026151039967731086,346.895,0.5529999732971191,-2.396082339092533
347.275862,,0.000732828769667293,347.357,0.5540000200271606,-2.393870894699261
347.741379,,0.0012837383701077517,347.82,0.5440000295639038,-2.4155975705494512
348.206897,,0.003095068351083774,348.29,0.5460000038146973,-2.4111551034812684
348.672414,,0.004332306512626542,348.749,0.5320000052452087,-2.441548088175628
349.13793100000004,,0.004418724491491377,349.215,0.5540000200271606,-2.3934897947195544
349.60344799999996,,0.0032119664199720785,349.681,0.5540000200271606,-2.393344970907009
350.068966,,0.0018012896534213424,350.147,0.5419999957084656,-2.4193311476165036
350.534483,,0.0017257779982942454,350.613,0.5379999876022339,-2.4278804524702395
351.0,,0.003095361268723682,351.08,0.5429999828338623,-2.41681954186519
351.465517,,0.004232501161085671,351.545,0.5299999713897705,-2.444977246661602
351.93103399999995,,0.0036002562565860927,352.009,0.5299999713897705,-2.4448209268530308
352.396552,,0.0015393478531855105,352.475,0.5299999713897705,-2.44467822553776
352.862069,,0.00039918268726995225,352.935,0.531000018119812,-2.4423749396976606
353.32758600000005,,0.0014367571564057905,353.405,0.5210000276565552,-2.4640592451493193
353.793103,,0.002174310404976636,353.866,0.5299999713897705,-2.444375312325057
354.258621,,0.0032284817109167153,354.335,0.5460000038146973,-2.4094687689636225
354.72413800000004,,0.003978203668811286,354.798,0.5460000038146973,-2.4094498284976007
355.189655,,0.00319858466369003,355.261,0.5370000004768372,-2.429068677266622
355.655172,,0.0007655768416139707,355.727,0.5320000052452087,-2.440003316423472
356.12069,,0.001721606928386749,356.189,0.5460000038146973,-2.4095732427321073
356.586207,,0.00218756493213614,356.655,0.5429999828338623,-2.4162076792786835
357.05172400000004,,6.205518236788125e-05,357.123,0.5379999876022339,-2.4272240772573364
357.517241,,0.0036162554947588702,357.589,0.5080000162124634,-2.4927287429396934
357.982759,,0.006004932406290962,358.054,0.550000011920929,-2.401389089705399
358.448276,,0.005736494929735732,358.519,0.5540000200271606,-2.3928505519912244
358.913793,,0.003689530945973653,358.98,0.5440000295639038,-2.4148195926001192
359.37931000000003,,0.0023862420737894813,359.445,0.5419999957084656,-2.419360896846541
359.844828,,0.0033926367534359244,359.913,0.5339999794960022,-2.436970278255936
360.310345,,0.0054210079487587715,360.375,0.45500001311302185,-2.6092561763774103
360.775862,,0.00559469401649357,360.843,0.5299999713897705,-2.446019093410455
361.241379,,0.0027861222088630586,361.305,0.5920000076293945,-2.3110854244998964
361.706897,,0.0008764576409760017,361.773,0.5339999794960022,-2.437563599808594
362.172414,,0.002262327464649103,362.235,0.550000011920929,-2.4027921945268353
362.63793100000004,,0.0007113833355749779,362.701,0.5379999876022339,-2.4289913834353336
363.103448,,0.001219852241915242,363.165,0.5519999861717224,-2.3985117678053536
363.568966,,0.0005486352477907127,363.631,0.5419999957084656,-2.420284706689894
364.034483,,0.0029181495833614157,364.098,0.4959999918937683,-2.5204550830240042
364.5,,0.006493161303497872,364.564,0.5630000233650208,-2.3744058122935336
364.96551700000003,,0.007697315893994331,365.028,0.5460000038146973,-2.4113317366489047
365.431034,,0.006908631465960598,365.494,0.5479999780654907,-2.4068343138421113
365.896552,,0.006428280432040189,365.954,0.5490000247955322,-2.404490617545533
366.362069,,0.007277248164063621,366.42,0.5379999876022339,-2.4282711252366154
366.827586,,0.007967539783084801,366.888,0.5419999957084656,-2.419357884433999
367.29310300000003,,0.00672186931101076,367.35,0.5419999957084656,-2.419151435978229
367.758621,,0.00388536734786263,367.821,0.5299999713897705,-2.4450874963198515
368.224138,,0.001409843075613221,368.283,0.5180000066757202,-2.471029202483781
368.689655,,0.0006462123460635349,368.75,0.5199999809265137,-2.4664826623676506
369.155172,,0.0014211036329766743,369.215,0.5440000295639038,-2.414024015121408
369.62068999999997,,0.0027447440765819534,369.681,0.5669999718666077,-2.3637666112730114
370.086207,,0.003549915296861561,370.139,0.5339999794960022,-2.435539853388083
370.55172400000004,,0.003066086806501305,370.604,0.5299999713897705,-2.44416363074532
371.017241,,0.0014615672238869112,371.076,0.5379999876022339,-2.4266786079766733
371.482759,,0.00010645334589294781,371.534,0.5249999761581421,-2.4549823770687964
371.948276,,0.00018672851272854787,371.999,0.5339999794960022,-2.4353939935157425
372.413793,,0.0008285306701634868,372.465,0.5389999747276306,-2.4245579126778627
372.87931000000003,,0.00023907842666835222,372.935,0.5249999761581421,-2.455152285604543
373.344828,,0.003499280344134273,373.398,0.5460000038146973,-2.409527450737687
373.810345,,0.006300412893833426,373.861,0.4880000054836273,-2.536046433626808
374.275862,,0.005884156207306182,374.324,0.5640000104904175,-2.370652583034447
374.741379,,0.0029469592023157725,374.795,0.5410000085830688,-2.420964338233032
375.20689699999997,,0.0007541781271083853,375.257,0.550000011920929,-2.4015717336809552
375.672414,,0.0010862165896919783,375.723,0.5249999761581421,-2.4562597145429304
376.137931,,0.0024731693210810735,376.186,0.5540000200271606,-2.3933003194845393
376.603448,,0.0025075973882911044,376.652,0.527999997138977,-2.450159671504716
377.068966,,0.0007508459285268617,377.117,0.5929999947547913,-2.308747356184345
377.53448299999997,,0.0010896022242477504,377.583,0.5260000228881836,-2.4548952231185637
378.0,,0.0012401169199270615,378.046,0.5419999957084656,-2.4201893119353697
378.465517,,0.00032655743731335447,378.512,0.5429999828338623,-2.418132961915481
378.931034,,0.0018875577713055895,378.976,0.527999997138977,-2.4509008613987926
379.396552,,0.0014962587683645054,379.442,0.5210000276565552,-2.466203264078501
379.862069,,0.001259874040815322,379.91,0.527999997138977,-2.450967061818765
380.327586,,0.004725285269884941,380.372,0.546999990940094,-2.409548195609871
380.79310300000003,,0.006533732095604363,380.84,0.49799999594688416,-2.516239183488637
381.258621,,0.005744838111765289,381.302,0.5630000233650208,-2.374527728818708
381.724138,,0.0035549555261304407,381.765,0.531000018119812,-2.4441107506612405
382.189655,,0.001837484024990948,382.235,0.5379999876022339,-2.4286955887666437
382.655172,,0.0013000679551163693,382.694,0.531000018119812,-2.4437557118616087
383.12068999999997,,0.0012994119565014099,383.166,0.5460000038146973,-2.410865423078155
383.586207,,0.0010901879971984278,383.624,0.5389999747276306,-2.425891177679402
384.051724,,0.0006587911377598206,384.09,0.5479999780654907,-2.4060507593548093
384.517241,,0.0002630008536169117,384.556,0.5239999890327454,-2.458105322053955
384.982759,,0.00028694803858820455,385.021,0.5429999828338623,-2.4164850685018475
385.44827599999996,,0.0013962002288891225,385.487,0.5230000019073486,-2.4598462063515503
385.913793,,0.0028824383217847466,385.954,0.5410000085830688,-2.4204394454972973
386.37931,,0.0038687066114949154,386.419,0.5370000004768372,-2.4289894906931497
386.84482799999995,,0.0036258125680311486,386.88,0.5419999957084656,-2.4179630988254353
387.310345,,0.002350206066336408,387.349,0.5370000004768372,-2.4287588619697833
387.775862,,0.0010144139394838727,387.813,0.5419999957084656,-2.4178070754546375
388.241379,,0.0005231769812738745,388.275,0.546999990940094,-2.406896105917491
388.70689699999997,,0.0010570255212565165,388.741,0.5249999761581421,-2.4548504983555173
389.172414,,0.002128252173087192,389.204,0.531000018119812,-2.4418446152482494
389.637931,,0.00308768996094727,389.67,0.5419999957084656,-2.417985936628638
390.103448,,0.003546621757664608,390.138,0.5460000038146973,-2.409414496964486
390.56896600000005,,0.0035127131278863224,390.604,0.5329999923706055,-2.4379126948351444
391.03448299999997,,0.003249984119348361,391.068,0.550000011920929,-2.4010788931947977
391.5,,0.002890837346632082,391.534,0.5320000052452087,-2.44051938226456
391.965517,,0.0021702056741821126,391.998,0.5419999957084656,-2.4189727037619924
392.431034,,0.0008034976977145006,392.464,0.5220000147819519,-2.4627936003450333
392.896552,,0.0007839556159785984,392.924,0.5419999957084656,-2.419469464233798
393.36206899999996,,0.0014527518627891337,393.395,0.5260000228881836,-2.454569787772599
393.827586,,0.00043923530650123623,393.858,0.5460000038146973,-2.4112244246900394
394.293103,,0.0015920589741568382,394.32,0.5669999718666077,-2.3656781092829604
394.75862099999995,,0.00293415518535273,394.791,0.5450000166893005,-2.413784037111009
395.224138,,0.002502594637433321,395.253,0.5329999923706055,-2.440069233456865
395.68965499999996,,0.0009191864972804663,395.719,0.5370000004768372,-2.431457857516446
396.155172,,0.00033280415735972504,396.183,0.5540000200271606,-2.3944822770273073
396.62069,,0.0005274184026341092,396.649,0.5519999861717224,-2.3988566033539165
397.086207,,1.9781910887904674e-05,397.113,0.5019999742507935,-2.507761418735081
397.551724,,0.0009247540205008251,397.579,0.5460000038146973,-2.411830150993334
398.017241,,0.00214166855522516,398.044,0.5519999861717224,-2.39864572960275
398.48275900000004,,0.0033818571466978516,398.51,0.5540000200271606,-2.3941359205736896
398.94827599999996,,0.0038962921807647205,398.969,0.550000011920929,-2.4026625097487155
399.413793,,0.0032520910293480612,399.435,0.5289999842643738,-2.448196628908873
399.87931,,0.0020716786044551634,399.906,0.546999990940094,-2.408740807680865
400.344828,,0.0015524447124548562,400.367,0.5419999957084656,-2.419378395571994
400.810345,,0.002049725654251283,400.836,0.5649999976158142,-2.3690054274740837
401.27586199999996,,0.0024774599840590244,401.298,0.550000011920929,-2.401420277105821
401.741379,,0.0016480564760236022,401.761,0.5329999923706055,-2.438200267328605
402.206897,,1.7823995431520288e-05,402.224,0.5490000247955322,-2.4031010777047785
402.672414,,0.0006680771817032309,402.69,0.5519999861717224,-2.3963480229254825
403.137931,,0.0004055206256729926,403.155,0.5260000228881836,-2.4528060924974353
403.60344799999996,,0.0019046053862691503,403.62,0.49900001287460327,-2.511480745332107
404.068966,,0.001672920961936285,404.088,0.5299999713897705,-2.4438373437848813
404.534483,,0.0009488091900302225,404.554,0.5379999876022339,-2.426348890180109
405.0,,0.004245832665183332,405.021,0.5120000243186951,-2.4829821876821385
405.465517,,0.005559267630445557,405.479,0.5329999923706055,-2.437267763966239
405.931034,,0.0038003037791260277,405.946,0.5379999876022339,-2.4264588887400946
406.39655200000004,,0.0005784297968805624,406.409,0.5299999713897705,-2.4440167652200224
406.862069,,0.0015370636177895673,406.879,0.5299999713897705,-2.4441860277758845
407.327586,,0.0018386733877645244,407.342,0.5519999861717224,-2.396460184817911
407.793103,,0.0018631625657028804,407.806,0.5320000052452087,-2.4402661228384175
408.258621,,0.002825367623866813,408.275,0.5419999957084656,-2.4187341993272584
408.72413800000004,,0.0037069954189846146,408.734,0.5540000200271606,-2.392858444911776
409.18965499999996,,0.002710335690584168,409.204,0.5180000066757202,-2.471563308103071
409.655172,,1.7041915052749503e-05,409.67,0.5419999957084656,-2.4195468790077896
410.12069,,0.002250775767220381,410.135,0.5130000114440918,-2.4829884547531953
410.586207,,0.002344826629747687,410.594,0.5249999761581421,-2.4570875375017076
411.05172400000004,,0.0010824777268966129,411.059,0.5730000138282776,-2.352728757410214
411.51724099999996,,0.0004287328002036526,411.524,0.5339999794960022,-2.437878243888198
411.982759,,0.0011621539543992003,411.991,0.5389999747276306,-2.427127512844507
412.448276,,0.002496038669059917,412.456,0.546999990940094,-2.409797140279978
412.913793,,0.00361915371877662,412.926,0.5220000147819519,-2.464315490233149
413.37931,,0.004663605554836868,413.388,0.5419999957084656,-2.420746764232183
413.844828,,0.006073459383801186,413.85,0.5440000295639038,-2.416345122943973
414.31034500000004,,0.0077183839702918335,414.32,0.5419999957084656,-2.420610605515651
414.775862,,0.008966632267463772,414.78,0.5370000004768372,-2.4313672172499525
415.241379,,0.009343722519186064,415.25,0.5379999876022339,-2.429011587812333
415.706897,,0.008880795616789143,415.709,0.5540000200271606,-2.393940891000046
416.172414,,0.007908141008170343,416.179,0.550000011920929,-2.4024139947220706
416.63793100000004,,0.0066555968249021715,416.645,0.5339999794960022,-2.437009253373305
417.103448,,0.005165522335178427,417.11,0.5419999957084656,-2.4193037904168766
417.568966,,0.0036750635908400007,417.575,0.5339999794960022,-2.4364524495047926
418.034483,,0.0028768859775263,418.04,0.5249999761581421,-2.4557844007311003
418.5,,0.003357017463277468,418.505,0.5339999794960022,-2.435914183133479
418.96551700000003,,0.004723978246781054,418.965,0.5490000247955322,-2.402993177363681
419.43103399999995,,0.005789008066194031,419.431,0.46299999952316284,-2.590145434004648
419.896552,,0.005796464911464712,419.899,0.5299999713897705,-2.4440021002274173
420.362069,,0.004995558915196969,420.361,0.531000018119812,-2.4416915580481198
420.827586,,0.0038637820104641444,420.824,0.5429999828338623,-2.415460584178431
421.293103,,0.002501172081358128,421.294,0.5199999809265137,-2.4655293208478013
421.758621,,0.0011247243888233326,421.762,0.5180000066757202,-2.4698952171947934
422.22413800000004,,0.0003043394015276326,422.224,0.531000018119812,-2.44163012856646
422.689655,,7.453775410540107e-05,422.69,0.5199999809265137,-2.465699299757118
423.15517200000005,,0.0005042233592285209,423.15,0.527999997138977,-2.448417264410297
423.62069,,0.002145019398151228,423.616,0.5540000200271606,-2.3919575188506057
424.086207,,0.004059573698216159,424.084,0.5249999761581421,-2.4553552150872306
424.55172400000004,,0.004521133018009052,424.549,0.5419999957084656,-2.4185600225280854
425.017241,,0.0026529896907593223,425.009,0.5230000019073486,-2.4602141170251075
425.482759,,0.0006440083227380478,425.475,0.5540000200271606,-2.3929454122028635
425.948276,,0.0035263656655415802,425.943,0.550000011920929,-2.4019301764278844
426.413793,,0.00480077509731926,426.406,0.5329999923706055,-2.4392297454536656
426.87931000000003,,0.004661885505755011,426.869,0.5180000066757202,-2.472157326724661
427.344828,,0.004031791857934132,427.339,0.46399998664855957,-2.5900321000615834
427.810345,,0.0034639936710122395,427.799,0.550000011920929,-2.402869480121344
428.275862,,0.0027539510879937795,428.268,0.593999981880188,-2.3071746872324606
428.741379,,0.0012844530091949246,428.734,0.5260000228881836,-2.4554458970756827
429.20689699999997,,0.0015008185152941712,429.197,0.5419999957084656,-2.4206659533149724
429.672414,,0.005699214612487627,429.663,0.550000011920929,-2.403268651910298
430.137931,,0.010582705772705555,430.127,0.5659999847412109,-2.3683941295645954
430.603448,,0.01462761243105421,430.593,0.531000018119812,-2.4445831169176024
431.068966,,0.01642729260541948,431.058,0.5419999957084656,-2.420509928634142
431.534483,,0.016034796055348393,431.524,0.5540000200271606,-2.394217175198385
432.0,,0.015200047375697863,431.984,0.5320000052452087,-2.44196236780455
432.46551700000003,,0.015776681168979106,432.449,0.5289999842643738,-2.4482836225977156
432.931034,,0.017964604311369283,432.917,0.531000018119812,-2.4436891968652543
433.396552,,0.020438754805589363,433.379,0.5320000052452087,-2.44125861190341
433.862069,,0.02178568571507592,433.85,0.5289999842643738,-2.447535549162141
434.327586,,0.02124353805378863,434.313,0.546999990940094,-2.4080614463415704
434.79310300000003,,0.018576986285280116,434.78,0.5379999876022339,-2.4274190115612857
435.258621,,0.014212070539173543,435.243,0.5299999713897705,-2.444613838358739
435.724138,,0.009399568337338658,435.709,0.546999990940094,-2.40736547111524
436.189655,,0.005478155053318009,436.172,0.5270000100135803,-2.4507564557769848
436.655172,,0.0029265559720001565,436.638,0.5419999957084656,-2.4179296551941176
437.12068999999997,,0.001550164336922951,437.102,0.5370000004768372,-2.428714849850894
437.586207,,0.0012648769767438575,437.568,0.5419999957084656,-2.417755492945223
438.051724,,0.0019258132295219927,438.032,0.5249999761581421,-2.4547703499640225
438.517241,,0.0025293740911057883,438.497,0.5429999828338623,-2.4155769261119326
438.982759,,0.0015615053488558786,438.962,0.5419999957084656,-2.417821009644373
439.448276,,0.0014822259201748272,439.427,0.5270000100135803,-2.4506070524779946
439.913793,,0.005483574030607951,439.895,0.5379999876022339,-2.426786012634503
440.37931000000003,,0.008988857397590297,440.357,0.5540000200271606,-2.392104226101406
440.844828,,0.011712407038805564,440.82,0.5329999923706055,-2.4380591671039746
441.310345,,0.0142747463511541,441.29,0.5389999747276306,-2.4252111107726444
441.775862,,0.0166587459762712,441.75,0.5540000200271606,-2.392768540543901
442.241379,,0.01768326672853788,442.215,0.515999972820282,-2.4758007515495257
442.70689699999997,,0.016486321946226765,442.68,0.5249999761581421,-2.4564360104613328
443.172414,,0.014170588198473616,443.147,0.5320000052452087,-2.4414209945083996
443.637931,,0.01317496084167162,443.613,0.5419999957084656,-2.419854798369504
444.103448,,0.014739439619851757,444.08,0.5249999761581421,-2.4570899703831994
444.568966,,0.017498813283954737,444.546,0.531000018119812,-2.444188266290525
445.03448299999997,,0.01896260232563082,445.01,0.5249999761581421,-2.4573978456956898
445.5,,0.017944200264514484,445.469,0.546999990940094,-2.4095680642342807
445.965517,,0.015005507744780218,445.939,0.5419999957084656,-2.4205212439788126
446.431034,,0.010962187360642405,446.401,0.5460000038146973,-2.411824044630894
446.896552,,0.005989085259930543,446.865,0.5249999761581421,-2.457550658943566
447.36206899999996,,0.0004504429983040734,447.335,0.5249999761581421,-2.457484809990809
447.827586,,0.004270314022176754,447.795,0.5870000123977661,-2.3223033513135865
448.29310300000003,,0.006704893050277065,448.265,0.5540000200271606,-2.3940561214679965
448.758621,,0.007069034912481098,448.73,0.5339999794960022,-2.4374541549951254
449.224138,,0.007402074057431981,449.193,0.5419999957084656,-2.419824378346283
449.689655,,0.009475326390397587,449.659,0.5410000085830688,-2.4217834807935805
450.155172,,0.012754556045259682,450.124,0.5649999976158142,-2.369263866462853
450.62068999999997,,0.014810877708766546,450.59,0.5270000100135803,-2.4518151026788235
451.086207,,0.013738576098985152,451.055,0.5360000133514404,-2.4319727882854103
451.551724,,0.009910999323392084,451.52,0.5270000100135803,-2.4513570065038164
452.017241,,0.005314747600472356,451.98,0.5540000200271606,-2.392327257469869
452.482759,,0.0014386180390327423,452.446,0.47999998927116394,-2.5533654797570775
452.94827599999996,,0.0018202644778108747,452.914,0.531000018119812,-2.442103535246408
453.413793,,0.005057950921189187,453.376,0.5540000200271606,-2.391878420779376
453.87931,,0.0076086603569086,453.839,0.5270000100135803,-2.4506223588983795
454.344828,,0.0076860587610881066,454.31,0.527999997138977,-2.448403365387735
454.810345,,0.0046709456797504705,454.773,0.5329999923706055,-2.4375102383231195
455.27586199999996,,0.0007075236217250302,455.235,0.5440000295639038,-2.4135847753707247
455.741379,,0.000890105239451586,455.7,0.5230000019073486,-2.4594141118842794
456.206897,,0.0009661477902367167,456.165,0.5419999957084656,-2.4181327164381035
456.672414,,0.003937827221311239,456.63,0.531000018119812,-2.4422420070388076
457.137931,,0.004908569472079518,457.095,0.5210000276565552,-2.4641993495309764
457.603448,,0.0033959951784210485,457.561,0.5260000228881836,-2.4534985088172316
458.06896600000005,,0.001582204651218222,458.025,0.5419999957084656,-2.4188475295315426
458.53448299999997,,0.00118852882694904,458.491,0.5479999780654907,-2.4059904864930455
459.0,,0.001501965822509184,458.957,0.5210000276565552,-2.4650293278170112
459.465517,,0.000927275069572418,459.423,0.5260000228881836,-2.4543461459758036
459.931034,,0.0005714824924291893,459.891,0.5299999713897705,-2.4458300477616866
460.39655200000004,,0.0015185937134372673,460.353,0.5270000100135803,-2.452546318806144
460.86206899999996,,0.0008896233876614941,460.817,0.5,-2.5115273327309082
461.327586,,0.0008626846381898012,461.279,0.5540000200271606,-2.394010051341585
461.793103,,0.0025292839160351403,461.745,0.5669999718666077,-2.365784283900095
462.258621,,0.003139626888310955,462.216,0.5460000038146973,-2.4115953188673065
462.724138,,0.002337483190307426,462.674,0.5460000038146973,-2.4116167493606833
463.18965499999996,,0.000554421493819134,463.139,0.5759999752044678,-2.346240335778102
463.655172,,0.000981871483468901,463.605,0.5260000228881836,-2.4551181236741133
464.12069,,0.0009941315751971702,464.073,0.546999990940094,-2.409277604907377
464.58620699999994,,0.0006981819995448879,464.538,0.5419999957084656,-2.420051102895867
465.051724,,0.0029239447796045094,465.003,0.515999972820282,-2.4765500976280457
465.517241,,0.004140876018719975,465.468,0.5669999718666077,-2.3652720531124816
465.98275900000004,,0.0036052766486798786,465.931,0.5289999842643738,-2.4478777362945396
466.448276,,0.00177082255533343,466.4,0.5070000290870667,-2.4956159448443302
466.913793,,0.00017882101609609528,466.861,0.5329999923706055,-2.4387775204257114
467.37931,,0.0012538618704048623,467.324,0.531000018119812,-2.4429452151286393
467.844828,,0.0013492651286313528,467.791,0.5379999876022339,-2.4275147229350473
468.31034500000004,,0.0010897092136471082,468.261,0.5419999957084656,-2.418634923134967
468.77586199999996,,0.001034763391083221,468.719,0.5479999780654907,-2.4054173522213516
469.241379,,0.0012098270416010875,469.19,0.5429999828338623,-2.4161884854940543
469.706897,,0.0014971868595684684,469.656,0.6060000061988831,-2.278837481414057
470.172414,,0.0021717700585189184,470.12,0.5410000085830688,-2.420381332575739
470.63793100000004,,0.003548625013437029,470.579,0.5419999957084656,-2.4181651535192175
471.10344799999996,,0.005148474837904762,471.051,0.531000018119812,-2.4421257272414825
471.568966,,0.005920099070292605,471.509,0.5419999957084656,-2.418189135219331
472.034483,,0.005553751521601448,471.976,0.5260000228881836,-2.4531077991354664
472.5,,0.004891684189125479,472.442,0.5419999957084656,-2.418339428006624
472.965517,,0.004704561620744063,472.91,0.546999990940094,-2.407562126396699
473.43103399999995,,0.004806868988196644,473.372,0.5329999923706055,-2.4382008366086665
473.89655200000004,,0.004765917342167494,473.835,0.5210000276565552,-2.464499798177752
474.362069,,0.004651475005259155,474.305,0.5299999713897705,-2.4450602350870567
474.827586,,0.0045565057535740874,474.769,0.5170000195503235,-2.4735581210239084
475.293103,,0.004134475473724896,475.231,0.5249999761581421,-2.4563062738276957
475.758621,,0.0032010443887463443,475.696,0.5419999957084656,-2.419441886426588
476.22413800000004,,0.002173087073585878,476.162,0.5429999828338623,-2.4174248958534243
476.689655,,0.0014300745080029422,476.627,0.5220000147819519,-2.4633217911276093
477.155172,,0.0009488005527563998,477.094,0.546999990940094,-2.4089802599861194
477.62069,,0.00102093126765959,477.56,0.5180000066757202,-2.4722610626454053
478.086207,,0.0023072605985055097,478.024,0.5419999957084656,-2.4200459382120107
478.55172400000004,,0.004379678442798172,478.49,0.5249999761581421,-2.4571256706472675
479.01724099999996,,0.005275308047485643,478.955,0.5540000200271606,-2.3939561017253688
479.482759,,0.0036857867281409737,479.414,0.5419999957084656,-2.4200793547574713
479.948276,,0.0008867369670168621,479.884,0.5299999713897705,-2.446171772538757
480.413793,,0.0006418467720241958,480.346,0.5230000019073486,-2.46134280792545
480.87931000000003,,3.426609420565025e-05,480.809,0.5540000200271606,-2.3937000190425923
481.344828,,0.001536600478124314,481.28,0.5260000228881836,-2.454575628086117
481.810345,,0.002863656632540827,481.745,0.546999990940094,-2.4086800911691206
482.275862,,0.003938479011263226,482.209,0.5419999957084656,-2.419416788638729
482.74137900000005,,0.005030847876893923,482.675,0.5260000228881836,-2.454111510440449
483.206897,,0.0055684580609321474,483.14,0.5429999828338623,-2.4169098655439667
483.672414,,0.004676099580986817,483.605,0.5239999890327454,-2.4581440203301206
484.13793100000004,,0.0024802630145515222,484.065,0.527999997138977,-2.4492794817840697
484.603448,,0.0001349945262256083,484.531,0.531000018119812,-2.44260895637607
485.068966,,0.0015896551552786798,484.995,0.5230000019073486,-2.459923434190696
485.534483,,0.0031847684409022966,485.461,0.5410000085830688,-2.4206163791012014
486.0,,0.00540683886243227,485.924,0.5429999828338623,-2.416193500169259
486.46551700000003,,0.007746558720830277,486.393,0.5419999957084656,-2.418333804656508
486.931034,,0.00866922125977447,486.854,0.5239999890327454,-2.457539915141063
487.396552,,0.0075462238826798315,487.324,0.5709999799728394,-2.355162468435926
487.862069,,0.005714087139533023,487.787,0.527999997138977,-2.448890558559884
488.327586,,0.005140059326115353,488.25,0.5419999957084656,-2.418461565265015
488.79310300000003,,0.006276942588255873,488.715,0.5210000276565552,-2.464309179466603
489.258621,,0.007617893094707792,489.182,0.5440000295639038,-2.414316945434131
489.724138,,0.0073132456731831415,489.647,0.5289999842643738,-2.4471298659797758
490.189655,,0.005016329708139302,490.113,0.5289999842643738,-2.447274838732961
490.655172,,0.0022269612302192867,490.579,0.48100000619888306,-2.5520029833492734
491.12069,,0.0009792593727677536,491.044,0.5659999847412109,-2.366973840260946
491.586207,,0.0020287157010568323,491.509,0.5410000085830688,-2.4215917585429505
492.05172400000004,,0.00414048782415264,491.969,0.5540000200271606,-2.393410644899215
492.517241,,0.005295970331292774,492.435,0.5270000100135803,-2.452360817677403
492.982759,,0.004642064277685093,492.906,0.527999997138977,-2.4502905509639152
493.448276,,0.0029836571771490066,493.368,0.5249999761581421,-2.4569135122259147
493.913793,,0.0014432147696951077,493.836,0.5299999713897705,-2.4460829467975023
494.37931000000003,,0.0002499686691786255,494.298,0.5540000200271606,-2.3938309706712824
494.844828,,0.0009123757331813297,494.761,0.531000018119812,-2.443946948918533
495.310345,,0.0018778677099650256,495.224,0.5389999747276306,-2.4264963334632164
495.775862,,0.0018400330714599504,495.69,0.5440000295639038,-2.4155537719660107
496.241379,,0.0002606240059480368,496.154,0.5419999957084656,-2.419835766909392
496.70689699999997,,0.0022357584773917078,496.62,0.5339999794960022,-2.437166274748414
497.172414,,0.004052389251671528,497.084,0.5239999890327454,-2.4588347169061335
497.637931,,0.00392065837982603,497.55,0.5299999713897705,-2.4456300991239606
498.103448,,0.002161920199184217,498.017,0.5379999876022339,-2.428057840782291
498.568966,,0.00054598237435701,498.483,0.5429999828338623,-2.41701578774838
499.03448299999997,,0.0006144090360216376,498.955,0.5210000276565552,-2.4647966200279576
499.5,,0.0020772543142143227,499.413,0.5239999890327454,-2.458116727589681
499.96551700000003,,0.003049218144116794,499.876,0.5540000200271606,-2.392623199829085
500.431034,,0.0018581013025197504,500.339,0.5299999713897705,-2.444790844401855
500.89655200000004,,0.0015076602367106503,500.809,0.5419999957084656,-2.418545156898666
501.362069,,0.005452565427723531,501.272,0.5419999957084656,-2.418465038189638
501.827586,,0.007887048749420417,501.738,0.527999997138977,-2.4489105510924865
502.293103,,0.00759610206909341,502.201,0.5320000052452087,-2.440167299167749
502.758621,,0.005177666302899469,502.667,0.5249999761581421,-2.4554174570789002
503.224138,,0.0027322384378872873,503.132,0.5540000200271606,-2.3922639412194844
503.68965499999996,,0.002094932103333032,503.598,0.5419999957084656,-2.4184613845977703
504.15517200000005,,0.0030233124066782933,504.065,0.5260000228881836,-2.453397883929908
504.62068999999997,,0.0034660156624729275,504.524,0.5299999713897705,-2.4447842228849717
505.08620699999994,,0.001981868279180706,504.991,0.5329999923706055,-2.438368341342628
505.55172400000004,,0.000545361522993278,505.456,0.5460000038146973,-2.410180706999999
506.017241,,0.002133596074014423,505.924,0.5379999876022339,-2.42775443822759
506.48275899999993,,0.002135024416979334,506.387,0.5440000295639038,-2.4148315801355444
506.948276,,0.0016255136117587414,506.854,0.5540000200271606,-2.3931934551324225
507.413793,,0.0017031077401643974,507.317,0.527999997138977,-2.449980833837403
507.87931,,0.0023981961456085695,507.78,0.5509999990463257,-2.4000038926736056
508.344828,,0.003254878370462422,508.25,0.5210000276565552,-2.465480478236178
508.810345,,0.003996119904669893,508.715,0.546999990940094,-2.408934166768751
509.27586199999996,,0.004280763964902629,509.174,0.5440000295639038,-2.415546042121225
509.74137900000005,,0.0035206335839398518,509.64,0.5379999876022339,-2.428668624002672
510.20689699999997,,0.00143139014888265,510.106,0.5180000066757202,-2.472265589734696
510.67241399999995,,0.001468887750643257,510.572,0.5419999957084656,-2.419974977727927
511.13793100000004,,0.0041126295522441875,511.036,0.5389999747276306,-2.4264803619575024
511.603448,,0.005591090462963526,511.502,0.5379999876022339,-2.4286014242397824
512.0689659999999,,0.005758499481817856,511.97,0.5350000262260437,-2.4350547766230752
512.534483,,0.005269822737333324,512.435,0.5889999866485596,-2.3173021704964527
513.0,,0.004796597531594998,512.898,0.527999997138977,-2.4500737043932026
513.465517,,0.004192118901641385,513.361,0.5379999876022339,-2.4281461400691864
513.931034,,0.0029453043916768187,513.829,0.5329999923706055,-2.4388889266446157
514.396552,,0.0014305867533481868,514.29,0.5299999713897705,-2.445270332004853
514.862069,,0.0007147012353578438,514.762,0.5419999957084656,-2.4189730556985563
515.327586,,0.0008174046132298397,515.224,0.5419999957084656,-2.4188256725113226
515.793103,,0.0003662011214924694,515.689,0.5540000200271606,-2.3925451489556737
516.258621,,0.001251988743215645,516.155,0.527999997138977,-2.449068911287377
516.724138,,0.0024249928178049353,516.62,0.5289999842643738,-2.446789636104585
517.189655,,0.0011240495570356938,517.08,0.5540000200271606,-2.3922467536067438
517.655172,,0.0022673077412661093,517.545,0.5339999794960022,-2.4357695273219866
518.1206900000001,,0.004908147298711536,518.01,0.5339999794960022,-2.435747677891911
518.5862070000001,,0.00432831208137454,518.475,0.5210000276565552,-2.4640781626663775
519.051724,,0.0009051675531229112,518.943,0.5419999957084656,-2.4183647375790294
519.517241,,0.0023683455902572537,519.405,0.5540000200271606,-2.39228711220836
519.982759,,0.0023957309371004636,519.869,0.5329999923706055,-2.438130548151638
520.448276,,0.0013049223504717341,520.338,0.5389999747276306,-2.4251734271340544
520.9137929999999,,0.0059106588125142955,520.802,0.5360000133514404,-2.431843469122085
521.37931,,0.007582422097543614,521.265,0.5360000133514404,-2.431992625171262
521.844828,,0.004930344531376587,521.731,0.5809999704360962,-2.334111847110723
522.310345,,0.00017511345837532195,522.201,0.5410000085830688,-2.421419000020842
522.7758620000001,,0.0032220175467172264,522.659,0.5529999732971191,-2.3954344784347152
523.241379,,0.003682414379849556,523.124,0.5329999923706055,-2.4391598486525363
523.7068969999999,,0.0020467439309946357,523.59,0.531000018119812,-2.443658150388174
524.172414,,0.00025226127465311914,524.054,0.5379999876022339,-2.428532858813121
524.637931,,0.0024970447013208095,524.52,0.5669999718666077,-2.365456275805916
525.103448,,0.004274132555855658,524.987,0.5419999957084656,-2.4200012830969513
525.568966,,0.004981817025193604,525.453,0.5360000133514404,-2.43312427931819
526.034483,,0.004337437462146671,525.921,0.5419999957084656,-2.4200745581063097
526.5,,0.002731144630369027,526.383,0.527999997138977,-2.450567983725817
526.9655170000001,,0.0007217941733756041,526.85,0.5450000166893005,-2.4134935763624714
527.4310340000001,,0.0012788971360200956,527.312,0.5339999794960022,-2.437392649708701
527.8965519999999,,0.0027707949971620778,527.78,0.5329999923706055,-2.4394783858920412
528.362069,,0.00332669671186683,528.242,0.5289999842643738,-2.4480765656959966
528.827586,,0.0030865728890893656,528.708,0.550000011920929,-2.4021883191563527
529.293103,,0.0026039261282818174,529.172,0.5540000200271606,-2.393320593944632
529.7586210000001,,0.0023180984842736956,529.638,0.5540000200271606,-2.3931553230200286
530.224138,,0.002524256707430543,530.103,0.5370000004768372,-2.430020623213047
530.689655,,0.0034606840224374754,530.569,0.5630000233650208,-2.3732032436157127
531.155172,,0.004945729534440039,531.035,0.5529999732971191,-2.3948220319942637
531.62069,,0.006261621051846363,531.501,0.527999997138977,-2.449131081498365
532.086207,,0.006792430893206513,531.965,0.546999990940094,-2.4075964781127666
532.5517239999999,,0.006467880563121943,532.431,0.5540000200271606,-2.3922269412317285
533.017241,,0.005371479847090487,532.891,0.546999990940094,-2.4073836983411523
533.482759,,0.0034971746620600253,533.354,0.5509999990463257,-2.398603793032537
533.9482760000001,,0.0012886547137728238,533.824,0.5540000200271606,-2.392033511972511
534.413793,,0.0002525288423199508,534.287,0.550000011920929,-2.400746250191055
534.87931,,0.0006726125870657222,534.758,0.5519999861717224,-2.3964200671480103
535.344828,,0.0007339618218769677,535.22,0.5540000200271606,-2.392126039322931
535.810345,,0.0011793781503325815,535.679,0.5199999809265137,-2.4662946653865427
536.275862,,0.0013988999846172832,536.15,0.5669999718666077,-2.3640213700336217
536.7413789999999,,0.0004634657299809671,536.609,0.5860000252723694,-2.3227736304376245
537.206897,,0.0009623537602138515,537.076,0.5649999976158142,-2.3686898128719966
537.672414,,0.0012713034966021475,537.542,0.5960000157356262,-2.3013286338431493
538.137931,,0.00039763686094072706,538.009,0.6039999723434448,-2.2840825631488766
538.6034480000001,,4.025406054922138e-05,538.475,0.5920000076293945,-2.3104089662052383
539.0689659999999,,0.0006143844124820473,538.936,0.6169999837875366,-2.2561192734081144
539.5344829999999,,0.0009956718740974108,539.406,0.5989999771118164,-2.2954994102825643
540.0,,0.00010549189126514915,539.869,0.6129999756813049,-2.265145593252198
540.465517,,0.0007095360879580023,540.331,0.492000013589859,-2.528889751734158
540.931034,,0.0005192022969380747,540.795,0.6119999885559082,-2.2675581025539926
541.396552,,0.0034664771340759356,541.265,0.5920000076293945,-2.311210598298021
541.862069,,0.005650944611264568,541.73,0.5770000219345093,-2.3439394615262032
542.327586,,0.005306805440378885,542.193,0.6200000047683716,-2.2502748887693107
542.7931030000001,,0.0030967797087648476,542.658,0.5809999704360962,-2.3352265560309986
543.258621,,0.0009495296233881091,543.124,0.6010000109672546,-2.2916054599195967
543.7241379999999,,0.00011278221696122438,543.59,0.5929999947547913,-2.3089559802140887
544.189655,,0.0006043083497335116,544.054,0.5839999914169312,-2.328456973367892
544.655172,,0.0017890972580261416,544.52,0.6290000081062317,-2.23028568976256
545.12069,,0.0029334754558178887,544.98,0.6079999804496765,-2.2758831899670757
545.5862070000001,,0.0034813955521636616,545.445,0.5860000252723694,-2.3236422453162864
546.051724,,0.003158081435658391,545.913,0.5920000076293945,-2.31038886023833
546.517241,,0.0018587488747989832,546.376,0.6060000061988831,-2.2797015383193178
546.982759,,0.0003415690679543011,546.843,0.6079999804496765,-2.2751585945788575
547.448276,,0.002783079662704521,547.305,0.6320000290870667,-2.2226908721350624
547.9137929999999,,0.004190627376375481,547.769,0.5929999947547913,-2.307489471348936
548.3793099999999,,0.0037223785899259893,548.239,0.6000000238418579,-2.292087649924681
548.844828,,0.0019531297672201768,548.705,0.6050000190734863,-2.2810660830884437
549.310345,,0.00027181338251416475,549.169,0.621999979019165,-2.2439272548403175
549.775862,,0.0004602498344815598,549.634,0.5830000042915344,-2.328822476990859
550.241379,,0.00013583716700931508,550.099,0.628000020980835,-2.2307437656953244
550.706897,,0.0011376721413769934,550.564,0.5720000267028809,-2.3527427448672698
551.172414,,0.002911237093154531,551.024,0.5929999947547913,-2.3070210935027617
551.637931,,0.004132380113997817,551.49,0.5979999899864197,-2.2961923880283366
552.103448,,0.003985293875859618,551.954,0.5789999961853027,-2.337683660474053
552.568966,,0.002852134627726949,552.42,0.5950000286102295,-2.302951845683306
553.034483,,0.0017231498749615904,552.887,0.5839999914169312,-2.32706932973097
553.5,,0.0009023739995551825,553.349,0.5979999899864197,-2.296741071749784
553.965517,,6.33441928816799e-05,553.817,0.6029999852180481,-2.2860352219331945
554.4310340000001,,0.000604148490356366,554.279,0.5649999976158142,-2.3690199804602567
554.896552,,0.00020186125366672858,554.745,0.5849999785423279,-2.3256464306823443
555.3620689999999,,0.0017216020959707505,555.209,0.6029999852180481,-2.2866264684120563
555.827586,,0.004409389431594895,555.675,0.5989999771118164,-2.2955257134202767
556.293103,,0.006515679397462025,556.142,0.6110000014305115,-2.2695488477940278
556.758621,,0.007089678990616989,556.608,0.6060000061988831,-2.280585573657493
557.224138,,0.0059333603347097984,557.073,0.5979999899864197,-2.2981301387202544
557.689655,,0.003641132731327596,557.539,0.5879999995231628,-2.32000052140035
558.155172,,0.0015027961193520027,557.999,0.6039999723434448,-2.2851920758994817
558.6206900000001,,0.000719739205270475,558.465,0.5920000076293945,-2.3113497337555935
559.0862070000001,,0.0013653163156610343,558.935,0.5699999928474426,-2.3592580607698848
559.5517239999999,,0.0025991182776887605,559.398,0.5730000138282776,-2.3526657411531557
560.017241,,0.004007521733891297,559.861,0.5540000200271606,-2.3939717398377374
560.482759,,0.005850443056985196,560.324,0.5540000200271606,-2.3938547511450365
560.948276,,0.00762624428910885,560.795,0.550000011920929,-2.4024276896129195
561.413793,,0.007614779594993799,561.257,0.5460000038146973,-2.4109804494889273
561.87931,,0.004992120542070327,561.723,0.5419999957084656,-2.4195182070233154
562.344828,,0.0016510951877501362,562.186,0.5379999876022339,-2.42804656618229
562.8103450000001,,0.0004571678692336782,562.652,0.5339999794960022,-2.4365713814324996
563.275862,,0.001768766138774422,563.117,0.5519999861717224,-2.39716784846704
563.7413789999999,,0.002939744513930783,563.582,0.5540000200271606,-2.392629507930105
564.206897,,0.001611296810483557,564.046,0.49900001287460327,-2.5122870567981965
564.672414,,0.0014422389554277764,564.512,0.5400000214576721,-2.4228131923369447
565.137931,,0.003405097023615911,564.977,0.5479999780654907,-2.4052574379913114
565.603448,,0.002884531437634528,565.443,0.5339999794960022,-2.4356572062213946
566.068966,,0.0014483715315792723,565.906,0.5170000195503235,-2.472621670864836
566.534483,,0.0015011187395924973,566.375,0.46700000762939453,-2.581514259912156
567.0,,0.0032433688339374486,566.836,0.5540000200271606,-2.391965881029928
567.465517,,0.004504251718351897,567.305,0.5249999761581421,-2.4551729882837674
567.931034,,0.003584259464718442,567.769,0.531000018119812,-2.442157411574908
568.396552,,0.0013995168338476849,568.232,0.5249999761581421,-2.455314412282893
568.862069,,0.00020155229225619236,568.697,0.531000018119812,-2.442353159884778
569.327586,,0.0007723006117952382,569.165,0.5400000214576721,-2.422877866780233
569.793103,,0.0018755742419954602,569.63,0.4909999966621399,-2.5297823614336914
570.2586210000001,,0.002282240373613666,570.095,0.5239999890327454,-2.4580519828313743
570.724138,,0.0022245149598969314,570.56,0.5460000038146973,-2.4102952469388654
571.189655,,0.0026182267916071665,571.021,0.5009999871253967,-2.508510699181938
571.655172,,0.00372562983846226,571.486,0.5329999923706055,-2.4389680636058912
572.12069,,0.005007201523373262,571.958,0.5299999713897705,-2.445670633624497
572.586207,,0.005792259020680294,572.416,0.5440000295639038,-2.415322733444236
573.051724,,0.005768737921652176,572.884,0.5339999794960022,-2.4372446498599327
573.517241,,0.005086398352251563,573.346,0.5249999761581421,-2.4569662593352835
573.982759,,0.004223027663439074,573.814,0.550000011920929,-2.40258909157026
574.4482760000001,,0.0036899907557635505,574.276,0.5329999923706055,-2.4396879261510915
574.913793,,0.003729041577924723,574.742,0.5260000228881836,-2.4549716337647003
575.37931,,0.004138683803084266,575.205,0.5189999938011169,-2.4702271112563765
575.844828,,0.004286622651298275,575.67,0.5289999842643738,-2.448417664604718
576.310345,,0.0034582810149860767,576.135,0.515999972820282,-2.476690437470312
576.775862,,0.0015122305702282438,576.601,0.5210000276565552,-2.4657227644821536
577.241379,,0.0008069371682058921,577.066,0.5249999761581421,-2.456911922714553
577.706897,,0.0024722434045415876,577.531,0.531000018119812,-2.443724358976658
578.172414,,0.0030295420516395907,577.998,0.5419999957084656,-2.419627667116182
578.6379310000001,,0.002559622190057912,578.464,0.5299999713897705,-2.4456277221913476
579.1034480000001,,0.001091381985237108,578.924,0.5400000214576721,-2.423689647588617
579.5689659999999,,0.0011823678658280752,579.394,0.5239999890327454,-2.4583937246320544
580.034483,,0.0031671829371726747,579.857,0.5519999861717224,-2.3972388050298776
580.5,,0.003443277065304539,580.32,0.5440000295639038,-2.414520743264915
580.965517,,0.002070237826151481,580.788,0.5370000004768372,-2.4296340269508114
581.431034,,0.0008487465031131499,581.251,0.5419999957084656,-2.418617637843822
581.896552,,0.0010067307143963047,581.717,0.5540000200271606,-2.3923680863269845
582.362069,,0.0014730186524681346,582.183,0.5220000147819519,-2.461999673432058
582.827586,,0.00046715224270717606,582.648,0.550000011920929,-2.4009356262078336
583.2931030000001,,0.001829453303510995,583.113,0.550000011920929,-2.40089827019739
583.758621,,0.0033673348361849117,583.579,0.5450000166893005,-2.411779137342264
584.2241379999999,,0.002827788828887228,584.044,0.574999988079071,-2.3464321284566503
584.689655,,0.0012401518487483488,584.509,0.5630000233650208,-2.372611668808673
585.155172,,0.0008893025479417629,584.969,0.5540000200271606,-2.3922776284072182
585.6206900000001,,0.003026863387522901,585.435,0.550000011920929,-2.4010714702138958
586.0862070000001,,0.0066936442449929065,585.903,0.5669999718666077,-2.3641324786705664
586.551724,,0.009546634905938878,586.365,0.5440000295639038,-2.414354940678871
587.017241,,0.00985554426897402,586.835,0.5540000200271606,-2.3926948493304407
587.482759,,0.00795071240250402,587.298,0.5540000200271606,-2.3928303368459343
587.948276,,0.00576329095892299,587.761,0.6110000014305115,-2.268786798390049
588.4137929999999,,0.004730216661076293,588.224,0.5860000252723694,-2.323390712539611
588.87931,,0.004268036602532144,588.689,0.5379999876022339,-2.4280989508885042
589.344828,,0.002745034448436592,589.155,0.5669999718666077,-2.3650445252094903
589.810345,,0.00025271435097867973,589.62,0.6119999885559082,-2.2671205996723844
590.2758620000001,,0.003362254033093281,590.088,0.5669999718666077,-2.3652597246477005
590.741379,,0.00501696862055683,590.553,0.550000011920929,-2.4023797374648788
591.2068969999999,,0.004773150307792215,591.021,0.5479999780654907,-2.406802870359763
591.672414,,0.003217178740499239,591.479,0.5630000233650208,-2.3741700622096324
592.137931,,0.0014240204023969099,591.946,0.5630000233650208,-2.374196783911337
592.603448,,0.0004371142751439593,592.409,0.5540000200271606,-2.393810422423234
593.068966,,0.0004998487876832558,592.88,0.5720000267028809,-2.3545796145258393
593.534483,,0.0008180824464114146,593.343,0.5519999861717224,-2.3981171381854414
594.0,,0.0006471593506397668,593.806,0.5709999799728394,-2.356667995145083
594.4655170000001,,0.0004004311728583482,594.275,0.5519999861717224,-2.3979898509178272
594.9310340000001,,0.0010297583412599552,594.734,0.574999988079071,-2.3477927810099226
595.3965519999999,,0.002506481388898661,595.204,0.5929999947547913,-2.3084748855128012
595.862069,,0.003694172855878634,595.669,0.5680000185966492,-2.362826995584053
596.327586,,0.0037699107176362738,596.129,0.5540000200271606,-2.393206155667152
596.793103,,0.0030661090118627166,596.594,0.578000009059906,-2.3407927142069735
597.2586210000001,,0.00233249048603134,597.061,0.5759999752044678,-2.3450230829271144
597.724138,,0.0019159286447666846,597.527,0.5699999928474426,-2.357970009456536
598.189655,,0.0021161421871304224,597.995,0.578000009059906,-2.34042143207415
598.655172,,0.003628879851363659,598.46,0.5669999718666077,-2.3642761507898142
599.12069,,0.006734291502421143,598.924,0.5519999861717224,-2.3968577406347102
599.586207,,0.010255741036958355,599.387,0.5910000205039978,-2.311807298228668
600.0517239999999,,0.012196848408305552,599.85,0.5460000038146973,-2.4097804569344303
600.517241,,0.011599171092939781,600.32,0.5540000200271606,-2.3923046448313707
600.982759,,0.009255499065231985,600.78,0.578000009059906,-2.339991303568542
601.448276,,0.00658193106944951,601.25,0.5669999718666077,-2.3639513047715384
601.913793,,0.004444548635343066,601.709,0.5649999976158142,-2.3683239338196795
602.37931,,0.003139400761555825,602.179,0.5370000004768372,-2.4293623954304335
602.844828,,0.002677483449115136,602.645,0.5649999976158142,-2.368416880921113
603.310345,,0.0026802857096379024,603.109,0.5680000185966492,-2.361955655812897
603.775862,,0.002489475374313695,603.575,0.5680000185966492,-2.362045718160492
604.2413789999999,,0.001779188491164821,604.04,0.5479999780654907,-2.405721882189185
604.706897,,0.0009540869358731813,604.505,0.5669999718666077,-2.3644411433044206
605.172414,,0.0008021245102376657,604.965,0.550000011920929,-2.4015989345604556
605.637931,,0.0016972534656482562,605.431,0.46799999475479126,-2.580374706571078
606.1034480000001,,0.0030953996564969145,605.898,0.5429999828338623,-2.417106546151866
606.5689659999999,,0.003895502111718349,606.361,0.5709999799728394,-2.3562332477019265
607.0344829999999,,0.003340023636298082,606.828,0.5419999957084656,-2.4195355227782622
607.5,,0.0014163806843640297,607.29,0.5490000247955322,-2.4043957995301692
607.965517,,0.0015272115540490158,607.758,0.5450000166893005,-2.4132077312265223
608.431034,,0.005077227700622797,608.22,0.5540000200271606,-2.3936805414073405
608.896552,,0.00852607634704954,608.686,0.5460000038146973,-2.4111712065803785
609.362069,,0.010871568946352283,609.154,0.5640000104904175,-2.371995620674861
609.827586,,0.011518632808221699,609.62,0.5429999828338623,-2.4177647226607832
610.293103,,0.010877648572630497,610.084,0.5360000133514404,-2.4330099066328246
610.758621,,0.009971338141942324,610.55,0.546999990940094,-2.409017358635954
611.2241379999999,,0.00951975324943698,611.009,0.5379999876022339,-2.4285762125057824
611.689655,,0.009682025157587244,611.475,0.5289999842643738,-2.4481151806924033
612.155172,,0.01046428262864778,611.943,0.5429999828338623,-2.417527496717869
612.62069,,0.011694089262889317,612.406,0.5249999761581421,-2.456641295547141
613.0862070000001,,0.012558108743988359,612.869,0.5230000019073486,-2.4608846448950112
613.551724,,0.012041753462435675,613.339,0.4309999942779541,-2.6611998267662855
614.017241,,0.010238675312654648,613.799,0.5529999732971191,-2.3952819260818163
614.4827590000001,,0.00851872742097242,614.269,0.5460000038146973,-2.410408037648963
614.948276,,0.00790729472742904,614.734,0.5299999713897705,-2.445142067177036
615.4137929999999,,0.007892903422866053,615.197,0.5239999890327454,-2.458093602257279
615.8793099999999,,0.007308188966287566,615.663,0.5170000195503235,-2.4732317603560032
616.344828,,0.005805455786475432,616.127,0.5139999985694885,-2.479666892964573
616.810345,,0.003959756087851045,616.594,0.5130000114440918,-2.4817590822616125
617.275862,,0.0024397025523023837,617.054,0.515999972820282,-2.475153554520206
617.741379,,0.0016205873082244617,617.519,0.5339999794960022,-2.4358863607756764
618.206897,,0.0016431480495472477,617.984,0.515999972820282,-2.475069691087644
618.672414,,0.002254355094218325,618.449,0.5109999775886536,-2.4859509507425637
619.137931,,0.0025772948351668865,618.917,0.5210000276565552,-2.4641733992238146
619.603448,,0.0014366057012126423,619.379,0.5130000114440918,-2.481632295628652
620.068966,,0.0016764467463248527,619.847,0.5249999761581421,-2.4555379179540733
620.534483,,0.005761034082785076,620.309,0.5320000052452087,-2.4403545225780756
621.0,,0.008676906579622525,620.78,0.5540000200271606,-2.392506573171822
621.465517,,0.008887384364828013,621.242,0.5210000276565552,-2.4644969766273954
621.9310340000001,,0.006991796217867356,621.708,0.503000020980835,-2.5038189859519626
622.396552,,0.005162674684467725,622.172,0.5249999761581421,-2.4560045345822314
622.862069,,0.004829698770759026,622.637,0.531000018119812,-2.4430540709522046
623.327586,,0.005191042183295497,623.103,0.5180000066757202,-2.4715002542457865
623.793103,,0.004338341463868349,623.568,0.515999972820282,-2.4759806911296773
624.258621,,0.001718557340300792,624.036,0.5090000033378601,-2.4913507707728013
624.724138,,0.0009985028731052078,624.494,0.5109999775886536,-2.4871067289253665
625.189655,,0.001763711667960002,624.965,0.5189999938011169,-2.469781133084229
625.655172,,0.0005362889654203108,625.424,0.5019999742507935,-2.506909400632637
626.1206900000001,,0.0007051155483440572,625.891,0.5019999742507935,-2.506986060374422
626.5862070000001,,0.0002984946229760472,626.354,0.5049999952316284,-2.500510226205402
627.0517239999999,,0.0013993729648447463,626.824,0.5120000243186951,-2.4853011841650052
627.5172409999999,,0.0029313750508564783,627.287,0.5040000081062317,-2.5027518225157284
627.982759,,0.003737421130501158,627.753,0.5230000019073486,-2.461357681927664
628.448276,,0.004509079100895032,628.216,0.49900001287460327,-2.513623754109466
628.913793,,0.0057705393557021,628.682,0.5199999809265137,-2.4678294424716425
629.37931,,0.0069792937939204555,629.147,0.503000020980835,-2.5048032001392238
629.844828,,0.007307255762705892,629.613,0.5249999761581421,-2.456790614592669
630.3103450000001,,0.006653290069416026,630.08,0.5080000162124634,-2.493727727876916
630.7758620000001,,0.005361443517777583,630.546,0.5270000100135803,-2.4522184821631843
631.2413789999999,,0.0033623775050530542,631.01,0.5299999713897705,-2.445555112037231
631.706897,,0.0003996186677261154,631.469,0.5320000052452087,-2.441060525485343
632.172414,,0.0028118574253929987,631.939,0.515999972820282,-2.4757759784984925
632.637931,,0.0045149229746461045,632.401,0.5040000081062317,-2.5017756871896477
633.103448,,0.0037397863368763638,632.869,0.5019999742507935,-2.5059929457228187
633.568966,,0.0018682600168294305,633.331,0.5130000114440918,-2.4818956383659567
634.034483,,0.0015366767435236973,633.795,0.5139999985694885,-2.4795964280522993
634.5,,0.0038107150223194823,634.265,0.5260000228881836,-2.453346608381693
634.9655170000001,,0.006889328436467057,634.73,0.5090000033378601,-2.4902954080924316
635.431034,,0.007806739732609137,635.193,0.5090000033378601,-2.4902280247223727
635.8965519999999,,0.0052768981401041665,635.659,0.5049999952316284,-2.4988987800169036
636.362069,,0.0008515585356620502,636.124,0.5009999871253967,-2.5075948668524384
636.827586,,0.002632207381684065,636.589,0.5210000276565552,-2.4640293103725486
637.293103,,0.0036928687811672626,637.056,0.531000018119812,-2.4422756559851098
637.7586210000001,,0.003085321418636421,637.514,0.5239999890327454,-2.4575831709439684
638.224138,,0.0020428458890411018,637.98,0.5049999952316284,-2.4990576564410687
638.689655,,0.00043780870811925207,638.446,0.515999972820282,-2.4751946869003354
639.155172,,0.002515323825911525,638.913,0.5049999952316284,-2.4992814164471007
639.62069,,0.006206091664848474,639.376,0.5339999794960022,-2.4362382312845305
640.086207,,0.008514150622484246,639.839,0.503000020980835,-2.5039258346198925
640.551724,,0.008215884496431616,640.309,0.5180000066757202,-2.471403882866891
641.017241,,0.006846757467478084,640.769,0.515999972820282,-2.4759228474951813
641.482759,,0.0073196112794716595,641.239,0.5049999952316284,-2.5000487790038597
641.9482760000001,,0.010619077742907991,641.704,0.5170000195503235,-2.4740605999184373
642.413793,,0.014518986212111893,642.169,0.5170000195503235,-2.4742062704011656
642.87931,,0.015993802613912304,642.634,0.5049999952316284,-2.5004814276608336
643.344828,,0.014553082340912597,643.098,0.5199999809265137,-2.4679148272042917
643.810345,,0.012655268685157626,643.564,0.5049999952316284,-2.50068581995311
644.275862,,0.012817678935755061,644.028,0.5170000195503235,-2.474608509920981
644.7413789999999,,0.014808297946009838,644.494,0.5299999713897705,-2.446325228053325
645.206897,,0.016049393178455607,644.958,0.5260000228881836,-2.45504910479072
645.672414,,0.014495405195976285,645.424,0.5270000100135803,-2.4528494243507146
646.1379310000001,,0.010584388863194438,645.887,0.5149999856948853,-2.4789422491626483
646.6034480000001,,0.006526616127291975,646.35,0.5210000276565552,-2.465790729181043
647.0689659999999,,0.00435991286792944,646.821,0.5260000228881836,-2.4547913392940757
647.534483,,0.004748482055956215,647.283,0.5170000195503235,-2.474269086990589
648.0,,0.006910772088780654,647.749,0.5389999747276306,-2.4261882376575445
648.465517,,0.009210129896745807,648.215,0.5149999856948853,-2.4783085882443054
648.931034,,0.010156382037164069,648.68,0.5210000276565552,-2.4650580089886014
649.396552,,0.009290039875243197,649.14,0.515999972820282,-2.4757669032123797
649.862069,,0.0070982165209594,649.605,0.5170000195503235,-2.473403281161127
650.327586,,0.004321102400564408,650.072,0.5170000195503235,-2.4732235619098675
650.7931030000001,,0.001978527560239544,650.537,0.4880000054836273,-2.5362357757762415
651.258621,,0.0016355462926315348,651.002,0.5270000100135803,-2.4511163419849997
651.7241379999999,,0.0040712633094419515,651.468,0.5139999985694885,-2.479307220324716
652.189655,,0.007419140192297767,651.931,0.5170000195503235,-2.472663940254794
652.655172,,0.008212057997337674,652.394,0.5239999890327454,-2.457333882908332
653.12069,,0.005004839649107142,652.861,0.5170000195503235,-2.472534928551217
653.5862070000001,,0.0001396511552135424,653.324,0.5260000228881836,-2.452909523999776
654.051724,,0.0042913008047879885,653.792,0.5230000019073486,-2.4594605453364737
654.517241,,0.006712587314494959,654.254,0.5180000066757202,-2.4704013383103898
654.982759,,0.008742310806036975,654.719,0.5230000019073486,-2.459587294178088
655.448276,,0.011642030738542024,655.191,0.5040000081062317,-2.5010907156583975
655.9137929999999,,0.015363947450155038,655.649,0.5379999876022339,-2.4271527747508665
656.37931,,0.018883283462752195,656.114,0.5170000195503235,-2.473063158333532
656.844828,,0.02107102229060657,656.579,0.5170000195503235,-2.4732404178677494
657.310345,,0.021599591110039947,657.044,0.515999972820282,-2.475610249816882
657.7758620000001,,0.021421063512194215,657.509,0.5350000262260437,-2.4344148809960036
658.241379,,0.021850124954360287,657.976,0.5320000052452087,-2.4411515272335844
658.7068969999999,,0.022798589284667777,658.442,0.4339999854564667,-2.6548571150768785
659.172414,,0.022639207366552533,658.909,0.5130000114440918,-2.4829352898731796
659.637931,,0.020247414723314375,659.372,0.5249999761581421,-2.4569694786548752
660.103448,,0.01623444685629176,659.835,0.6100000143051147,-2.2719393987498973
660.568966,,0.01160721260939967,660.305,0.5210000276565552,-2.465964978135727
661.034483,,0.006411552166911786,660.769,0.5080000162124634,-2.4943819085283656
661.5,,0.000690226112764151,661.231,0.5329999923706055,-2.439977479822342
661.965517,,0.004232940730690478,661.697,0.5090000033378601,-2.492291735671496
662.4310340000001,,0.006693056302344156,662.162,0.5350000262260437,-2.435637322983295
662.8965519999999,,0.006457350205983877,662.628,0.5070000290870667,-2.4965938259311344
663.362069,,0.0046926646064421275,663.095,0.5419999957084656,-2.4202602954414223
663.827586,,0.0025609248095316613,663.56,0.5239999890327454,-2.459361587000926
664.293103,,0.00046291277102976835,664.024,0.5379999876022339,-2.4287154802779436
664.7586210000001,,0.0017700361685597226,664.49,0.4830000102519989,-2.5483704673055265
665.224138,,0.004478489552890925,664.957,0.5289999842643738,-2.4479621824695346
665.689655,,0.007696172838870295,665.416,0.5170000195503235,-2.47390065837542
666.155172,,0.010857965256687386,665.884,0.5299999713897705,-2.4453636456685173
666.62069,,0.013249982572543336,666.346,0.5440000295639038,-2.4146440971959837
667.086207,,0.014624723622867992,666.809,0.4569999873638153,-2.6039720290765658
667.5517239999999,,0.015031814997616062,667.279,0.5339999794960022,-2.4360130677486826
668.017241,,0.01450359538873136,667.745,0.5080000162124634,-2.492471841394005
668.482759,,0.013526954793706808,668.209,0.5180000066757202,-2.4705212335650737
668.948276,,0.013265792449295807,668.675,0.5080000162124634,-2.4921707261703316
669.413793,,0.014312267226410812,669.14,0.492000013589859,-2.526923969306676
669.87931,,0.015382469081597159,669.606,0.5109999775886536,-2.485460066359095
670.3448279999999,,0.014215361664463372,670.065,0.5260000228881836,-2.452747579081975
670.810345,,0.010016620416113889,670.531,0.5090000033378601,-2.4897894971827084
671.275862,,0.004454195503761695,670.995,0.5299999713897705,-2.44408022032821
671.7413789999999,,6.448673423324689e-06,671.46,0.4729999899864197,-2.568342423838565
672.206897,,0.0023237239389314467,671.928,0.5180000066757202,-2.470418055665474
672.672414,,0.003226508647874666,672.391,0.515999972820282,-2.474922084401254
673.137931,,0.003916148970332467,672.854,0.5239999890327454,-2.457666106977585
673.6034480000001,,0.005006967482502571,673.324,0.515999972820282,-2.4752900190441065
674.068966,,0.0064613193410304375,673.787,0.515999972820282,-2.4755005947809576
674.5344829999999,,0.007893264153076436,674.25,0.5249999761581421,-2.4561130285225343
675.0,,0.008868379595459535,674.715,0.4830000102519989,-2.547840198837968
675.465517,,0.009280041833458774,675.182,0.5450000166893005,-2.412985244190554
675.931034,,0.009483573088601597,675.648,0.5049999952316284,-2.5003425687367367
676.396552,,0.00987374888021684,676.113,0.5049999952316284,-2.500537937273496
676.862069,,0.010397956323252881,676.578,0.531000018119812,-2.4440668753868566
677.327586,,0.010675441317316165,677.043,0.5260000228881836,-2.455106388174646
