Trial: ,14
Threshold: ,0.0
Maximum EMG: ,0.034870864554416556
Success: ,True

EMG Time,Raw EMG,Filtered EMG,Force Time,Raw Force (V),Filtered Force (N)
0.0,samples,1.581900907971726e-06,0.471,0.5379999876022339,-2.4262139457680765
0.46551699999999996,time,1.3022018322447854e-06,0.933,0.5230000019073486,-2.458673127152459
0.9310339999999999,value,1.0057819400688042e-06,1.396,0.5249999761581421,-2.454153840554121
1.396552,,6.929755976003779e-07,1.864,0.5360000133514404,-2.430090247544384
1.862069,,3.641900160546643e-07,2.326,0.5339999794960022,-2.434415734935288
2.327586,,1.9906946348507693e-08,2.792,0.5440000295639038,-2.4126645889376173
2.793103,,3.3931581874115057e-07,3.262,0.5429999828338623,-2.4149449180232354
3.258621,,7.128431485704369e-07,3.72,0.49399998784065247,-2.5218642526934656
3.724138,,1.0999614982956193e-06,4.192,0.5299999713897705,-2.443658652326738
4.189654999999999,,1.4998780655374617e-06,4.65,0.5249999761581421,-2.4548306465858456
4.655172,,1.911720193111182e-06,5.115,0.515999972820282,-2.474761423076968
5.12069,,2.3345350305777117e-06,5.581,0.546999990940094,-2.4075802530136965
5.586207,,2.767289467000339e-06,6.048,0.515999972820282,-2.4754980295274227
6.051723999999999,,3.2088703468590342e-06,6.514,0.5419999957084656,-2.4192436442080996
6.517241,,3.6580849805817104e-06,6.975,0.5170000195503235,-2.4740992321114024
6.982759,,4.113661960596511e-06,7.444,0.5230000019073486,-2.4614038415912853
7.448276,,4.5742522931912e-06,7.907,0.5009999871253967,-2.5096865510677744
7.913793000000001,,5.038430855784342e-06,8.37,0.5299999713897705,-2.446823152343114
8.379309999999998,,5.5046981884679524e-06,8.841,0.5540000200271606,-2.3948066736869755
8.844828000000001,,5.971482627872513e-06,9.303,0.5379999876022339,-2.4298803636474506
9.310345,,6.437142790532867e-06,9.769,0.5460000038146973,-2.4126034930455424
9.775862,,6.89997041199778e-06,10.232,0.5339999794960022,-2.4388321302541645
10.241379,,7.358193546927693e-06,10.697,0.5210000276565552,-2.467169441837884
10.706897,,7.809980134365021e-06,11.162,0.5379999876022339,-2.430077432650811
11.172414,,8.253441931240545e-06,11.629,0.5529999732971191,-2.397273529822235
11.637931,,8.686638815999262e-06,12.096,0.5339999794960022,-2.438477747314962
12.103447999999998,,9.107583462991256e-06,12.561,0.4819999933242798,-2.5515187080087984
12.568966000000001,,9.514246386979501e-06,13.026,0.515999972820282,-2.477146580721165
13.034483,,9.904561355769425e-06,13.492,0.5339999794960022,-2.437591990426722
13.5,,1.0276431167566748e-05,13.952,0.5360000133514404,-2.4328640156562544
13.965517,,1.0627733788223733e-05,14.415,0.5339999794960022,-2.4368301326907345
14.431034,,1.0956328842042118e-05,14.885,0.5419999957084656,-2.4190010000608404
14.896552,,1.1260064448267478e-05,15.347,0.5410000085830688,-2.420783258753874
15.362069,,1.1536784393837958e-05,15.818,0.546999990940094,-2.4073307320221065
15.827586000000002,,1.178433563134428e-05,16.281,0.5199999809265137,-2.4658015519911
16.293103,,1.2000576089521936e-05,16.746,0.531000018119812,-2.441523352994151
16.758621,,1.2183382781934913e-05,17.212,0.5210000276565552,-2.4630467959253504
17.224138,,1.2330660197828217e-05,17.67,0.5249999761581421,-2.4541276924991675
17.689655,,1.2440348957428714e-05,18.137,0.43799999356269836,-2.643532142291943
18.155172,,1.2510434712266098e-05,18.603,0.5360000133514404,-2.42995886980301
18.62069,,1.2538957269373276e-05,19.067,0.5379999876022339,-2.42560842212015
19.086207,,1.2524019916514656e-05,19.533,0.5270000100135803,-2.4496507989419807
19.551724,,1.246379892388731e-05,19.996,0.5260000228881836,-2.451975193532095
20.017241000000002,,1.2356553196050684e-05,20.465,0.5210000276565552,-2.4630785076821855
20.482758999999998,,1.220063404617155e-05,20.926,0.5540000200271606,-2.391450543548583
20.948276,,1.1994495063029507e-05,21.396,0.5249999761581421,-2.454947369908584
21.413793000000002,,1.1736702039621307e-05,21.859,0.5419999957084656,-2.4182650040211673
21.87931,,1.1425942930637017e-05,22.322,0.5540000200271606,-2.3925033783557867
22.344828,,1.1061037804564705e-05,22.787,0.5419999957084656,-2.4190445817848256
22.810344999999998,,1.0640948754720626e-05,23.25,0.5540000200271606,-2.393300982190216
23.275862,,1.0164789732106397e-05,23.716,0.5419999957084656,-2.419835641343565
23.741379,,9.631836261671078e-06,24.181,0.5419999957084656,-2.420205259541772
24.206897,,9.041535002312392e-06,24.647,0.5410000085830688,-2.4227212277010586
24.672414,,8.393513109795157e-06,25.112,0.4519999921321869,-2.6169175080289233
25.137931,,7.687587360704536e-06,25.578,0.515999972820282,-2.4777326278480287
25.603448,,6.923772994594626e-06,26.044,0.5329999923706055,-2.4408875713421616
26.068966,,6.102292230647293e-06,26.509,0.5759999752044678,-2.3473324200392804
26.534483,,5.2235824144295925e-06,26.97,0.5529999732971191,-2.397497259405768
27.0,,4.288303749738629e-06,27.44,0.515999972820282,-2.4780913056467977
27.465517,,3.2973465700575994e-06,27.9,0.5410000085830688,-2.4235389363425983
27.931034,,2.2518381038237785e-06,28.369,0.5239999890327454,-2.460422556803126
28.396552,,1.153148687535459e-06,28.833,0.5519999861717224,-2.399203856546541
28.862069,,2.8973807074938415e-09,29.295,0.5299999713897705,-2.446860895381148
29.327586,,1.1970430631691177e-06,29.761,0.5130000114440918,-2.48357684065404
29.793103000000002,,2.4445419151926476e-06,30.225,0.5249999761581421,-2.457075092987304
30.258620999999998,,3.737206924178702e-06,30.691,0.5299999713897705,-2.44579756785444
30.724138,,5.072381548715404e-06,31.159,0.5529999732971191,-2.3952890397334623
31.189655000000002,,6.4471430116498e-06,31.625,0.5170000195503235,-2.4733174157135855
31.655172000000004,,7.858301219457e-06,32.089,0.5339999794960022,-2.4358872653936934
32.12069,,9.302398587694216e-06,32.554,0.5419999957084656,-2.4180865295240146
32.586207,,1.077571081229165e-05,33.018,0.5450000166893005,-2.4112115045097013
33.051724,,1.227424862477769e-05,33.484,0.45100000500679016,-2.6157099756764
33.517241000000006,,1.3793760567674069e-05,33.952,0.5230000019073486,-2.4586083078136545
33.982759,,1.5329736824225408e-05,34.414,0.5339999794960022,-2.434466104046587
34.448276,,1.687741413434493e-05,34.882,0.5540000200271606,-2.3907809678697443
34.913793,,1.843178182616331e-05,35.345,0.5419999957084656,-2.4168804446256145
35.37931,,1.9987588989860363e-05,35.815,0.5400000214576721,-2.421262466935383
35.844828,,2.1539352817540024e-05,36.27,0.5339999794960022,-2.434428046615546
36.310345,,2.3081368129778805e-05,36.736,0.5170000195503235,-2.4716251495871524
36.775862,,2.460771810613935e-05,37.2,0.5339999794960022,-2.4348104754858553
37.241378999999995,,2.6112286233395726e-05,37.665,0.5299999713897705,-2.4438024644019927
37.706897000000005,,2.7588769481470554e-05,38.133,0.5440000295639038,-2.4136248177137762
38.172414,,2.9030692713139747e-05,38.598,0.5260000228881836,-2.4532002879916797
38.637931,,3.043142432942439e-05,39.063,0.5419999957084656,-2.418727057720869
39.103448,,3.178419314826772e-05,39.528,0.5419999957084656,-2.4191254689267256
39.568965999999996,,3.3082106509595136e-05,39.99,0.5419999957084656,-2.4195247423056583
40.034483,,3.431816959518601e-05,40.46,0.5419999957084656,-2.419912716494818
40.5,,3.548530594695554e-05,40.922,0.5419999957084656,-2.420277591200058
40.965517,,3.657637916226514e-05,41.385,0.5180000066757202,-2.4728962908711405
41.431034,,3.758421573976082e-05,41.856,0.5329999923706055,-2.440504555067025
41.896552,,3.850162904399273e-05,42.318,0.5799999833106995,-2.3383431164983293
42.362069000000005,,3.9321444351710644e-05,42.784,0.5210000276565552,-2.467057397296433
42.827586000000004,,4.003652493727095e-05,43.246,0.5419999957084656,-2.421414613724821
43.293103,,4.06397991490493e-05,43.712,0.527999997138977,-2.451956522501631
43.758621,,4.112428842314163e-05,44.177,0.5410000085830688,-2.423605622171333
44.224138,,4.148313617497561e-05,44.643,0.5210000276565552,-2.467081931561674
44.689655,,4.170963750376024e-05,45.111,0.515999972820282,-2.4778140315251513
45.155172,,4.179726963899319e-05,45.576,0.5370000004768372,-2.4318415095509414
45.620689999999996,,4.1739723052542916e-05,46.041,0.5389999747276306,-2.4272098253159986
46.086206999999995,,4.153093315414656e-05,46.5,0.5299999713897705,-2.446497612451765
46.551724,,4.1165112482535726e-05,46.97,0.5289999842643738,-2.448320541071673
47.017241,,4.063678329884392e-05,47.432,0.5320000052452087,-2.4414041228374086
47.482759,,3.994081048348294e-05,47.9,0.546999990940094,-2.4083303727063803
47.948276,,3.907243463232526e-05,48.362,0.5529999732971191,-2.3948620309608244
48.413793,,3.802730524281987e-05,48.83,0.5260000228881836,-2.45329852984617
48.879310000000004,,3.6801513875623425e-05,49.292,0.5289999842643738,-2.446397887651059
49.344828,,3.539162717247348e-05,49.758,0.5379999876022339,-2.426458699837097
49.810345,,3.379471960639046e-05,50.222,0.5360000133514404,-2.4305277469989144
50.275862,,3.200840583589616e-05,50.687,0.5419999957084656,-2.4172193855645303
50.741379,,3.003087253080536e-05,51.152,0.5329999923706055,-2.436649602812257
51.206897,,2.786090953330893e-05,51.617,0.5239999890327454,-2.4561445097722974
51.672414,,2.5497940214549066e-05,52.085,0.5389999747276306,-2.423420237427631
52.137931,,2.2942050883715462e-05,52.551,0.5329999923706055,-2.4365170116386414
52.603448,,2.0194019103892046e-05,53.015,0.5410000085830688,-2.4191812525464207
53.068966,,1.725534076648338e-05,53.481,0.5419999957084656,-2.417161651168462
53.534483,,1.4128255774073702e-05,53.944,0.5239999890327454,-2.4565972946999084
54.0,,1.0815772180044995e-05,54.406,0.5429999828338623,-2.4154775169554026
54.465517,,7.321688632228788e-06,54.874,0.5329999923706055,-2.437584665221273
54.931034,,3.650614967313285e-06,55.336,0.5460000038146973,-2.4096191007065566
55.396552,,1.9200919730308799e-07,55.802,0.5270000100135803,-2.451395821786447
55.862069,,4.199898027006285e-06,56.266,0.5529999732971191,-2.3951473448677114
56.327586,,8.365905340522724e-06,56.731,0.5360000133514404,-2.4325822634060805
56.793102999999995,,1.268201293758166e-05,57.196,0.5249999761581421,-2.4569354293709345
57.258621000000005,,1.7139321531453317e-05,57.662,0.5389999747276306,-2.4268009983195826
57.724138,,2.1728044431231988e-05,58.129,0.6320000290870667,-2.2245187103093844
58.189655,,2.6437504115191595e-05,58.595,0.5170000195503235,-2.4753495496073787
58.655172,,3.125613183234267e-05,59.06,0.5339999794960022,-2.4385463997379424
59.120689999999996,,3.6171470364451364e-05,59.525,0.550000011920929,-2.403863656641166
59.586207,,4.1170180075231054e-05,59.988,0.5989999771118164,-2.297220514938204
60.051724,,4.6238048367175824e-05,60.451,0.5239999890327454,-2.4606607181648417
60.517241,,5.136000265956467e-05,60.919,0.5400000214576721,-2.4257752453595987
60.982758999999994,,5.6520126993520776e-05,61.381,0.5429999828338623,-2.419145550210195
61.448276,,6.170168236165799e-05,61.849,0.5019999742507935,-2.5083128643796657
61.913793,,6.68871308507865e-05,62.311,0.503000020980835,-2.505919591605537
62.379310000000004,,7.205816367638227e-05,62.776,0.5419999957084656,-2.4206870752197363
62.84482800000001,,7.719573317705553e-05,63.24,0.5210000276565552,-2.466129481804059
63.310345000000005,,8.22800888260887e-05,63.705,0.5490000247955322,-2.404782949410187
63.775862000000004,,8.72908173052634e-05,64.17,0.5289999842643738,-2.447986374839907
64.241379,,9.220688667367353e-05,64.635,0.5360000133514404,-2.4323518587591915
64.706897,,9.70066946510396e-05,65.101,0.5320000052452087,-2.440679836884566
65.172414,,0.00010166812102121954,65.566,0.515999972820282,-2.475160658614257
65.637931,,0.00010616858414717498,66.033,0.515999972820282,-2.474803814501614
66.103448,,0.00011048510157362145,66.499,0.5339999794960022,-2.4352624892678345
66.56896599999999,,0.00011459435467799704,66.963,0.5379999876022339,-2.4262622277858994
67.03448300000001,,0.00011847275731425693,67.425,0.6449999809265137,-2.1929069374208536
67.5,,0.00012209652837737436,67.893,0.5070000290870667,-2.4933719420557816
67.965517,,0.00012544176819934065,68.355,0.5400000214576721,-2.421347573620993
68.431034,,0.00012848453866994887,68.826,0.5170000195503235,-2.471392766536131
68.896552,,0.0001312009469577622,69.288,0.4880000054836273,-2.534577855728039
69.362069,,0.00013356723268845454,69.753,0.5230000019073486,-2.458398122762911
69.827586,,0.00013555985841922047,70.218,0.5260000228881836,-2.4520008569561305
70.293103,,0.0001371556032292366,70.684,0.5170000195503235,-2.4718084060541488
70.75862099999999,,0.00013833165922727436,71.149,0.5270000100135803,-2.4502766913584897
71.22413800000001,,0.00013906573075857446,71.614,0.5429999828338623,-2.415720014505789
71.689655,,0.00013933613607406163,72.081,0.5540000200271606,-2.3920932972315394
72.15517200000001,,0.00013912191120596444,72.547,0.5210000276565552,-2.464353856854814
72.62069,,0.00013840291577498542,73.012,0.5419999957084656,-2.4189838554960215
73.086207,,0.00013715994043540653,73.47,0.5040000081062317,-2.5021596765156975
73.551724,,0.00013537481564599054,73.94,0.5339999794960022,-2.4371820134499584
74.017241,,0.00013303052143632605,74.403,0.5210000276565552,-2.4658691474056194
74.482759,,0.00013011129782044197,74.866,0.550000011920929,-2.403024717630581
74.94827599999999,,0.0001266027554921629,75.336,0.5419999957084656,-2.4207511729450855
75.41379300000001,,0.00012249198641987706,75.802,0.5419999957084656,-2.4210001995420916
75.87931,,0.00011776767394222172,76.266,0.5249999761581421,-2.458231222453988
76.344828,,0.0001124202019507485,76.731,0.5329999923706055,-2.440935645270719
76.810345,,0.00010644176273099084,77.197,0.5429999828338623,-2.419218468093475
77.275862,,9.982646301961313e-05,77.655,0.5419999957084656,-2.4213995417436456
77.741379,,9.257042782255565e-05,78.122,0.5199999809265137,-2.4692657523890635
78.206897,,8.4671901527396e-05,78.587,0.5180000066757202,-2.4734952175683103
78.67241399999999,,7.613134583260823e-05,79.052,0.5519999861717224,-2.399233466382556
79.137931,,6.695153400710594e-05,79.517,0.5419999957084656,-2.4207768646042966
79.603448,,5.7137640985490765e-05,79.985,0.5509999990463257,-2.400877452486132
80.068966,,4.669732879787871e-05,80.447,0.5199999809265137,-2.468084752104141
80.53448300000001,,3.5640826828127955e-05,80.911,0.5669999718666077,-2.365328128116719
81.0,,2.398100639082554e-05,81.381,0.5460000038146973,-2.4107003158683744
81.465517,,1.1733449115587345e-05,81.841,0.5289999842643738,-2.4473503894466826
81.931034,,1.0834913728361343e-06,82.312,0.5260000228881836,-2.453504332053819
82.396552,,1.4448634988401286e-05,82.77,0.5189999938011169,-2.4683901205934484
82.86206899999999,,2.833792843767073e-05,83.241,0.5249999761581421,-2.4549816541244263
83.327586,,4.272440669428219e-05,83.707,0.5379999876022339,-2.4263604660957543
83.79310299999999,,5.757816318687903e-05,84.166,0.546999990940094,-2.4064998588535222
84.258621,,7.286632918369463e-05,84.632,0.5289999842643738,-2.445515988461569
84.72413800000001,,8.855306284514741e-05,85.096,0.5379999876022339,-2.4257679627981474
85.189655,,0.00010459954840178353,85.562,0.5249999761581421,-2.4540139856277405
85.65517200000001,,0.00012096400589865532,86.026,0.5249999761581421,-2.4540037741187795
86.12069,,0.00013760171192870723,86.492,0.5419999957084656,-2.4170228245154286
86.586207,,0.0001544650317569279,86.955,0.5260000228881836,-2.452001482077331
87.051724,,0.00017150346321388916,87.425,0.5299999713897705,-2.4434680094202594
87.517241,,0.00018866369271181637,87.889,0.5419999957084656,-2.417560253826918
87.98275899999999,,0.0002058896637085077,88.351,0.5540000200271606,-2.3916996582563192
88.448276,,0.00022312265791424042,88.819,0.5529999732971191,-2.394199619934414
88.913793,,0.00024030138950428004,89.281,0.5429999828338623,-2.4163356420926663
89.37931,,0.00025736211256475387,89.747,0.5529999732971191,-2.394916854089963
89.844828,,0.00027423874196249123,90.212,0.5230000019073486,-2.4606515537645075
90.310345,,0.000290862987790002,90.677,0.5429999828338623,-2.417450958498624
90.775862,,0.0003071645034951054,91.144,0.5519999861717224,-2.398201167414886
91.241379,,0.00032307104776088506,91.609,0.5440000295639038,-2.415962926488413
91.706897,,0.0003385086601556994,92.073,0.5649999976158142,-2.3705085995288697
92.17241399999999,,0.00035340185052498485,92.539,0.5339999794960022,-2.438299854482311
92.63793100000001,,0.00036767380204664774,93.0,0.5370000004768372,-2.431966187059793
93.103448,,0.0003812465878200358,93.47,0.5540000200271606,-2.3950750104973246
93.568966,,0.0003940414008049187,93.933,0.5400000214576721,-2.4256610099778824
94.03448300000001,,0.00040597879687170397,94.396,0.5460000038146973,-2.4126108451597355
94.5,,0.0004169789506674026,94.867,0.5270000100135803,-2.453963575656413
94.965517,,0.00042696192394376704,95.329,0.5419999957084656,-2.421180709760992
95.431034,,0.0004358479459347081,95.794,0.5540000200271606,-2.3948748991279825
95.896552,,0.0004435577053097125,96.257,0.527999997138977,-2.451303714786979
96.36206899999999,,0.0004500126531687048,96.723,0.5519999861717224,-2.3987526786308044
96.827586,,0.0004551353164817971,97.189,0.5210000276565552,-2.465987895080264
97.293103,,0.0004588496213148522,97.654,0.5379999876022339,-2.428618156758868
97.758621,,0.00046108122511893723,98.119,0.5419999957084656,-2.4195504707231428
98.224138,,0.0004617578572987914,98.584,0.5669999718666077,-2.3647203771959204
98.689655,,0.00046080966721258256,99.051,0.5540000200271606,-2.392677871030336
99.155172,,0.00045816957869271774,99.51,0.5419999957084656,-2.4184669129964886
99.62069,,0.0004537736501155412,99.978,0.5440000295639038,-2.413775868941679
100.086207,,0.0004475614389866506,100.44,0.527999997138977,-2.448332039143681
100.551724,,0.0004394763699485318,100.908,0.531000018119812,-2.441534503797956
101.017241,,0.0004294661050585291,101.371,0.5400000214576721,-2.421713499454802
101.482759,,0.0004174829151280938,101.841,0.531000018119812,-2.441162524451701
101.948276,,0.00040348405085906535,102.303,0.5410000085830688,-2.4192760791330206
102.413793,,0.0003874321124597142,102.769,0.527999997138977,-2.447560250936278
102.87931,,0.00036929541637269805,103.233,0.5490000247955322,-2.4018328126658575
103.344828,,0.0003490483576992453,103.698,0.5419999957084656,-2.417168930789226
103.810345,,0.00032667176685906334,104.162,0.5410000085830688,-2.41949152918659
104.275862,,0.00030215325898397727,104.628,0.5249999761581421,-2.454548523087602
104.741379,,0.0002754875745054184,105.093,0.5400000214576721,-2.422116144572019
105.206897,,0.00024667690936190016,105.559,0.5270000100135803,-2.450727565492885
105.672414,,0.0002157312332228375,106.026,0.5929999947547913,-2.3072575548831984
106.13793100000001,,0.00018266859409975892,106.491,0.5210000276565552,-2.464462491162868
106.603448,,0.00014751540769543001,106.952,0.5429999828338623,-2.416886993386678
107.068966,,0.00011030672982592213,107.421,0.49000000953674316,-2.5327135637433225
107.534483,,7.108651024049947e-05,107.882,0.5419999957084656,-2.419775660074677
108.0,,2.9907826159628424e-05,108.351,0.546999990940094,-2.4092164493993926
108.46551699999999,,1.3166906147306335e-05,108.81,0.5320000052452087,-2.442201662768639
108.931034,,5.8065743415615465e-05,109.281,0.550000011920929,-2.403254104151317
109.396552,,0.00010470705272756819,109.747,0.5400000214576721,-2.425263295254558
109.862069,,0.00015299937578034701,110.207,0.5289999842643738,-2.449399566247135
110.32758600000001,,0.00020284132168968367,110.672,0.5540000200271606,-2.3950478108434785
110.793103,,0.0002541214899051436,111.137,0.5339999794960022,-2.4386753053612917
111.258621,,0.00030671842477185456,111.603,0.5450000166893005,-2.414702950458999
111.724138,,0.00036050060322499126,112.071,0.5260000228881836,-2.456029229605942
112.189655,,0.0004153264570473893,112.536,0.5329999923706055,-2.4406522867782607
112.655172,,0.0004710444310571478,112.996,0.5529999732971191,-2.396897994631698
113.12069,,0.0005274930785208927,113.466,0.5299999713897705,-2.446775670985168
113.586207,,0.0005845011950094285,113.926,0.5540000200271606,-2.3942137384583337
114.051724,,0.0006418879918257672,114.396,0.5239999890327454,-2.459264298230035
114.51724100000001,,0.0006994633100409492,114.859,0.5410000085830688,-2.421893013768406
114.982759,,0.0007570278760706739,115.322,0.5299999713897705,-2.445508829487878
115.448276,,0.000814373599615567,115.787,0.5270000100135803,-2.451690542275711
115.913793,,0.0008712839146699792,116.25,0.5360000133514404,-2.4317343647580367
116.37931,,0.0009275341641786371,116.716,0.5419999957084656,-2.418329825839117
116.84482799999999,,0.000982892028787384,117.181,0.531000018119812,-2.441987428661118
117.310345,,0.0010371179999937963,117.647,0.5460000038146973,-2.40903442307676
117.77586199999999,,0.0010899658978558296,118.112,0.5659999847412109,-2.365229613113838
118.241379,,0.0011411834332620443,118.577,0.5770000219345093,-2.341079490313517
118.70689700000001,,0.0011905128146056996,119.044,0.5419999957084656,-2.4171996500719546
119.172414,,0.0012376913985373726,119.509,0.5389999747276306,-2.4236604274647604
119.63793100000001,,0.0012824523842970765,119.97,0.5400000214576721,-2.421466916620655
120.103448,,0.0013245255509474025,120.44,0.5170000195503235,-2.471622523057259
120.568966,,0.0013636380366444127,120.9,0.5460000038146973,-2.408548827380955
121.034483,,0.001399515158893516,121.37,0.5410000085830688,-2.419605921881287
121.5,,0.0014318812745439155,121.833,0.5419999957084656,-2.4176427550681967
121.96551699999999,,0.0014604606780776847,122.296,0.5339999794960022,-2.43533292548145
122.431034,,0.0014849785365482332,122.761,0.5429999828338623,-2.4160239511564177
122.896552,,0.0015051618593187037,123.229,0.5320000052452087,-2.440317077398695
123.362069,,0.0015207405005454513,123.695,0.5709999799728394,-2.3556968467298773
123.827586,,0.0015314481921461821,124.159,0.5299999713897705,-2.44537680211685
124.293103,,0.0015370236047853275,124.625,0.5540000200271606,-2.393442606301536
124.758621,,0.0015372114341992672,125.089,0.550000011920929,-2.4024984217389873
125.22413800000001,,0.0015317635099741623,125.555,0.5450000166893005,-2.4137103170243
125.68965500000002,,0.0015204399236866126,126.015,0.5460000038146973,-2.411818682226455
126.15517200000001,,0.0015030101731235161,126.48,0.5339999794960022,-2.438209676057773
126.62069000000001,,0.0014792543191004222,126.948,0.5720000267028809,-2.355620654863808
127.086207,,0.0014489641511869619,127.411,0.5540000200271606,-2.3949819648718904
127.55172400000001,,0.0014119443584418828,127.881,0.5389999747276306,-2.4277492399317944
128.017241,,0.0013680137010968778,128.344,0.5299999713897705,-2.4473848774318534
128.48275900000002,,0.0013170061790026076,128.815,0.5379999876022339,-2.4299234453623404
128.948276,,0.0012587721924819605,129.27,0.531000018119812,-2.4450826567276076
129.413793,,0.001193179690973645,129.735,0.5490000247955322,-2.405719032190413
129.87931,,0.0011201153046199134,130.202,0.5509999990463257,-2.401160905150417
130.344828,,0.0010394854539636732,130.667,0.5419999957084656,-2.420520497218582
130.81034499999998,,0.0009512174330811292,131.133,0.5339999794960022,-2.43766177367373
131.275862,,0.0008552604612881027,131.598,0.5019999742507935,-2.5070603729141157
131.741379,,0.0007515866978140391,132.063,0.5350000262260437,-2.434826391741987
132.206897,,0.0006401922133991274,132.529,0.5360000133514404,-2.4322982156803814
132.67241399999997,,0.0005210979137530172,132.992,0.550000011920929,-2.4014456466371077
133.13793099999998,,0.00039435041133914874,133.455,0.5210000276565552,-2.464283193905301
133.60344800000001,,0.00026002284102287,133.922,0.5339999794960022,-2.4356363660130533
134.06896600000002,,0.00011821561116646111,134.385,0.5540000200271606,-2.391766629012111
134.53448300000002,,3.094291953261748e-05,134.855,0.5339999794960022,-2.4350788456415695
135.0,,0.00018729584204700323,135.318,0.5669999718666077,-2.3629657319748163
135.465517,,0.0003506571680723574,135.783,0.5419999957084656,-2.417263337917782
135.931034,,0.0005208113741689195,136.246,0.5410000085830688,-2.419327852189568
136.396552,,0.0006975130443569575,136.712,0.5440000295639038,-2.4127361204089155
136.862069,,0.0008804866388029974,137.178,0.5419999957084656,-2.4170978468323296
137.327586,,0.0010694263698082117,137.644,0.5210000276565552,-2.462914319612268
137.793103,,0.0012639961242697072,138.11,0.5239999890327454,-2.4565029736677304
138.258621,,0.0014638294333146188,138.576,0.5360000133514404,-2.4305398392414603
138.724138,,0.0016685296248729956,139.041,0.5299999713897705,-2.4438431907054623
139.189655,,0.0018776702756504494,139.5,0.5379999876022339,-2.4266891847956398
139.655172,,0.002090795785239303,139.97,0.5360000133514404,-2.4313574093605492
140.12069,,0.0023074216998428465,140.433,0.531000018119812,-2.442588388534321
140.586207,,0.00252703486056393,140.901,0.5120000243186951,-2.4843379700408064
141.05172399999998,,0.0027490942088680883,141.362,0.5440000295639038,-2.4149837830805043
141.51724099999998,,0.0029730327652108647,141.826,0.5410000085830688,-2.421878285476224
141.982759,,0.0031982594853713457,142.296,0.5540000200271606,-2.393898954292186
142.44827600000002,,0.0034241589040949257,142.761,0.5389999747276306,-2.42689629035988
142.913793,,0.003650089565236186,143.226,0.5379999876022339,-2.4293577526026655
143.37931,,0.0038753863355550054,143.692,0.5460000038146973,-2.412168523041676
143.844828,,0.004099368614009414,144.152,0.531000018119812,-2.4450382797684043
144.310345,,0.0043213455595117545,144.618,0.5440000295639038,-2.4168504251028997
144.77586200000002,,0.004540607116959848,145.081,0.5519999861717224,-2.3994960966991496
145.241379,,0.004756410141064889,145.547,0.5249999761581421,-2.458332249357151
145.706897,,0.00496799010244339,146.011,0.5320000052452087,-2.44303233329299
146.172414,,0.005174603564145256,146.477,0.5339999794960022,-2.4385654095523592
146.637931,,0.00537554287492984,146.941,0.5339999794960022,-2.4383982311016457
147.103448,,0.005570065693209527,147.41,0.5230000019073486,-2.4621435745563662
147.568966,,0.00575731395451477,147.871,0.550000011920929,-2.403053900738386
148.034483,,0.005936399786742081,148.341,0.5540000200271606,-2.394033564164067
148.5,,0.006106646527787885,148.808,0.5410000085830688,-2.422019142187354
148.965517,,0.00626761038521484,149.265,0.5419999957084656,-2.4194826699203893
149.43103399999998,,0.0064186083720555445,149.73,0.5339999794960022,-2.436543904193121
149.89655199999999,,0.0065583036229380645,150.197,0.5440000295639038,-2.414390052979041
150.362069,,0.006685351841982247,150.662,0.5320000052452087,-2.440178196554473
150.82758600000003,,0.006799776328873878,151.126,0.550000011920929,-2.4006287663284542
151.293103,,0.0069027423135990425,151.592,0.503000020980835,-2.50272381421328
151.758621,,0.006993556348967816,152.059,0.492000013589859,-2.5264303824215832
152.224138,,0.007067743606037161,152.524,0.5419999957084656,-2.4172902377884395
152.68965500000002,,0.007121690967491394,152.985,0.5289999842643738,-2.44546054503495
153.155172,,0.007160311095743922,153.455,0.5370000004768372,-2.4279386023974903
153.62069,,0.007193615269190124,153.918,0.5389999747276306,-2.4235507440461084
154.086207,,0.0072182268340387976,154.381,0.49300000071525574,-2.52380160785628
154.551724,,0.007209688128470386,154.852,0.5389999747276306,-2.4236804131486474
155.017241,,0.0071543429051888745,155.314,0.5339999794960022,-2.4347302246331615
155.482759,,0.007090593343254705,155.78,0.5540000200271606,-2.3913680452877037
155.948276,,0.007076257677617602,156.243,0.5400000214576721,-2.4221277820045795
156.413793,,0.0070777027267621955,156.709,0.5339999794960022,-2.435498901664026
156.87931,,0.0069485329812932935,157.174,0.5419999957084656,-2.418400924499407
157.34482799999998,,0.006640562758087717,157.64,0.5540000200271606,-2.3926104113351983
157.81034499999998,,0.006415893941270186,158.1,0.546999990940094,-2.408225704137711
158.275862,,0.0065821635677146585,158.565,0.5299999713897705,-2.4456286155175664
158.741379,,0.006845241068521835,159.03,0.5329999923706055,-2.4394497276557447
159.20689700000003,,0.006338744745364169,159.495,0.5669999718666077,-2.365713308093445
159.672414,,0.004985832845180328,159.963,0.5669999718666077,-2.3660203229703893
160.137931,,0.004538194672051616,160.426,0.5419999957084656,-2.4207539064601225
160.60344800000001,,0.006566970312575067,160.896,0.5759999752044678,-2.346900313702144
161.06896600000002,,0.00836254101980824,161.359,0.5389999747276306,-2.427677429073446
161.534483,,0.0026343081180064546,161.822,0.5460000038146973,-2.4125364951077817
162.0,,0.01582527105409428,162.285,0.5230000019073486,-2.462695522613009
162.465517,,0.043241653239771013,162.751,0.5339999794960022,-2.4387201340390914
162.931034,,0.06901840865758019,163.222,0.5419999957084656,-2.4212204652135876
163.396552,,0.08497987835486828,163.68,0.5360000133514404,-2.434163414273458
163.862069,,0.09050562268150814,164.145,0.5299999713897705,-2.447051935465837
164.327586,,0.08908943033120205,164.611,0.550000011920929,-2.403246064665026
164.793103,,0.08319539492028313,165.077,0.5429999828338623,-2.418220693429659
165.258621,,0.07365270319816217,165.543,0.5490000247955322,-2.404837209008012
165.72413799999998,,0.061523699040607706,166.015,0.5440000295639038,-2.4153923387279574
166.189655,,0.04825833061058365,166.473,0.5519999861717224,-2.3976081297775647
166.655172,,0.034555728489412366,166.937,0.5249999761581421,-2.4560700447701915
167.12069,,0.020445967356626862,167.4,0.5540000200271606,-2.392531644740732
167.58620699999997,,0.006447001067951561,167.87,0.5329999923706055,-2.437940080969167
168.051724,,0.006155281804967697,168.333,0.5419999957084656,-2.4180131065607164
168.517241,,0.016324779111887806,168.798,0.5540000200271606,-2.3915832565209993
168.98275900000002,,0.024173607751153077,169.262,0.546999990940094,-2.4065887031792066
169.44827600000002,,0.030588706319209683,169.728,0.5410000085830688,-2.4194634600894234
169.913793,,0.03599029394360724,170.193,0.5379999876022339,-2.4258565360164086
170.37931,,0.0396223431633607,170.659,0.5379999876022339,-2.425772189928321
170.844828,,0.04026299085749554,171.125,0.5199999809265137,-2.464964991998967
171.310345,,0.03777686697972245,171.591,0.5299999713897705,-2.4432182604639454
171.775862,,0.03392716521383038,172.056,0.5249999761581421,-2.454212808618975
172.241379,,0.03127071977789927,172.521,0.5350000262260437,-2.4325859817116346
172.706897,,0.03077751944546165,172.981,0.546999990940094,-2.4066553715920254
173.172414,,0.030688593732113544,173.451,0.5419999957084656,-2.4178083289208607
173.637931,,0.028420074108821202,173.911,0.5440000295639038,-2.4137497198647453
174.103448,,0.023714537276256806,174.381,0.5450000166893005,-2.411900291708505
174.568966,,0.01920004159712536,174.841,0.5049999952316284,-2.499397126680997
175.034483,,0.01751468733462601,175.311,0.5429999828338623,-2.4169715826167986
175.5,,0.0184898667798176,175.776,0.5339999794960022,-2.436943811302348
175.96551699999998,,0.01965012442893286,176.24,0.5540000200271606,-2.393725091795393
176.43103399999998,,0.019045452382195814,176.705,0.6190000176429749,-2.252445170766896
176.896552,,0.016927625450772536,177.17,0.5419999957084656,-2.4205004770920655
177.36206900000002,,0.014768784885573344,177.636,0.5400000214576721,-2.4251171650353296
177.827586,,0.01342624991327142,178.101,0.5410000085830688,-2.42315233963601
178.293103,,0.012706550320617445,178.566,0.5339999794960022,-2.4385652094562436
178.758621,,0.012278034458466666,179.03,0.5419999957084656,-2.4212422507823534
179.224138,,0.012278869039222134,179.495,0.5419999957084656,-2.4212893967013454
179.68965500000002,,0.012856350678754725,179.955,0.5540000200271606,-2.3951319126672317
180.155172,,0.01352579801354868,180.425,0.5289999842643738,-2.4495242596652864
180.62069,,0.013408652507291815,180.886,0.5519999861717224,-2.3992834838383863
181.086207,,0.012136767955550947,181.355,0.5419999957084656,-2.420883837023619
181.551724,,0.010251848264737531,181.818,0.5450000166893005,-2.414112679364266
182.01724099999998,,0.008513137477614993,182.281,0.5370000004768372,-2.4312646637551683
182.482759,,0.006947431745345128,182.747,0.5389999747276306,-2.426596233074228
182.948276,,0.0048966092460126405,183.214,0.5419999957084656,-2.419724011078824
183.413793,,0.0020747552059463864,183.679,0.5419999957084656,-2.41937217713913
183.87931,,0.0007484437190113522,184.145,0.5889999866485596,-2.3166173327873105
184.34482799999998,,0.002463827685857295,184.61,0.5419999957084656,-2.4186583179237284
184.81034499999998,,0.0029296695008592393,185.075,0.5519999861717224,-2.3965300751843914
185.27586200000002,,0.0031967121884756817,185.541,0.550000011920929,-2.4005696742312352
185.74137900000002,,0.004384073458333171,186.003,0.5519999861717224,-2.395927942110813
186.206897,,0.006652363849720169,186.465,0.5379999876022339,-2.4261861621504703
186.672414,,0.00937586816021961,186.937,0.5379999876022339,-2.4259924702853115
187.137931,,0.011916127370739089,187.399,0.5339999794960022,-2.4345685542185924
187.60344800000001,,0.013826849334058504,187.863,0.5419999957084656,-2.4170600072929034
188.06896600000002,,0.014515585344317532,188.325,0.5329999923706055,-2.4366500312111796
188.534483,,0.013424177924613994,188.791,0.5299999713897705,-2.4432304832032314
189.0,,0.010984311364900926,189.261,0.5649999976158142,-2.3670828104701664
189.465517,,0.009016214507635362,189.726,0.5339999794960022,-2.4347830429024433
189.931034,,0.009373453077308615,190.185,0.5419999957084656,-2.417568545507479
190.39655199999999,,0.011875781074276656,190.651,0.5389999747276306,-2.4243661057359644
190.862069,,0.014105584347944901,191.118,0.5379999876022339,-2.4268455816619894
191.327586,,0.013843648540590121,191.584,0.5400000214576721,-2.422819733594469
191.793103,,0.011455994667007748,192.049,0.5339999794960022,-2.436244394812166
192.25862099999998,,0.009189358257190583,192.515,0.550000011920929,-2.4017494449009034
192.72413799999998,,0.008282146051473243,192.978,0.5460000038146973,-2.4108274594693246
193.189655,,0.007777210672746555,193.44,0.550000011920929,-2.402465380413023
193.655172,,0.00640707118042994,193.908,0.5339999794960022,-2.4376555195816114
194.12069000000002,,0.004495566388515301,194.37,0.5400000214576721,-2.4248851534049525
194.586207,,0.0031089448509274585,194.841,0.5350000262260437,-2.4360413532514227
195.051724,,0.0020890703929171356,195.303,0.5389999747276306,-2.4275435058326758
195.517241,,0.00023732187297035426,195.768,0.5370000004768372,-2.4320646871609855
195.98275900000002,,0.0026240541530803,196.232,0.5460000038146973,-2.4125630603945396
196.448276,,0.004981117064427359,196.698,0.515999972820282,-2.477968182444119
196.913793,,0.005387638016277281,197.163,0.5379999876022339,-2.4300218838255785
197.37931,,0.004057712621788623,197.629,0.5630000233650208,-2.375477599308811
197.844828,,0.002337826450198808,198.093,0.5419999957084656,-2.421090461525839
198.310345,,0.0012662669363421484,198.559,0.5379999876022339,-2.429609661611111
198.775862,,0.0009073431175743782,199.026,0.5699999928474426,-2.3596463681308633
199.241379,,0.00041935689168524627,199.492,0.527999997138977,-2.4508587507021296
199.706897,,0.0014261677378255859,199.952,0.5649999976158142,-2.3699221509589408
200.172414,,0.005035807849813149,200.421,0.5540000200271606,-2.3935340370207925
200.63793099999998,,0.009039792799097618,200.882,0.550000011920929,-2.401878897188644
201.103448,,0.011260416802324938,201.351,0.5429999828338623,-2.4167545137349404
201.568966,,0.010934813949805541,201.811,0.578000009059906,-2.340132207085059
202.034483,,0.009375133240083443,202.281,0.5519999861717224,-2.396423295655895
202.5,,0.00818677124841769,202.746,0.5339999794960022,-2.435312012538663
202.965517,,0.007494368482383921,203.211,0.5490000247955322,-2.4023427043826
203.431034,,0.006352626330294515,203.67,0.5230000019073486,-2.458744630142466
203.896552,,0.004345700822768979,204.137,0.5540000200271606,-2.3910173677413145
204.36206900000002,,0.0020879529102527062,204.602,0.515999972820282,-2.4736767283334316
204.827586,,0.00029743746956459457,205.067,0.550000011920929,-2.3995370152565956
205.293103,,0.000997152365289956,205.532,0.5540000200271606,-2.39082214211852
205.758621,,0.0021469811343424795,205.996,0.5460000038146973,-2.4083159161499967
206.224138,,0.0031696493061896436,206.466,0.550000011920929,-2.3997290433687244
206.689655,,0.0037277638468259603,206.929,0.5320000052452087,-2.439132403535666
207.155172,,0.0037455606855022854,207.391,0.5630000233650208,-2.3718364393827556
207.62069,,0.003613828005244949,207.86,0.5540000200271606,-2.3917333617264607
208.086207,,0.0035821391993514726,208.322,0.5540000200271606,-2.3920606586770075
208.551724,,0.0033152750998933266,208.788,0.5419999957084656,-2.418560887863126
209.01724099999998,,0.002446632604300644,209.251,0.5540000200271606,-2.3927923403655726
209.482759,,0.0013705601570367157,209.717,0.5519999861717224,-2.397532747955849
209.948276,,0.0010154412254394529,210.181,0.5649999976158142,-2.3695894277318823
210.413793,,0.0017724947415100683,210.647,0.5379999876022339,-2.428777151092964
210.87930999999998,,0.002937056065016047,211.112,0.5540000200271606,-2.3942576429129137
211.344828,,0.003363816534291384,211.577,0.5479999780654907,-2.407633369997401
211.810345,,0.002643511208036627,212.044,0.5360000133514404,-2.4340367584432454
212.27586200000002,,0.001581269757670137,212.51,0.5720000267028809,-2.3558131078397095
212.741379,,0.0014170840723893316,212.97,0.5419999957084656,-2.421321671522894
213.206897,,0.0024927761804643352,213.44,0.5680000185966492,-2.364762460460868
213.672414,,0.003790324971143784,213.903,0.5440000295639038,-2.4170698021130934
214.137931,,0.0039482595348084406,214.366,0.5519999861717224,-2.3995940794191193
214.60344800000001,,0.002689196364762566,214.83,0.5419999957084656,-2.421269072674193
215.068966,,0.001094430280319211,215.299,0.5450000166893005,-2.4145600286163855
215.534483,,0.0005256234991290004,215.765,0.5540000200271606,-2.394722378969234
216.0,,0.0014231746646277518,216.229,0.550000011920929,-2.4031567147986608
216.465517,,0.0030311534902611103,216.695,0.5649999976158142,-2.3701540377618007
216.93103399999998,,0.004036639609025317,217.159,0.5460000038146973,-2.4111919429482693
217.39655199999999,,0.0035571606844716367,217.625,0.550000011920929,-2.4020982171013987
217.862069,,0.0018223179075225401,218.088,0.5350000262260437,-2.4343877025755822
218.327586,,8.733115629333488e-06,218.554,0.5360000133514404,-2.4318196608077054
218.793103,,0.0007789613408248631,219.019,0.5410000085830688,-2.4205493846214674
219.25862099999998,,0.00011921558195559744,219.485,0.5360000133514404,-2.4310889183158
219.724138,,0.0015031860577117767,219.948,0.5540000200271606,-2.3915530044312727
220.18965500000002,,0.003125981130847755,220.41,0.531000018119812,-2.441384494624937
220.65517200000002,,0.003654874689366358,220.881,0.5440000295639038,-2.412835822320957
221.12069,,0.00249576345605952,221.344,0.5429999828338623,-2.414846268515973
221.586207,,0.0003366411515170482,221.81,0.5419999957084656,-2.4169193134642297
222.051724,,0.0010347420114794727,222.273,0.5339999794960022,-2.4343090872030273
222.517241,,0.00040071226377710374,222.739,0.5669999718666077,-2.362441298915085
222.98275900000002,,0.0013588775862773987,223.203,0.5669999718666077,-2.362534210398053
223.448276,,0.002014721162121144,223.669,0.5460000038146973,-2.408441179409931
223.913793,,0.0005150658738651044,224.133,0.5789999961853027,-2.3367594741169975
224.37931,,0.0016941384409717517,224.599,0.546999990940094,-2.4067419804004135
224.844828,,0.0022806353519735445,225.064,0.5699999928474426,-2.3569433959742336
225.31034499999998,,0.0006684784381468492,225.529,0.5540000200271606,-2.392147924129748
225.775862,,0.0014775351077883608,225.992,0.5690000057220459,-2.3598402852879996
226.241379,,0.0023660379316065403,226.462,0.5540000200271606,-2.3929073246231036
226.706897,,0.0020421684481491545,226.922,0.5529999732971191,-2.3954778874367335
227.172414,,0.0018566360126948177,227.385,0.5360000133514404,-2.4329005198526463
227.63793099999998,,0.0023610434070054347,227.855,0.5540000200271606,-2.3940535674229557
228.103448,,0.0024732239037598383,228.318,0.5249999761581421,-2.4575757896478394
228.56896600000002,,0.0010204654250971675,228.783,0.5519999861717224,-2.399056346067043
229.03448300000002,,0.001407769974381782,229.246,0.6439999938011169,-2.1988763452666578
229.5,,0.0028761660964474202,229.712,0.5149999856948853,-2.480120372874318
229.965517,,0.0023893427733514662,230.178,0.5659999847412109,-2.3691462938678027
230.431034,,0.0010665973199545677,230.643,0.5540000200271606,-2.395362406519925
230.896552,,0.000658161648442159,231.108,0.5429999828338623,-2.419332802417464
231.362069,,0.001467279940372991,231.573,0.5429999828338623,-2.419271013507
231.827586,,0.0024252373706253215,232.04,0.574999988079071,-2.349426617571575
232.293103,,0.0028308779565307,232.506,0.5989999771118164,-2.2969474164134356
232.758621,,0.003039919179453847,232.966,0.5730000138282776,-2.353340861351249
233.224138,,0.0034306175265971166,233.436,0.5440000295639038,-2.41621879821667
233.689655,,0.0036889659901107293,233.9,0.5630000233650208,-2.3744800291644146
234.155172,,0.003517017460439789,234.362,0.5540000200271606,-2.3937117705598987
234.62069,,0.0032627312770232043,234.826,0.5540000200271606,-2.39331485353838
235.086207,,0.003253040567649775,235.295,0.5640000104904175,-2.3711221435841927
235.55172399999998,,0.0031132227014797247,235.761,0.5400000214576721,-2.423006023523436
236.01724099999998,,0.0024872900164713205,236.226,0.527999997138977,-2.4487614450298194
236.482759,,0.0019955445053254552,236.691,0.5669999718666077,-2.363432500898924
236.94827600000002,,0.0026532178181392215,237.156,0.5669999718666077,-2.363106873349283
237.413793,,0.004538837160554683,237.621,0.5370000004768372,-2.4281860705531364
237.87931,,0.006680963838440128,238.081,0.5419999957084656,-2.4170672994312987
238.344828,,0.008015472548030329,238.546,0.5450000166893005,-2.4103674325960442
238.810345,,0.007848051862416768,239.011,0.37400001287460327,-2.782822094386685
239.27586200000002,,0.0056890759004458395,239.477,0.5419999957084656,-2.416790124326235
239.741379,,0.00139689128086034,239.94,0.5210000276565552,-2.4625958330144897
240.206897,,0.004530624402302733,240.411,0.5669999718666077,-2.362500201541252
240.672414,,0.01127370608917492,240.874,0.5460000038146973,-2.4084370306881473
241.137931,,0.0182928620842945,241.336,0.5339999794960022,-2.4348237622915216
241.603448,,0.025501512853500854,241.802,0.5540000200271606,-2.391544355473052
242.068966,,0.03315607371029205,242.266,0.5040000081062317,-2.5008129470155613
242.534483,,0.041610218049293254,242.732,0.5540000200271606,-2.392249602981119
243.0,,0.050451527703334116,243.197,0.5389999747276306,-2.4253200694769537
243.465517,,0.0574189864513073,243.662,0.5479999780654907,-2.40611230644546
243.93103399999998,,0.058760046855180666,244.129,0.5379999876022339,-2.428296752800958
244.39655199999999,,0.05144704181981306,244.595,0.5669999718666077,-2.365499902916032
244.862069,,0.03525948688969202,245.055,0.5540000200271606,-2.3941803900947867
245.327586,,0.01289946757123716,245.521,0.5049999952316284,-2.5012572008795617
245.793103,,0.01138629322529957,245.989,0.49399998784065247,-2.525503170121758
246.258621,,0.03326861468069518,246.451,0.5669999718666077,-2.3666924483709098
246.724138,,0.0494047001811022,246.922,0.5529999732971191,-2.397365163009159
247.18965500000002,,0.05815728953474303,247.384,0.546999990940094,-2.410544080894155
247.655172,,0.0597311715937387,247.845,0.5339999794960022,-2.4389068633013897
248.12069,,0.05574939744705375,248.314,0.5630000233650208,-2.37569862736304
248.586207,,0.04871531380097135,248.78,0.5429999828338623,-2.4191773268570604
249.051724,,0.04127898204474327,249.243,0.5879999995231628,-2.3209790091300566
249.517241,,0.034895900755106596,249.708,0.550000011920929,-2.4035482131345893
249.982759,,0.02870109318568999,250.174,0.5669999718666077,-2.3662384208644283
250.44827600000002,,0.020359792129244707,250.639,0.5360000133514404,-2.433459150679346
250.913793,,0.008931188741724756,251.104,0.5419999957084656,-2.4200358213325863
251.37931000000003,,0.002976931935583151,251.57,0.5669999718666077,-2.365194413590194
251.844828,,0.010480799826586557,252.037,0.5540000200271606,-2.393128127352474
252.31034499999998,,0.010431993977209024,252.495,0.5669999718666077,-2.36441508116548
252.77586200000002,,0.004291535947447181,252.963,0.5540000200271606,-2.392356176483305
253.241379,,0.00319630834902969,253.425,0.515999972820282,-2.4747853861208897
253.706897,,0.008217175082825517,253.896,0.5239999890327454,-2.4570303352111966
254.172414,,0.01054072933718759,254.359,0.5379999876022339,-2.4262467775415217
254.63793099999998,,0.012208545938118669,254.822,0.5669999718666077,-2.3628337286500503
255.10344800000001,,0.014512678520145365,255.285,0.5669999718666077,-2.3626568890790227
255.56896600000002,,0.01676824979956537,255.751,0.5429999828338623,-2.4148278355642243
256.03448299999997,,0.017432453138593377,256.215,0.5540000200271606,-2.3908100607096214
256.5,,0.015694537872307342,256.681,0.5519999861717224,-2.395180265708628
256.965517,,0.01203719866165596,257.148,0.5419999957084656,-2.417044340638187
257.431034,,0.007631250390667794,257.613,0.5669999718666077,-2.3627179132687415
257.896552,,0.0033719484810308398,258.077,0.5669999718666077,-2.36291469294262
258.362069,,0.0004429565190198225,258.543,0.546999990940094,-2.4067353503842495
258.827586,,0.0037109604482859285,259.015,0.5460000038146973,-2.40920594721087
259.29310300000003,,0.00627860258137465,259.474,0.5419999957084656,-2.4182485848195028
259.758621,,0.008196146277972978,259.937,0.5410000085830688,-2.4207817316829736
260.224138,,0.009781172590578436,260.407,0.5820000171661377,-2.3318269831926215
260.689655,,0.01118995999594782,260.87,0.5699999928474426,-2.3583438996243884
261.155172,,0.012230365316667055,261.332,0.5199999809265137,-2.4676423580048437
261.62068999999997,,0.01282003816604367,261.798,0.5630000233650208,-2.3743098741499464
262.086207,,0.013326468583458312,262.261,0.5540000200271606,-2.394240173669008
262.551724,,0.014155016940094958,262.727,0.5669999718666077,-2.366203197154256
263.017241,,0.01522920075291073,263.192,0.5540000200271606,-2.394765554451448
263.482759,,0.016189551620859163,263.658,0.546999990940094,-2.4102044203996686
263.94827599999996,,0.016936746139657233,264.123,0.5659999847412109,-2.3689414798052972
264.413793,,0.017660510823017696,264.588,0.5649999976158142,-2.3711904606166434
264.87931,,0.01836647012168289,265.055,0.5460000038146973,-2.4125923776427207
265.34482799999995,,0.018594106106845348,265.522,0.5429999828338623,-2.419074050888614
265.810345,,0.017715730134601676,265.982,0.5450000166893005,-2.4146027257193423
266.27586199999996,,0.015558916918357087,266.451,0.5460000038146973,-2.4122540335543983
266.741379,,0.012719651349917496,266.915,0.5440000295639038,-2.416390191667084
267.206897,,0.010147649284729873,267.377,0.5540000200271606,-2.394338071139526
267.672414,,0.008397537925481363,267.84,0.5770000219345093,-2.3439259854649204
268.137931,,0.007440586554447676,268.31,0.5419999957084656,-2.4198466207384843
268.603448,,0.00716038256624835,268.776,0.5820000171661377,-2.3323493197059375
269.06896600000005,,0.007555737369686096,269.24,0.5410000085830688,-2.4213137229348787
269.53448299999997,,0.00824587838906984,269.706,0.5540000200271606,-2.392633124166368
270.0,,0.008494208827794747,270.17,0.5669999718666077,-2.363965208218376
270.465517,,0.008466886642301202,270.635,0.5519999861717224,-2.396321457697362
270.931034,,0.009897746866708634,271.1,0.5669999718666077,-2.3633498104138386
271.396552,,0.014346349873658008,271.565,0.5460000038146973,-2.4088494915784318
271.86206899999996,,0.020826455274269545,272.03,0.5759999752044678,-2.3432854411994812
272.327586,,0.02600363350621104,272.496,0.5630000233650208,-2.3714557668557137
272.793103,,0.026697615877337297,272.959,0.5759999752044678,-2.3430380735910052
273.258621,,0.021612421373626393,273.421,0.5669999718666077,-2.3626098603473267
273.724138,,0.011117898220572815,273.889,0.5479999780654907,-2.4040288812381445
274.18965499999996,,0.003373575404343647,274.351,0.5540000200271606,-2.3910423877646827
274.655172,,0.019427337340720722,274.815,0.5519999861717224,-2.3955437049526536
275.12069,,0.03378396448519019,275.285,0.5669999718666077,-2.3630618513705572
275.586207,,0.04341933705339675,275.751,0.5440000295639038,-2.4134165297529306
276.051724,,0.04687050515928031,276.214,0.546999990940094,-2.4071678827390386
276.517241,,0.04485666189431332,276.679,0.5669999718666077,-2.363915030964721
276.98275900000004,,0.039775321937417264,277.144,0.5669999718666077,-2.3642578113013277
277.448276,,0.03418580142863411,277.61,0.5490000247955322,-2.4038287830429073
277.913793,,0.029129086874311327,278.074,0.5419999957084656,-2.4194378306515176
278.37931,,0.0238383056982377,278.539,0.5699999928474426,-2.3587867288447035
278.844828,,0.017318004435453175,279.0,0.5540000200271606,-2.3939778633074784
279.31034500000004,,0.00989165015422121,279.47,0.5540000200271606,-2.3942827379244993
279.77586199999996,,0.0027237398040956943,279.933,0.5649999976158142,-2.3705857596040545
280.241379,,0.0037805458076822294,280.395,0.5540000200271606,-2.3947741529709266
280.706897,,0.010230859259536613,280.864,0.546999990940094,-2.4101970495221408
281.172414,,0.016965884727612058,281.325,0.5379999876022339,-2.4299217612887474
281.637931,,0.02343512368989084,281.791,0.5360000133514404,-2.434337485598466
282.10344799999996,,0.02909750911456878,282.262,0.6449999809265137,-2.196861311002173
282.568966,,0.034045139448556805,282.72,0.5440000295639038,-2.4168372333620645
283.034483,,0.03822342359370597,283.188,0.574999988079071,-2.3491707416279914
283.5,,0.04072310628497264,283.654,0.5460000038146973,-2.4121672670960774
283.965517,,0.040401482595928025,284.118,0.5419999957084656,-2.4206478499242676
284.431034,,0.03663277077033155,284.584,0.550000011920929,-2.402942278961598
284.89655200000004,,0.029004226421499062,285.048,0.5389999747276306,-2.426596949732041
285.362069,,0.017148940000648608,285.513,0.5540000200271606,-2.3935814191062144
285.827586,,0.0019263475594967197,285.981,0.5669999718666077,-2.364907444826321
286.293103,,0.013561901553491709,286.444,0.5630000233650208,-2.3732639044084274
286.758621,,0.025260235183837156,286.907,0.5720000267028809,-2.353301833208566
287.22413800000004,,0.0309022647226452,287.377,0.5419999957084656,-2.418321625243282
287.689655,,0.031272704789578165,287.837,0.5460000038146973,-2.409292561456664
288.155172,,0.028984515507764298,288.3,0.5460000038146973,-2.4090130337948414
288.62069,,0.026561001671301977,288.766,0.5490000247955322,-2.402240466687834
289.086207,,0.025353242604937765,289.236,0.5410000085830688,-2.4194830019945233
289.55172400000004,,0.02510527237498312,289.695,0.5429999828338623,-2.414994562575072
290.01724099999996,,0.02414909177580603,290.16,0.5540000200271606,-2.390957276106233
290.482759,,0.020910133072891735,290.626,0.550000011920929,-2.3996606094299167
290.948276,,0.015837310770764973,291.093,0.546999990940094,-2.4062463483115857
291.413793,,0.011308581627114098,291.559,0.5669999718666077,-2.362782452818139
291.87931,,0.00917261609685248,292.026,0.5540000200271606,-2.391269429090382
292.344828,,0.008912182870913086,292.492,0.5669999718666077,-2.3631623380126774
292.81034500000004,,0.00863335020014015,292.952,0.5630000233650208,-2.372136194667138
293.275862,,0.007187699043444704,293.421,0.5370000004768372,-2.429077455559682
293.74137900000005,,0.0047421804944973,293.882,0.5410000085830688,-2.4206884822529173
294.206897,,0.002016024677461271,294.351,0.5709999799728394,-2.3556743101210356
294.672414,,8.330422011391866e-05,294.81,0.5720000267028809,-2.3538491273429725
295.13793100000004,,0.000570518327143122,295.281,0.5400000214576721,-2.4239175321476685
295.603448,,0.0006611345868181308,295.747,0.5519999861717224,-2.3981142453777764
296.068966,,0.002011562566725773,296.207,0.5730000138282776,-2.35268167545918
296.534483,,0.0014039371075037397,296.672,0.5509999990463257,-2.4008999663569166
297.0,,0.0013026322325755883,297.137,0.4860000014305115,-2.542762303208974
297.46551700000003,,0.00392735129117482,297.603,0.5389999747276306,-2.427500842287669
297.931034,,0.0044471096044401935,298.07,0.5249999761581421,-2.4581589610003656
298.396552,,0.003265884855414744,298.536,0.5389999747276306,-2.427759588459619
298.862069,,0.002511087102021947,298.996,0.5460000038146973,-2.4125518068011655
299.327586,,0.003534400031033154,299.466,0.5419999957084656,-2.4212484161005565
299.79310300000003,,0.00569507052295418,299.929,0.5419999957084656,-2.421169859728621
300.258621,,0.0073412760203806346,300.392,0.5410000085830688,-2.4232114874128237
300.724138,,0.007421933551980141,300.855,0.5450000166893005,-2.414305128669508
301.189655,,0.006246465822968397,301.325,0.550000011920929,-2.4031705041769786
301.65517200000005,,0.005096547605316964,301.791,0.5630000233650208,-2.374563305742066
302.12069,,0.005054353838600938,302.253,0.578000009059906,-2.3415627802182075
302.586207,,0.006046006355674879,302.719,0.5419999957084656,-2.419646403322612
303.05172400000004,,0.007200439936527228,303.185,0.5789999961853027,-2.3386721489454185
303.517241,,0.0080431550813909,303.651,0.5960000157356262,-2.301264056747464
303.982759,,0.00875956677123932,304.115,0.46399998664855957,-2.58848017288577
304.448276,,0.009246125313783153,304.581,0.5529999732971191,-2.3942340112907106
304.913793,,0.008726653586007358,305.041,0.574999988079071,-2.3459855943814665
305.37931000000003,,0.006819456312242275,305.506,0.5839999914169312,-2.326094819157023
305.844828,,0.004491965261108832,305.974,0.5540000200271606,-2.3912148745273862
306.310345,,0.003325767838348976,306.437,0.5460000038146973,-2.408456795039382
306.775862,,0.00391076981157284,306.9,0.5690000057220459,-2.3582189297928284
307.241379,,0.005299085803232746,307.37,0.5519999861717224,-2.3951892732539752
307.70689699999997,,0.0059664392705978215,307.833,0.546999990940094,-2.406080658282025
308.172414,,0.005129476993546029,308.295,0.5619999766349792,-2.3734646923138496
308.637931,,0.00330414087848601,308.761,0.5460000038146973,-2.4084507166181073
309.103448,,0.0018157866650006663,309.226,0.5429999828338623,-2.4151753499414954
309.568966,,0.001663581608392888,309.692,0.5699999928474426,-2.356596058155823
310.034483,,0.0026156876751046265,310.159,0.5649999976158142,-2.3677813844386173
310.5,,0.003334870996745969,310.624,0.5640000104904175,-2.3702912461035104
310.96551700000003,,0.0025267023024085717,311.089,0.5540000200271606,-2.392438847911634
311.431034,,0.00017888511060268475,311.555,0.5460000038146973,-2.410249122165153
311.896552,,0.0023005559037684834,312.015,0.5419999957084656,-2.4193540737117947
312.362069,,0.00336871151963773,312.481,0.5379999876022339,-2.4284571338817877
312.827586,,0.002843350337137265,312.951,0.5680000185966492,-2.3634721961503997
313.29310300000003,,0.001972459252859168,313.414,0.5429999828338623,-2.418287395125306
313.758621,,0.002005178613694917,313.882,0.5450000166893005,-2.4142429188284713
314.224138,,0.0028626525205729335,314.344,0.5429999828338623,-2.418867997788245
314.689655,,0.0032820001380840205,314.81,0.5699999928474426,-2.360258132748308
315.155172,,0.0022204147400592417,315.273,0.5699999928474426,-2.360410011907561
315.62068999999997,,4.506475350977399e-05,315.739,0.5339999794960022,-2.438926660974516
316.086207,,0.0017935649426596338,316.203,0.5419999957084656,-2.4215142256294473
316.551724,,0.0022476804949010643,316.669,0.5540000200271606,-2.3953178653607927
317.017241,,0.0015599053878062915,317.134,0.5839999914169312,-2.3298365079063146
317.482759,,0.0006470007002379722,317.6,0.5519999861717224,-2.3993643227089714
317.94827599999996,,7.458128275237956e-05,318.066,0.5490000247955322,-2.405650086936056
318.413793,,6.282603743410756e-05,318.532,0.5619999766349792,-2.37702409033827
318.87931000000003,,0.00032303366900320236,318.992,0.5260000228881836,-2.455107137655021
319.344828,,0.001260244535208853,319.455,0.5730000138282776,-2.3523282279013737
319.810345,,0.002171611474026069,319.926,0.5809999704360962,-2.334492523895598
320.275862,,0.001980292804142946,320.389,0.5929999947547913,-2.3079285500899855
320.741379,,0.00023476953246277606,320.852,0.5540000200271606,-2.392474911680697
321.20689699999997,,0.0021067845380955672,321.315,0.5509999990463257,-2.3986033078870737
321.672414,,0.0035612577433139507,321.78,0.5730000138282776,-2.3502916293146576
322.137931,,0.0037411183386400412,322.251,0.5490000247955322,-2.402235536036778
322.603448,,0.003549306883631193,322.716,0.5720000267028809,-2.3518314622767544
323.068966,,0.0037781268367831295,323.175,0.546999990940094,-2.4060605618757696
323.53448299999997,,0.004215659434531916,323.64,0.531000018119812,-2.440748081232618
324.0,,0.004397906061917064,324.107,0.5379999876022339,-2.425399812606378
324.465517,,0.004600152838417527,324.573,0.38100001215934753,-2.767429339286533
324.931034,,0.0054128728779622185,325.037,0.5519999861717224,-2.394944928172615
325.396552,,0.0064110296999834275,325.502,0.5329999923706055,-2.4364818094213647
325.86206899999996,,0.005857322700155616,325.97,0.550000011920929,-2.399658213259843
326.327586,,0.002210040144523039,326.433,0.5759999752044678,-2.3432905832167394
326.793103,,0.004174941931858943,326.896,0.5540000200271606,-2.3915523327988
327.258621,,0.011359028775526442,327.366,0.5540000200271606,-2.3919285752676207
327.724138,,0.0180067027450964,327.83,0.5699999928474426,-2.3574798778533523
328.189655,,0.024699149967816747,328.292,0.5640000104904175,-2.3709818559688376
328.655172,,0.032517248860609894,328.758,0.5929999947547913,-2.3082380372488154
329.12068999999997,,0.04061115532603776,329.222,0.5540000200271606,-2.3936356921893953
329.586207,,0.04579861781904816,329.687,0.5540000200271606,-2.394047450980976
330.051724,,0.04450352335225109,330.153,0.5690000057220459,-2.3617489304114407
330.517241,,0.03479037001705832,330.618,0.550000011920929,-2.403482189290277
330.982759,,0.017157915496712046,331.086,0.546999990940094,-2.4103051542329545
331.44827599999996,,0.005482639066651528,331.551,0.546999990940094,-2.41053197593172
331.913793,,0.02846809234774805,332.016,0.5509999990463257,-2.4019771453634164
332.37931,,0.0470021253471727,332.481,0.5529999732971191,-2.397707583979551
332.844828,,0.058047831445335776,332.944,0.5630000233650208,-2.3759334964134458
333.310345,,0.06116812925855837,333.406,0.5519999861717224,-2.3998353881605015
333.77586199999996,,0.05804570117462103,333.87,0.5669999718666077,-2.367018262223354
334.241379,,0.051429781774969374,334.34,0.5889999866485596,-2.3188797269232957
334.706897,,0.043960876045153426,334.806,0.5540000200271606,-2.3948591249839635
335.17241399999995,,0.03699657602713634,335.272,0.5419999957084656,-2.420674025919888
335.637931,,0.030093324492819307,335.73,0.5419999957084656,-2.420300408230197
336.103448,,0.02181932929614061,336.197,0.5540000200271606,-2.3937495135433893
336.56896600000005,,0.01134349560648989,336.663,0.5680000185966492,-2.36281946476296
337.034483,,0.0005280422515697376,337.129,0.5460000038146973,-2.4103114650520667
337.5,,0.011495108266496166,337.595,0.546999990940094,-2.4076989099496466
337.965517,,0.018893531317721434,338.059,0.5440000295639038,-2.413818711559153
338.431034,,0.02136347869154331,338.524,0.5529999732971191,-2.3938252383076537
338.89655200000004,,0.020012891805546246,338.985,0.5690000057220459,-2.3586223492047504
339.36206899999996,,0.01767769662173919,339.455,0.5419999957084656,-2.4171528881110005
339.827586,,0.01648266529358495,339.915,0.5419999957084656,-2.416920831479844
340.293103,,0.01614301301748087,340.384,0.527999997138977,-2.4472585725742357
340.758621,,0.014838729247203523,340.848,0.5410000085830688,-2.418846650388381
341.224138,,0.011422306686945967,341.31,0.5519999861717224,-2.3948681980043744
341.68965499999996,,0.006472551969028916,341.776,0.550000011920929,-2.399287891870045
342.155172,,0.0015939792712631317,342.24,0.5630000233650208,-2.3711013658085336
342.62069,,0.001829636942425303,342.705,0.5630000233650208,-2.3713061983228263
343.086207,,0.00341351012437861,343.17,0.5540000200271606,-2.3911815118048847
343.551724,,0.003827836734702929,343.636,0.5669999718666077,-2.3631813244155118
344.01724099999996,,0.004126701707384586,344.103,0.5669999718666077,-2.3635481857886464
344.48275900000004,,0.004714495861838292,344.569,0.5,-2.5099192439810034
344.948276,,0.0048853597761551425,345.034,0.5540000200271606,-2.392698009763025
345.413793,,0.0036169326831861524,345.5,0.5540000200271606,-2.393134583103829
345.87931,,0.000956829698064912,345.963,0.5690000057220459,-2.3608877439442195
346.344828,,0.0016469801228601911,346.425,0.546999990940094,-2.4092340766391502
346.81034500000004,,0.002742708257827499,346.893,0.5540000200271606,-2.3943705742107904
347.275862,,0.0024454734153396265,347.355,0.5460000038146973,-2.4121466987503157
347.741379,,0.002130781501607775,347.823,0.5759999752044678,-2.347083183021978
348.206897,,0.002606163047823081,348.286,0.5640000104904175,-2.373462196996019
348.672414,,0.0032690602707978232,348.752,0.5630000233650208,-2.3758084165462594
349.13793100000004,,0.003395209824476528,349.218,0.5230000019073486,-2.4630503886646897
349.60344799999996,,0.0036348218876386274,349.684,0.5659999847412109,-2.369390728792381
350.068966,,0.005424467909361041,350.149,0.5619999766349792,-2.3780524263058176
350.534483,,0.008937036462354954,350.615,0.5669999718666077,-2.367032021288393
351.0,,0.01239096169200139,351.081,0.5540000200271606,-2.3951569405277793
351.465517,,0.01389852604285065,351.54,0.5920000076293945,-2.312106310303079
351.93103399999995,,0.013611143869398873,352.014,0.5830000042915344,-2.3313945470296047
352.396552,,0.013437948621318864,352.473,0.5680000185966492,-2.363706646591142
352.862069,,0.01483388267631443,352.941,0.5899999737739563,-2.3153723896133798
353.32758600000005,,0.017508605256574952,353.404,0.5540000200271606,-2.393375596591883
353.793103,,0.020227120812399926,353.867,0.5669999718666077,-2.3646149742581133
354.258621,,0.022056606072056298,354.337,0.5540000200271606,-2.392502609860367
354.72413800000004,,0.022546814915589054,354.795,0.5419999957084656,-2.418229054550518
355.189655,,0.021421579280506663,355.265,0.5669999718666077,-2.363375681023639
355.655172,,0.01875610708091896,355.731,0.5460000038146973,-2.4087816542990304
356.12069,,0.0151976534494119,356.196,0.5230000019073486,-2.4585977653097837
356.586207,,0.011470884516228482,356.655,0.5920000076293945,-2.3080396158817287
357.05172400000004,,0.007743585169388774,357.122,0.5540000200271606,-2.390663811011261
357.517241,,0.003848664716718176,357.588,0.5540000200271606,-2.3905711920924118
357.982759,,6.781373792172653e-05,358.052,0.5460000038146973,-2.4079831192636045
358.448276,,0.0036595833201093788,358.517,0.5839999914169312,-2.325252403229449
358.913793,,0.007003232910683049,358.985,0.5540000200271606,-2.3907423064786175
359.37931000000003,,0.010389649328021488,359.448,0.5669999718666077,-2.3626190516775147
359.844828,,0.013443921174587615,359.911,0.5540000200271606,-2.3912031850369777
360.310345,,0.015258526478003858,360.381,0.5509999990463257,-2.3980559199782046
360.775862,,0.015709745909923547,360.841,0.5920000076293945,-2.309092833017761
361.241379,,0.01596838337873601,361.312,0.5460000038146973,-2.4097053981934713
361.706897,,0.01727710587334525,361.77,0.5680000185966492,-2.362191451652399
362.172414,,0.019655950742830178,362.241,0.5669999718666077,-2.3647956780283788
362.63793100000004,,0.022095762625469736,362.7,0.5170000195503235,-2.474150308273011
363.103448,,0.023546994368315716,363.166,0.5490000247955322,-2.4048411199463855
363.568966,,0.02337093974294994,363.632,0.5540000200271606,-2.3943281161859993
364.034483,,0.02132584527085668,364.097,0.5519999861717224,-2.3990260818414173
364.5,,0.017799724416876318,364.563,0.5889999866485596,-2.3187059865163873
364.96551700000003,,0.014029691198215306,365.029,0.5680000185966492,-2.364687105922897
365.431034,,0.011520088193077213,365.495,0.5460000038146973,-2.4127802369199016
365.896552,,0.01087837328110457,365.955,0.5640000104904175,-2.37365667792838
366.362069,,0.011281082840085497,366.425,0.5809999704360962,-2.3366379556939947
366.827586,,0.011229579609428443,366.889,0.5429999828338623,-2.4193702491413283
367.29310300000003,,0.009893154661951939,367.351,0.5929999947547913,-2.3103088809514745
367.758621,,0.007794766517730324,367.819,0.5920000076293945,-2.312289046206817
368.224138,,0.006213061910009203,368.281,0.5720000267028809,-2.355599678257483
368.689655,,0.00581495909070293,368.747,0.5740000009536743,-2.3509252259297404
369.155172,,0.005933760289868171,369.214,0.5720000267028809,-2.3549206090768635
369.62068999999997,,0.005430179141796132,369.68,0.5730000138282776,-2.3523467665698847
370.086207,,0.00409433515348328,370.145,0.5680000185966492,-2.362823783674586
370.55172400000004,,0.0026135993224707895,370.61,0.5440000295639038,-2.4146876287577945
371.017241,,0.0011798088036334808,371.071,0.5669999718666077,-2.3641612429367775
371.482759,,0.0009329585395272682,371.537,0.5440000295639038,-2.4138714346820622
371.948276,,0.0038697046843304923,372.0,0.546999990940094,-2.406968454244559
372.413793,,0.006098945887176379,372.47,0.5220000147819519,-2.461110914745975
372.87931000000003,,0.005915252666689934,372.93,0.5669999718666077,-2.3628011987487723
373.344828,,0.0038583561353656313,373.4,0.5669999718666077,-2.362590486914462
373.810345,,0.002548619077145934,373.863,0.5440000295639038,-2.412554143110925
374.275862,,0.0038145006169604196,374.325,0.5540000200271606,-2.3906928132659058
374.741379,,0.006817271091093618,374.791,0.5669999718666077,-2.362367602699288
375.20689699999997,,0.009501291862082581,375.261,0.5329999923706055,-2.4365103630418363
375.672414,,0.011101880721197829,375.727,0.5879999995231628,-2.3168224471394354
376.137931,,0.01229332384985147,376.188,0.5529999732971191,-2.3932767184270918
376.603448,,0.013313634342540456,376.654,0.5669999718666077,-2.363034296710814
377.068966,,0.013276602926382018,377.119,0.5509999990463257,-2.3982006749924265
377.53448299999997,,0.011651249370329455,377.584,0.5540000200271606,-2.392012723920996
378.0,,0.009345090139363027,378.051,0.5540000200271606,-2.392390104243126
378.465517,,0.007655514229383034,378.51,0.5540000200271606,-2.3927850823981864
378.931034,,0.006875154846991542,378.978,0.5519999861717224,-2.3975429053519965
379.396552,,0.006601966918616009,379.44,0.5690000057220459,-2.360899237590303
379.862069,,0.00680140368319347,379.911,0.5419999957084656,-2.420097083395085
380.327586,,0.007763394748583498,380.373,0.5669999718666077,-2.3659749744163565
380.79310300000003,,0.00940800241433334,380.841,0.5680000185966492,-2.364099273536532
381.258621,,0.011519903879295508,381.303,0.5669999718666077,-2.366530543603972
381.724138,,0.01459030286716527,381.768,0.5630000233650208,-2.3754397021649445
382.189655,,0.01950528662480346,382.232,0.5799999833106995,-2.3385338547275287
382.655172,,0.026015752754257746,382.698,0.5529999732971191,-2.397421301827308
383.12068999999997,,0.032145320954402805,383.162,0.5379999876022339,-2.430097186475856
383.586207,,0.03564215922348775,383.629,0.5540000200271606,-2.3951685381302434
384.051724,,0.035595986108105826,384.096,0.5879999995231628,-2.3209595773879426
384.517241,,0.032108425050694625,384.562,0.5429999828338623,-2.418802961785351
384.982759,,0.02489070061578751,385.026,0.5830000042915344,-2.3314068213833625
385.44827599999996,,0.013245288226667509,385.491,0.5830000042915344,-2.331109793846881
385.913793,,0.002313960850285929,385.952,0.5680000185966492,-2.363454518432344
386.37931,,0.019145033232104237,386.422,0.5730000138282776,-2.3521993641519026
386.84482799999995,,0.03379124480824879,386.885,0.5809999704360962,-2.3343926871392062
387.310345,,0.04410478257461801,387.348,0.5659999847412109,-2.3666908062654377
387.775862,,0.049855396823787895,387.819,0.546999990940094,-2.4077121230884044
388.241379,,0.05164476315633377,388.281,0.5540000200271606,-2.3921094356502413
388.70689699999997,,0.049929424332361444,388.746,0.5690000057220459,-2.3591091232530963
389.172414,,0.045257792705915484,389.211,0.5540000200271606,-2.391508959363143
389.637931,,0.03884402019066403,389.67,0.5789999961853027,-2.336811794180246
390.103448,,0.03217651902601665,390.137,0.5460000038146973,-2.4085318337702275
390.56896600000005,,0.025921190557916328,390.603,0.5899999737739563,-2.3125565320608277
391.03448299999997,,0.019584412071081178,391.067,0.5709999799728394,-2.3538990544984917
391.5,,0.012482842213968637,391.533,0.5669999718666077,-2.362625994700354
391.965517,,0.004883109176589776,391.996,0.5659999847412109,-2.364880786757847
392.431034,,0.001951791074903905,392.466,0.5540000200271606,-2.3911620929799584
392.896552,,0.006723870490761617,392.93,0.5830000042915344,-2.328175598346691
393.36206899999996,,0.009037041265325362,393.391,0.574999988079071,-2.345848763814612
393.827586,,0.00959614231791857,393.859,0.5950000286102295,-2.302560817822337
394.293103,,0.009700103469813186,394.322,0.5730000138282776,-2.35080825166125
394.75862099999995,,0.010367406979104637,394.787,0.5820000171661377,-2.3315398916572856
395.224138,,0.011576908568754589,395.25,0.5419999957084656,-2.4190380970435283
395.68965499999996,,0.012339025710358347,395.715,0.5879999995231628,-2.3191747633167035
396.155172,,0.011811185721380946,396.182,0.5789999961853027,-2.3391278697757905
396.62069,,0.010380898304923437,396.647,0.550000011920929,-2.4026341843557084
397.086207,,0.009415173816425785,397.112,0.5450000166893005,-2.4138247559424197
397.551724,,0.00997787055271807,397.577,0.5830000042915344,-2.331296378477589
398.017241,,0.012040465726454017,398.044,0.5669999718666077,-2.3663692607964766
398.48275900000004,,0.014880674214132049,398.51,0.550000011920929,-2.4035686963715324
398.94827599999996,,0.01795147741880584,398.97,0.5720000267028809,-2.355744769789624
399.413793,,0.021320154725032476,399.44,0.5830000042915344,-2.3318263013135136
399.87931,,0.02539679679668499,399.903,0.5509999990463257,-2.401528611676425
400.344828,,0.030142919131886894,400.366,0.5830000042915344,-2.331737410277873
400.810345,,0.03439593594887717,400.834,0.5889999866485596,-2.3185330913676205
401.27586199999996,,0.036128087973617835,401.296,0.550000011920929,-2.4033141333394625
401.741379,,0.033521301774477735,401.762,0.5419999957084656,-2.420510891526085
402.206897,,0.025687348662145216,402.225,0.5849999785423279,-2.326557895814052
402.672414,,0.012684723055050489,402.691,0.5669999718666077,-2.3654712061939684
403.137931,,0.0041483404361302234,403.155,0.5540000200271606,-2.3934693899222848
403.60344799999996,,0.021548777176698005,403.621,0.5540000200271606,-2.3931343134682677
404.068966,,0.035164914487060224,404.088,0.5540000200271606,-2.3927988246338683
404.534483,,0.0422416772705094,404.554,0.5669999718666077,-2.364150541447103
405.0,,0.04343762494564824,405.019,0.5540000200271606,-2.392166053240688
405.465517,,0.041523541344672774,405.485,0.5799999833106995,-2.335242487947727
405.931034,,0.03848682729914072,405.948,0.550000011920929,-2.400359294794025
406.39655200000004,,0.034199389757415856,406.41,0.5720000267028809,-2.352229875461335
406.862069,,0.02747306414439338,406.878,0.5540000200271606,-2.391295808471489
407.327586,,0.01780539481134769,407.34,0.5460000038146973,-2.408629237668538
407.793103,,0.0061790865385796334,407.806,0.5809999704360962,-2.3323372787798116
408.258621,,0.005452823145024953,408.271,0.5680000185966492,-2.3606766829493018
408.72413800000004,,0.015569857693877961,408.737,0.5699999928474426,-2.35639178141484
409.18965499999996,,0.024288152740193483,409.203,0.5920000076293945,-2.308586288258484
409.655172,,0.032947599650940296,409.669,0.5929999947547913,-2.3065800019855116
410.12069,,0.042032478348788135,410.134,0.5540000200271606,-2.3917619444976324
410.586207,,0.049549049351242935,410.6,0.550000011920929,-2.4007284365213524
411.05172400000004,,0.05181902672741814,411.066,0.5630000233650208,-2.3726879413337674
411.51724099999996,,0.04586576394458643,411.525,0.578000009059906,-2.3403109744615374
411.982759,,0.030975815489683946,411.993,0.5419999957084656,-2.4190565406679854
412.448276,,0.008733166623400238,412.455,0.5630000233650208,-2.373621594055755
412.913793,,0.017189735057525617,412.922,0.5440000295639038,-2.4153259274745813
413.37931,,0.04117924000936617,413.385,0.5709999799728394,-2.35679625707197
413.844828,,0.05731558298240308,413.855,0.6449999809265137,-2.195842848280285
414.31034500000004,,0.06272451566222809,414.318,0.5429999828338623,-2.418295311896915
414.775862,,0.059616610789885886,414.783,0.5540000200271606,-2.394519468911297
415.241379,,0.053192191164626486,415.246,0.5830000042915344,-2.331482727733431
415.706897,,0.047174607064457516,415.712,0.5730000138282776,-2.3533627887026585
416.172414,,0.04165927955026864,416.181,0.5730000138282776,-2.353403266809311
416.63793100000004,,0.03490791437027819,416.646,0.5759999752044678,-2.3468540499649064
417.103448,,0.025977743683735375,417.111,0.5640000104904175,-2.372931476347329
417.568966,,0.015226486264247455,417.57,0.5789999961853027,-2.3401350374702736
418.034483,,0.003536102129112659,418.037,0.5630000233650208,-2.3748300349488574
418.5,,0.0077992237004635544,418.502,0.5809999704360962,-2.335409773237183
418.96551700000003,,0.01697523478638608,418.97,0.5680000185966492,-2.363492395578392
419.43103399999995,,0.022629156018688566,419.433,0.5920000076293945,-2.3109372861286075
419.896552,,0.024911579423681784,419.896,0.5789999961853027,-2.338972230655054
420.362069,,0.024990413653184135,420.366,0.5690000057220459,-2.360460284510748
420.827586,,0.023720062079885734,420.83,0.5669999718666077,-2.364518124208081
421.293103,,0.021547413506841206,421.292,0.5540000200271606,-2.3925494083685406
421.758621,,0.019449167512403477,421.758,0.5759999752044678,-2.3443455145932646
422.22413800000004,,0.01870659634433768,422.225,0.5640000104904175,-2.3702406453274305
422.689655,,0.01923413691671374,422.691,0.5879999995231628,-2.3177365228678175
423.15517200000005,,0.019008027177764564,423.156,0.6060000061988831,-2.278341551739154
423.62069,,0.016093858194234992,423.622,0.5640000104904175,-2.3697076403495987
424.086207,,0.011043862441652556,424.081,0.5490000247955322,-2.402297662671615
424.55172400000004,,0.006576512843089544,424.547,0.5540000200271606,-2.3913658823543336
425.017241,,0.0048952904651705055,425.012,0.578000009059906,-2.3390913651293785
425.482759,,0.005879693522610302,425.478,0.5429999828338623,-2.4154076356372425
425.948276,,0.007856861617051883,425.94,0.5509999990463257,-2.3980907128927265
426.413793,,0.009371972505426597,426.41,0.5809999704360962,-2.3328883734786876
426.87931000000003,,0.009920585183790872,426.874,0.6079999804496765,-2.274259694664426
427.344828,,0.009679988071006014,427.336,0.5619999766349792,-2.374703249501616
427.810345,,0.009158487258490361,427.802,0.5830000042915344,-2.3292017534677196
428.275862,,0.00879193334758887,428.266,0.5540000200271606,-2.392650104303101
428.741379,,0.008453229535074247,428.732,0.5540000200271606,-2.3929274810056436
429.20689699999997,,0.007625513445908595,429.197,0.5680000185966492,-2.36270539523366
429.672414,,0.0062776512413146674,429.662,0.5540000200271606,-2.3934783646953735
430.137931,,0.005123818158995777,430.129,0.5649999976158142,-2.369769882852341
430.603448,,0.004760648187089817,430.595,0.5669999718666077,-2.365646094708144
431.068966,,0.004988100712177285,431.06,0.5669999718666077,-2.3658491696733774
431.534483,,0.005225383377746519,431.525,0.5680000185966492,-2.36383709371244
432.0,,0.0051810829873807415,431.988,0.5540000200271606,-2.3944638704350028
432.46551700000003,,0.004856338689501896,432.451,0.5730000138282776,-2.3531508756450843
432.931034,,0.004239616059274239,432.919,0.5860000252723694,-2.324862526325334
433.396552,,0.003313850898949552,433.381,0.5879999995231628,-2.3204906210295078
433.862069,,0.0021663340559672714,433.852,0.593999981880188,-2.307355734373285
434.327586,,0.0007975395960301947,434.314,0.5699999928474426,-2.3595344429220955
434.79310300000003,,0.0010481742904865717,434.78,0.5649999976158142,-2.3702776699635
435.258621,,0.003556349215364211,435.243,0.5630000233650208,-2.374449438848436
435.724138,,0.006459976525413679,435.708,0.5649999976158142,-2.3698774440072023
436.189655,,0.009287915773001072,436.174,0.5709999799728394,-2.3565682885095547
436.655172,,0.011813940920713133,436.64,0.5460000038146973,-2.4107823260780386
437.12068999999997,,0.013938794281178796,437.103,0.574999988079071,-2.3473426927639123
437.586207,,0.015424832373235635,437.569,0.5540000200271606,-2.3928364652085925
438.051724,,0.01616747420498505,438.034,0.5699999928474426,-2.3577291796574062
438.517241,,0.016471537401005404,438.499,0.578000009059906,-2.3400669558487732
438.982759,,0.016640596497600524,438.963,0.5789999961853027,-2.3376776046326047
439.448276,,0.01645674825970027,439.432,0.5540000200271606,-2.3919617837911815
439.913793,,0.015404914898715465,439.893,0.5440000295639038,-2.413601342106081
440.37931000000003,,0.013322134259096478,440.355,0.5669999718666077,-2.3633852271610833
440.844828,,0.010586680805278297,440.826,0.5799999833106995,-2.334996967145495
441.310345,,0.007747642709872855,441.288,0.5910000205039978,-2.3110078629441015
441.775862,,0.005180462818142085,441.754,0.5849999785423279,-2.324097594551471
442.241379,,0.003056024327158468,442.219,0.5730000138282776,-2.3502999503638025
442.70689699999997,,0.0014340774908690034,442.685,0.5519999861717224,-2.396149965612724
443.172414,,0.00030732972553983786,443.145,0.5640000104904175,-2.3701415586747583
443.637931,,0.0004512265830663393,443.61,0.5540000200271606,-2.392096254315282
444.103448,,0.001249676234003288,444.078,0.5630000233650208,-2.372683962233035
444.568966,,0.0027835255799209184,444.543,0.5659999847412109,-2.3663645530881703
445.03448299999997,,0.005491782105483648,445.015,0.5540000200271606,-2.3927387404020544
445.5,,0.008839893769112322,445.474,0.5249999761581421,-2.456157896873758
445.965517,,0.011558785337002336,445.937,0.5649999976158142,-2.3692510379842684
446.431034,,0.012913013541159415,446.406,0.5540000200271606,-2.39344806390028
446.896552,,0.01325235269855426,446.87,0.6359999775886536,-2.215014627056367
447.36206899999996,,0.012805841520754693,447.332,0.5419999957084656,-2.419999462869126
447.827586,,0.010576047830942816,447.798,0.5809999704360962,-2.33519576156909
448.29310300000003,,0.005530853488165403,448.261,0.5059999823570251,-2.498726690780991
448.758621,,0.0012837973760942735,448.727,0.5519999861717224,-2.3986072622188273
449.224138,,0.007087495692939449,449.195,0.5509999990463257,-2.400847500884243
449.689655,,0.010245907713430667,449.661,0.5870000123977661,-2.3224377955167714
450.155172,,0.011912830919014475,450.125,0.5720000267028809,-2.3550978717634714
450.62068999999997,,0.01417331426170529,450.591,0.6439999938011169,-2.1981737297323156
451.086207,,0.017142293301371073,451.055,0.5730000138282776,-2.3527556948067936
451.551724,,0.01874522433229823,451.521,0.5540000200271606,-2.3940126096721674
452.017241,,0.017312859089785994,451.982,0.5329999923706055,-2.4395987499073066
452.482759,,0.013650953027207596,452.451,0.5149999856948853,-2.478627771693943
452.94827599999996,,0.01014844973136681,452.915,0.5680000185966492,-2.3629576345562913
453.413793,,0.008219619588424064,453.377,0.5640000104904175,-2.371460447287404
453.87931,,0.007150346067287097,453.84,0.5830000042915344,-2.329849597839491
454.344828,,0.0053820844727189765,454.31,0.546999990940094,-2.4080664810986536
454.810345,,0.002404811713166603,454.776,0.5730000138282776,-2.351216117030547
455.27586199999996,,0.0008430397092407772,455.24,0.5460000038146973,-2.4098497381943074
455.741379,,0.0031647736855283932,455.705,0.5669999718666077,-2.3639295350243392
456.206897,,0.004383376949000408,456.17,0.5540000200271606,-2.392109408343745
456.672414,,0.0054132886403112195,456.636,0.5630000233650208,-2.3723892466863457
457.137931,,0.007122159952288797,457.096,0.5540000200271606,-2.391918074936874
457.603448,,0.009157914909181827,457.562,0.5740000009536743,-2.3483011865241923
458.06896600000005,,0.010140742591229362,458.03,0.578000009059906,-2.3395779378648336
458.53448299999997,,0.009286997844649923,458.496,0.5789999961853027,-2.337425260748033
459.0,,0.007583056001457424,458.959,0.5759999752044678,-2.344020502041268
459.465517,,0.006793000427296842,459.421,0.5699999928474426,-2.357182925176431
459.931034,,0.007367523166320395,459.885,0.5509999990463257,-2.398696668669924
460.39655200000004,,0.007970760324452954,460.355,0.5910000205039978,-2.3116950666522853
460.86206899999996,,0.007293662031299614,460.818,0.5799999833106995,-2.335824111106655
461.327586,,0.005904246959166514,461.281,0.5649999976158142,-2.3686818296598187
461.793103,,0.005867852384562025,461.747,0.5669999718666077,-2.3645120090998843
462.258621,,0.008428205991145302,462.214,0.5630000233650208,-2.373417882282856
462.724138,,0.01223957262790461,462.68,0.5299999713897705,-2.445503718214827
463.18965499999996,,0.014292735161325008,463.144,0.5699999928474426,-2.358541753678408
463.655172,,0.012840782421622355,463.61,0.5730000138282776,-2.352177125277746
464.12069,,0.009160841011089233,464.074,0.5460000038146973,-2.4111539203593257
464.58620699999994,,0.006135012115208529,464.54,0.574999988079071,-2.3481041794351127
465.051724,,0.005349568096650041,465.0,0.5389999747276306,-2.426640761126943
465.517241,,0.00593803200020129,465.47,0.5669999718666077,-2.3657152089501423
465.98275900000004,,0.005955859074656674,465.933,0.5230000019073486,-2.461622124548413
466.448276,,0.00430737607088999,466.396,0.5690000057220459,-2.3614195303659944
466.913793,,0.0014178290545557978,466.866,0.5929999947547913,-2.309114498615763
467.37931,,0.0013808616063183928,467.329,0.5649999976158142,-2.370065939036417
467.844828,,0.0029254317513020536,467.795,0.5789999961853027,-2.3394829716874512
468.31034500000004,,0.003005780904554519,468.257,0.5680000185966492,-2.363337979031751
468.77586199999996,,0.00234008664653591,468.722,0.5830000042915344,-2.3305234540583104
469.241379,,0.0018235712451993831,469.189,0.550000011920929,-2.402263929747347
469.706897,,0.001813423935622369,469.655,0.5929999947547913,-2.308412105047633
470.172414,,0.0020554042385451496,470.115,0.5540000200271606,-2.3931995356003237
470.63793100000004,,0.002130808456393396,470.581,0.5460000038146973,-2.4104455015370063
471.10344799999996,,0.0019705586449821465,471.048,0.5540000200271606,-2.392836164994985
471.568966,,0.002051596689064196,471.514,0.5619999766349792,-2.375235341960619
472.034483,,0.0030151217030061966,471.977,0.5680000185966492,-2.3620046482723147
472.5,,0.004889068704991325,472.44,0.5669999718666077,-2.3640420915696825
472.965517,,0.006701774890604651,472.907,0.5730000138282776,-2.3508501708288416
473.43103399999995,,0.007071659330336563,473.37,0.5759999752044678,-2.344218961407985
473.89655200000004,,0.0053402764164606435,473.84,0.5540000200271606,-2.3920812805658396
474.362069,,0.0022686965038183644,474.303,0.597000002861023,-2.2983608237297584
474.827586,,0.00031786804603672864,474.768,0.5649999976158142,-2.368068668973081
475.293103,,0.0008887589853520885,475.232,0.550000011920929,-2.4007697936389176
475.758621,,0.00034507243981593875,475.698,0.5699999928474426,-2.3572485367449088
476.22413800000004,,0.0014232379616165019,476.162,0.5680000185966492,-2.3616854923520236
476.689655,,0.000511515905414891,476.628,0.5669999718666077,-2.3639690391245387
477.155172,,0.0021734242371282972,477.096,0.5529999732971191,-2.394596928415375
477.62069,,0.004643385729731553,477.561,0.5540000200271606,-2.392563443135062
478.086207,,0.005371356100749531,478.026,0.5929999947547913,-2.3077547784614456
478.55172400000004,,0.00485821140240811,478.491,0.5339999794960022,-2.4364616744269663
479.01724099999996,,0.004766993847205522,478.952,0.5460000038146973,-2.4104883901274627
479.482759,,0.005887904737649541,479.421,0.5699999928474426,-2.3583702804615014
479.948276,,0.007528017573632602,479.885,0.5759999752044678,-2.3454602507042153
480.413793,,0.008870520023130712,480.348,0.6290000081062317,-2.2301393164076804
480.87931000000003,,0.01028413715640395,480.818,0.5440000295639038,-2.415452753134916
481.344828,,0.012865255946665925,481.281,0.574999988079071,-2.348021605850009
481.810345,,0.01680557163447988,481.747,0.5419999957084656,-2.4200004856012596
482.275862,,0.02039879381351808,482.212,0.5659999847412109,-2.3677708707246854
482.74137900000005,,0.020861529321794234,482.677,0.5630000233650208,-2.3743373942733332
483.206897,,0.016636567302963666,483.137,0.5649999976158142,-2.369982464379457
483.672414,,0.009200383340979841,483.603,0.5720000267028809,-2.354705855823504
484.13793100000004,,0.0021963612565561045,484.07,0.5540000200271606,-2.3938683350755396
484.603448,,0.0017030176549899412,484.536,0.5709999799728394,-2.3567530496045817
485.068966,,0.003053733808190996,484.996,0.5820000171661377,-2.3326865063954427
485.534483,,0.004884223147312476,485.466,0.5669999718666077,-2.3652449159608286
486.0,,0.01021335287539116,485.929,0.527999997138977,-2.4500756641786667
486.46551700000003,,0.020246288949901443,486.392,0.5649999976158142,-2.3693194335405554
486.931034,,0.034014826779385804,486.855,0.5789999961853027,-2.338666105031005
487.396552,,0.048994945806114513,487.325,0.5540000200271606,-2.3929779600627183
487.862069,,0.0621413962931441,487.791,0.5809999704360962,-2.334003029005673
488.327586,,0.070748003207645,488.254,0.550000011920929,-2.4013970096821713
488.79310300000003,,0.07289490755003498,488.719,0.5709999799728394,-2.355513440898463
489.258621,,0.0678618048264455,489.186,0.5759999752044678,-2.344503875281536
489.724138,,0.056529329660986415,489.651,0.550000011920929,-2.4010513374335725
490.189655,,0.041167055861912515,490.111,0.5460000038146973,-2.40969136149806
490.655172,,0.02460126137830115,490.576,0.574999988079071,-2.346460878800522
491.12069,,0.00938711934923015,491.041,0.5699999928474426,-2.3573296681941827
491.586207,,0.0030023300207972867,491.507,0.6370000243186951,-2.2113597683585247
492.05172400000004,,0.013109799580503385,491.97,0.5820000171661377,-2.331207680999256
492.517241,,0.023449190864437565,492.44,0.5830000042915344,-2.3290737502947003
492.982759,,0.03634780286898373,492.903,0.5789999961853027,-2.3378552072895666
493.448276,,0.05109422863258372,493.366,0.5529999732971191,-2.3945877045692656
493.913793,,0.06356339733879446,493.834,0.574999988079071,-2.34676366731705
494.37931000000003,,0.06912513576763696,494.296,0.5540000200271606,-2.3926370645087984
494.844828,,0.06577008230772888,494.761,0.5490000247955322,-2.4036644705837573
495.310345,,0.05443820064646049,495.225,0.5699999928474426,-2.358055528755365
495.775862,,0.0374231851893201,495.691,0.546999990940094,-2.408310931170087
496.241379,,0.01759526244060733,496.155,0.5669999718666077,-2.364883914151037
496.70689699999997,,0.0013423796804911553,496.621,0.5540000200271606,-2.393347088119085
497.172414,,0.0155436269420577,497.088,0.5759999752044678,-2.345548026972248
497.637931,,0.02290879036562862,497.554,0.5649999976158142,-2.369630123879376
498.103448,,0.024063087024448187,498.018,0.5440000295639038,-2.4154813729296407
498.568966,,0.02128516249811012,498.484,0.5699999928474426,-2.3589163791473613
499.03448299999997,,0.0167713314045375,498.952,0.5799999833106995,-2.3371866007746607
499.5,,0.011931514217177112,499.414,0.5860000252723694,-2.324145468884621
499.96551700000003,,0.007675562704040039,499.882,0.593999981880188,-2.3067198999403193
500.431034,,0.004623836950165948,500.344,0.5709999799728394,-2.356805024935403
500.89655200000004,,0.0028229127578386264,500.81,0.6119999885559082,-2.26743003037181
501.362069,,0.0015362601559998166,501.273,0.5509999990463257,-2.4002524602799906
501.827586,,0.00028245752434325903,501.739,0.5519999861717224,-2.397977902845336
502.293103,,0.0030915712232870707,502.204,0.5540000200271606,-2.3935080150520216
502.758621,,0.006359230564965538,502.671,0.5669999718666077,-2.3650598522414557
503.224138,,0.009060859526630646,503.13,0.574999988079071,-2.3474947796523744
503.68965499999996,,0.010415455747770221,503.596,0.5669999718666077,-2.364782006808329
504.15517200000005,,0.010204931276875343,504.064,0.5149999856948853,-2.477929115649127
504.62068999999997,,0.008871514720322736,504.529,0.5920000076293945,-2.310034875451772
505.08620699999994,,0.007487728333824023,504.992,0.5759999752044678,-2.3447621283187883
505.55172400000004,,0.007082120635275553,505.455,0.5490000247955322,-2.4034649462498194
506.017241,,0.0076284017941536005,505.922,0.5540000200271606,-2.3924665290102936
506.48275899999993,,0.008084385885371548,506.392,0.5730000138282776,-2.3509855022891544
506.948276,,0.007667161738066564,506.852,0.527999997138977,-2.4489590511844126
507.413793,,0.00666758046711264,507.315,0.5860000252723694,-2.322554684751566
507.87931,,0.005837007097838993,507.78,0.5789999961853027,-2.337785572327856
508.344828,,0.005528839785926628,508.25,0.5889999866485596,-2.3160016769689915
508.810345,,0.005732225272891921,508.716,0.5669999718666077,-2.3639567712269614
509.27586199999996,,0.0063720316853437455,509.182,0.5669999718666077,-2.364003491614465
509.74137900000005,,0.007145056181561009,509.64,0.5519999861717224,-2.396751015522164
510.20689699999997,,0.007517071514949266,510.107,0.5699999928474426,-2.3576222833536016
510.67241399999995,,0.0072815510819612544,510.573,0.5669999718666077,-2.3642613171928772
511.13793100000004,,0.006761453888595504,511.037,0.5920000076293945,-2.3099102159084515
511.603448,,0.006244151358092438,511.502,0.5669999718666077,-2.36449994696271
512.0689659999999,,0.00567592662093792,511.97,0.5540000200271606,-2.392950891415937
512.534483,,0.00505444523379535,512.433,0.5509999990463257,-2.3996178278297102
513.0,,0.004513292386704128,512.901,0.5509999990463257,-2.3997475284052445
513.465517,,0.0037916303526557447,513.363,0.5299999713897705,-2.4456242236457206
513.931034,,0.0022765209550009526,513.826,0.5540000200271606,-2.393453384027817
514.396552,,8.381048510067858e-05,514.296,0.5879999995231628,-2.3194833333662785
514.862069,,0.002483076188206148,514.761,0.5889999866485596,-2.3173908978059123
515.327586,,0.004210278202351706,515.226,0.574999988079071,-2.3479573695883897
515.793103,,0.0054153037856217445,515.691,0.593999981880188,-2.3066058820357744
516.258621,,0.006683912376636089,516.151,0.5669999718666077,-2.365448614764316
516.724138,,0.008297623351619357,516.617,0.574999988079071,-2.348015029332634
517.189655,,0.010064726282525789,517.081,0.5879999995231628,-2.319664989515142
517.655172,,0.011445054816441935,517.547,0.5879999995231628,-2.3196146477258526
518.1206900000001,,0.011702840165993801,518.012,0.5720000267028809,-2.3544017361665106
518.5862070000001,,0.010340016770692228,518.478,0.5440000295639038,-2.4153153613559923
519.051724,,0.007617394003364969,518.94,0.5929999947547913,-2.3084591785319275
519.517241,,0.004470873109965284,519.41,0.5540000200271606,-2.393312881568214
519.982759,,0.001749968282940463,519.874,0.5540000200271606,-2.3931924112513308
520.448276,,0.0004434734413179545,520.337,0.5529999732971191,-2.3952483524793022
520.9137929999999,,0.0026388964211915256,520.803,0.5519999861717224,-2.3973056920005735
521.37931,,0.005152321689259432,521.266,0.5630000233650208,-2.3732242455749053
521.844828,,0.007232066486496392,521.732,0.578000009059906,-2.3404361448993845
522.310345,,0.007192197859728932,522.196,0.578000009059906,-2.3403379658205523
522.7758620000001,,0.0038010112747201594,522.662,0.593999981880188,-2.305393902685919
523.241379,,0.0023294016590249007,523.126,0.5699999928474426,-2.3576104454742954
523.7068969999999,,0.009010810488680196,523.592,0.5929999947547913,-2.3074473624155933
524.172414,,0.014333225392982527,524.059,0.6000000238418579,-2.292160409361071
524.637931,,0.018078793754298505,524.524,0.5849999785423279,-2.3248222523571362
525.103448,,0.021070017457522478,524.985,0.6019999980926514,-2.287786087124009
525.568966,,0.023351170423004667,525.455,0.5920000076293945,-2.30959212934192
526.034483,,0.023606263796505027,525.918,0.593999981880188,-2.3052725317363434
526.5,,0.020661298034448425,526.381,0.5929999947547913,-2.307505902840086
526.9655170000001,,0.01524993396933599,526.849,0.5820000171661377,-2.331541481437106
527.4310340000001,,0.009787514200613811,527.311,0.6010000109672546,-2.290231438996602
527.8965519999999,,0.006236671643310428,527.776,0.6119999885559082,-2.266361304781509
528.362069,,0.004496583235809467,528.24,0.6240000128746033,-2.2403194262211352
528.827586,,0.003120371685071801,528.706,0.5830000042915344,-2.329750321147732
529.293103,,0.0011519302413379366,529.171,0.5910000205039978,-2.312429899509844
529.7586210000001,,0.0013732989399203245,529.637,0.6190000176429749,-2.2515360660422443
530.224138,,0.004323736368693579,530.103,0.6119999885559082,-2.266890536802278
530.689655,,0.007679695868314427,530.569,0.5429999828338623,-2.417314975084897
531.155172,,0.010636970264439783,531.034,0.640999972820282,-2.2038970301250953
531.62069,,0.011647387667299936,531.499,0.6079999804496765,-2.2758699487946727
532.086207,,0.010137386952781399,531.963,0.5709999799728394,-2.356543359416059
532.5517239999999,,0.007541878936185767,532.425,0.6119999885559082,-2.267267555709871
533.017241,,0.00577276911812716,532.893,0.6119999885559082,-2.26729970746694
533.482759,,0.004975628240746656,533.355,0.6370000243186951,-2.2128468063306515
533.9482760000001,,0.0036306230332115567,533.826,0.6579999923706055,-2.1670883039456634
534.413793,,0.0008197997105517862,534.288,0.6069999933242798,-2.278172192190483
534.87931,,0.0023392442570680664,534.754,0.6430000066757202,-2.1996951290458995
535.344828,,0.003746938868025832,535.219,0.6200000047683716,-2.249741558475254
535.810345,,0.0024720365462132673,535.685,0.6690000295639038,-2.1429096693876537
536.275862,,0.00022908779047888466,536.151,0.6230000257492065,-2.243035998808225
536.7413789999999,,0.0018563755324206778,536.61,0.6449999809265137,-2.195004102187788
537.206897,,0.0008428055000662319,537.081,0.6200000047683716,-2.249362177523668
537.672414,,0.0017893849444484387,537.54,0.6209999918937683,-2.2470730075164917
538.137931,,0.0031535710846412528,538.014,0.6190000176429749,-2.2513211985169117
538.6034480000001,,0.0014759112159796219,538.473,0.6370000243186951,-2.212001035364949
539.0689659999999,,0.001705206900206767,538.941,0.6340000033378601,-2.218439756565898
539.5344829999999,,0.0028977517025908306,539.403,0.6890000104904175,-2.098525627385607
540.0,,0.0002818526892148308,539.866,0.6460000276565552,-2.192129436303199
540.465517,,0.0044454492370856954,540.336,0.6600000262260437,-2.161563320531438
540.931034,,0.007832716453882834,540.795,0.6449999809265137,-2.1941937548106996
541.396552,,0.0077895374729518175,541.265,0.6240000128746033,-2.2399137973986796
541.862069,,0.004854591923866506,541.73,0.6909999847412109,-2.0939315446067686
542.327586,,0.0009433882344866429,542.196,0.640999972820282,-2.2028691874059048
542.7931030000001,,0.0025592302069789197,542.662,0.6890000104904175,-2.098316708726567
543.258621,,0.005437603198431776,543.125,0.6980000138282776,-2.0787476335206407
543.7241379999999,,0.007916472562496654,543.591,0.6970000267028809,-2.0809788260095408
544.189655,,0.00986794347605323,544.056,0.6489999890327454,-2.185619879363723
544.655172,,0.010864531470116233,544.515,0.6579999923706055,-2.166091051593971
545.12069,,0.010739492016414946,544.985,0.6579999923706055,-2.1661817866819675
545.5862070000001,,0.009880970451207867,545.447,0.6679999828338623,-2.1444949652833074
546.051724,,0.009022850860021827,545.915,0.6740000247955322,-2.1315283204737296
546.517241,,0.008805906775234679,546.377,0.6710000038146973,-2.1381720634268953
546.982759,,0.00941092906593553,546.841,0.656000018119812,-2.1709591880356665
547.448276,,0.010424251613756727,547.31,0.6700000166893005,-2.140562498734302
547.9137929999999,,0.011070452432579304,547.776,0.6869999766349792,-2.103623365075873
548.3793099999999,,0.010833225774106503,548.24,0.7329999804496765,-2.0034921346698824
548.844828,,0.00997334330046407,548.706,0.6769999861717224,-2.1255684716271994
549.310345,,0.00917461465591268,549.166,0.6930000185966492,-2.090766279822038
549.775862,,0.008527806880127553,549.632,0.6650000214576721,-2.1518084364763648
550.241379,,0.007273185441879792,550.096,0.6949999928474426,-2.086471845343645
550.706897,,0.004910739118348511,550.562,0.6449999809265137,-2.195409745093311
551.172414,,0.0022454740792463464,551.027,0.6629999876022339,-2.156182898812376
551.637931,,0.0008966809801731251,551.492,0.6460000276565552,-2.193193022836274
552.103448,,0.0018804140639063329,551.955,0.6959999799728394,-2.084218195009982
552.568966,,0.004866651337937206,552.425,0.6809999942779541,-2.1168395847831265
553.034483,,0.008596871198753008,552.885,0.6660000085830688,-2.1494465440260457
553.5,,0.011905347087114063,553.355,0.6499999761581421,-2.184220885923309
553.965517,,0.014769840325385055,553.818,0.640999972820282,-2.2037365154758866
554.4310340000001,,0.018601411551954914,554.281,0.6800000071525574,-2.1186710962755484
554.896552,,0.024846985791535412,554.747,0.6660000085830688,-2.149069843830005
555.3620689999999,,0.03257840950854735,555.212,0.722000002861023,-2.0269602318326965
555.827586,,0.03771044098611075,555.678,0.6940000057220459,-2.0878556710624463
556.293103,,0.03539215124065943,556.145,0.6420000195503235,-2.201041080814998
556.758621,,0.023566443188698723,556.61,0.640999972820282,-2.2031233173312232
557.224138,,0.004301939627166262,557.075,0.6710000038146973,-2.1376781971350525
557.689655,,0.017951766985000076,557.54,0.6650000214576721,-2.1506767856501323
558.155172,,0.03896816845950471,558.004,0.6539999842643738,-2.174582939719751
558.6206900000001,,0.05589572184501957,558.465,0.6990000009536743,-2.0765001455403147
559.0862070000001,,0.06688029763441537,558.933,0.6679999828338623,-2.1440106387612685
559.5517239999999,,0.07067055803766897,559.396,0.6660000085830688,-2.1483572845591334
560.017241,,0.06717524409488876,559.867,0.6549999713897705,-2.172330262992724
560.482759,,0.05827236684368379,560.329,0.6570000052452087,-2.167999325947489
560.948276,,0.04740118827921236,560.795,0.652999997138977,-2.176758647810097
561.413793,,0.03764106606708107,561.258,0.6460000276565552,-2.192071206004104
561.87931,,0.029839138717897267,561.723,0.6420000195503235,-2.200864025661826
562.344828,,0.022552280072804628,562.188,0.6449999809265137,-2.1944205598293225
562.8103450000001,,0.013814692617625048,562.654,0.6549999713897705,-2.1727378455672492
563.275862,,0.0031370783310367824,563.118,0.6190000176429749,-2.2512815006749407
563.7413789999999,,0.007844551490112045,563.584,0.6830000281333923,-2.1119656260750608
564.206897,,0.016514431384828072,564.049,0.6869999766349792,-2.1033688952742438
564.672414,,0.02133222277317558,564.514,0.6290000081062317,-2.229844570515837
565.137931,,0.023102950621189475,564.978,0.593999981880188,-2.306207183888841
565.603448,,0.024243332376008106,565.44,0.6499999761581421,-2.1843064879668606
566.068966,,0.026557323767418067,565.908,0.6470000147819519,-2.190935239031453
566.534483,,0.029531189826241384,566.371,0.6869999766349792,-2.103866859535873
567.0,,0.0308188911676352,566.841,0.6389999985694885,-2.20850107185322
567.465517,,0.028508499426295797,567.303,0.6060000061988831,-2.280436902084634
567.931034,,0.022885892443505394,567.769,0.6290000081062317,-2.2303500113993606
568.396552,,0.01586545402820459,568.233,0.6100000143051147,-2.271747186645355
568.862069,,0.008933368977758335,568.698,0.6169999837875366,-2.256480088360537
569.327586,,0.002260907348041163,569.163,0.6060000061988831,-2.2804094693768087
569.793103,,0.004086242225559899,569.628,0.593999981880188,-2.306499601984984
570.2586210000001,,0.009047064111245704,570.093,0.5960000157356262,-2.302072195222089
570.724138,,0.011567155351422066,570.559,0.5920000076293945,-2.3107021565267667
571.189655,,0.012247704106906648,571.026,0.609000027179718,-2.2735674618672714
571.655172,,0.012918024432979954,571.491,0.6370000243186951,-2.2124558530217002
572.12069,,0.014457468971493593,571.952,0.5979999899864197,-2.2973039595164093
572.586207,,0.015792614997068258,572.422,0.6019999980926514,-2.2884640287104214
573.051724,,0.015262100184113019,572.885,0.5839999914169312,-2.3275525077627024
573.517241,,0.012459451025960692,573.348,0.6119999885559082,-2.266424597966977
573.982759,,0.008555090549516245,573.819,0.6320000290870667,-2.222729524769643
574.4482760000001,,0.0051636421395641705,574.281,0.6079999804496765,-2.2749014623651007
574.913793,,0.0030630904817049347,574.746,0.6000000238418579,-2.2922250257647634
575.37931,,0.0018644547904421293,575.211,0.6110000014305115,-2.268168270321681
575.844828,,0.0007611146992698586,575.677,0.5889999866485596,-2.3160237646913875
576.310345,,0.000571537993416633,576.137,0.6039999723434448,-2.283288837337644
576.775862,,0.0018688258618588351,576.602,0.574999988079071,-2.3464363334653573
577.241379,,0.002769545425169246,577.067,0.5860000252723694,-2.3224616777730276
577.706897,,0.00312386489093926,577.532,0.6039999723434448,-2.2832610062255987
578.172414,,0.0029892725941094806,578.0,0.6309999823570251,-2.2244752883254884
578.6379310000001,,0.0026770118594421615,578.463,0.5910000205039978,-2.3116807060241653
579.1034480000001,,0.0027572163661929152,578.926,0.578000009059906,-2.340084411138677
579.5689659999999,,0.0036440854169430925,579.396,0.6190000176429749,-2.2508613320783417
580.034483,,0.005003411459380088,579.859,0.6019999980926514,-2.288016834157657
580.5,,0.005799168152669331,580.322,0.6000000238418579,-2.2925062729819694
580.965517,,0.0052488731676753435,580.787,0.6039999723434448,-2.2839346446800914
581.431034,,0.0037728742756952356,581.25,0.593999981880188,-2.305870908811315
581.896552,,0.0027522027815484475,581.716,0.5889999866485596,-2.3169171924788223
582.362069,,0.0032035053223769747,582.182,0.6169999837875366,-2.2560669128255473
582.827586,,0.004934445564028312,582.647,0.5720000267028809,-2.354252336819943
583.2931030000001,,0.007280575528292611,583.115,0.5789999961853027,-2.3391393371322753
583.758621,,0.010337570197695692,583.58,0.6079999804496765,-2.276083105087184
584.2241379999999,,0.014708187430439114,584.045,0.5950000286102295,-2.304512233007235
584.689655,,0.019923034789019262,584.511,0.5690000057220459,-2.361243162033225
585.155172,,0.02395958184487931,584.974,0.6169999837875366,-2.2567306285647124
585.6206900000001,,0.02506321774628504,585.436,0.6859999895095825,-2.1064380465001746
586.0862070000001,,0.023910460660529053,585.904,0.578000009059906,-2.3417350324332613
586.551724,,0.023459781113460206,586.366,0.5699999928474426,-2.359138224031588
587.017241,,0.02634292346494647,586.83,0.5830000042915344,-2.3307631603097443
587.482759,,0.03218539287500711,587.299,0.5690000057220459,-2.3611860475736655
587.948276,,0.03736704125496682,587.765,0.593999981880188,-2.3066176262300124
588.4137929999999,,0.03762078455941857,588.229,0.5669999718666077,-2.3653171532355297
588.87931,,0.031302813817370524,588.695,0.6119999885559082,-2.2671348698135025
589.344828,,0.02042806555334624,589.159,0.5540000200271606,-2.393337988615261
589.810345,,0.008600942589336823,589.625,0.5989999771118164,-2.295129615109767
590.2758620000001,,0.0021286914837374627,590.089,0.5989999771118164,-2.2949535236572567
590.741379,,0.012593327498095717,590.554,0.5860000252723694,-2.323097157497608
591.2068969999999,,0.024920427772143917,591.019,0.5979999899864197,-2.2967774140347395
591.672414,,0.039583435011050674,591.485,0.6039999723434448,-2.283536941441683
592.137931,,0.05395523324443869,591.948,0.6119999885559082,-2.2659508860972637
592.603448,,0.06388690444310514,592.41,0.5849999785423279,-2.3246342696436555
593.068966,,0.06674513426526016,592.881,0.5789999961853027,-2.337588015143
593.534483,,0.06281371536274122,593.344,0.5789999961853027,-2.337496568708964
594.0,,0.05404994210583829,593.81,0.6119999885559082,-2.2655390395176105
594.4655170000001,,0.042238836094802445,594.273,0.6150000095367432,-2.2589713328601317
594.9310340000001,,0.028588342363754016,594.739,0.5920000076293945,-2.309080231277824
595.3965519999999,,0.014344365693104976,595.204,0.5929999947547913,-2.306934744545839
595.862069,,0.0009766363313336603,595.67,0.5799999833106995,-2.335323922335176
596.327586,,0.010258036066460023,596.137,0.6039999723434448,-2.283135447073344
596.793103,,0.018663613178151683,596.595,0.574999988079071,-2.346445366188992
597.2586210000001,,0.02413854334917034,597.06,0.5929999947547913,-2.307385978751334
597.724138,,0.02707441682476253,597.526,0.6169999837875366,-2.2552773059856075
598.189655,,0.028057054281548057,597.996,0.6039999723434448,-2.2837954523690485
598.655172,,0.027372815920408286,598.459,0.5899999737739563,-2.314503964021409
599.12069,,0.024817696174016756,598.922,0.5540000200271606,-2.393150052602137
599.586207,,0.020204920700323276,599.392,0.578000009059906,-2.3410797044995593
600.0517239999999,,0.014091085689623566,599.855,0.5799999833106995,-2.3369353875975434
600.517241,,0.007827057638303771,600.318,0.5920000076293945,-2.310992966320153
600.982759,,0.002816634669538123,600.784,0.5830000042915344,-2.330784131885245
601.448276,,0.00019601917608038925,601.247,0.6449999809265137,-2.1958662072495088
601.913793,,0.0011478975888467853,601.712,0.5830000042915344,-2.331069427151566
602.37931,,0.0002405528215200989,602.177,0.5920000076293945,-2.311553976789904
602.844828,,0.002258208475829439,602.643,0.5989999771118164,-2.2963585959887736
603.310345,,0.00585349082114213,603.108,0.5720000267028809,-2.355197562461359
603.775862,,0.009805575714489813,603.573,0.5809999704360962,-2.3355653553203517
604.2413789999999,,0.01358193920924677,604.041,0.5690000057220459,-2.3616449058168576
604.706897,,0.017211573144670995,604.506,0.6169999837875366,-2.2569664504492946
605.172414,,0.020721264449282847,604.967,0.5950000286102295,-2.3047552622652527
605.637931,,0.023031232334835994,605.437,0.5899999737739563,-2.3154727465500673
606.1034480000001,,0.02184523562353394,605.899,0.5929999947547913,-2.3087315390512444
606.5689659999999,,0.015221207646233909,606.362,0.5879999995231628,-2.3193959117113
607.0344829999999,,0.003409937697829066,606.826,0.5759999752044678,-2.3452940260430433
607.5,,0.011025721136396409,607.296,0.5860000252723694,-2.3232522303471748
607.965517,,0.024933716929572733,607.761,0.6050000190734863,-2.281600189776911
608.431034,,0.036267815654227216,608.225,0.574999988079071,-2.3467068107063693
608.896552,,0.044202081455468306,608.691,0.574999988079071,-2.3464671056025983
609.362069,,0.04813106543303062,609.155,0.5920000076293945,-2.309211167453571
609.827586,,0.04715121223700065,609.621,0.5490000247955322,-2.402702072702856
610.293103,,0.04072475570713399,610.081,0.6069999933242798,-2.2761837279128354
610.758621,,0.02968866438131701,610.547,0.5419999957084656,-2.4176784110978065
611.2241379999999,,0.01632198501566929,611.012,0.5669999718666077,-2.363138908265623
611.689655,,0.0030915603624330746,611.477,0.5680000185966492,-2.360934045350581
612.155172,,0.008876706879499978,611.94,0.5619999766349792,-2.3740280833356047
612.62069,,0.019930404002172445,612.411,0.6039999723434448,-2.2825943494759957
613.0862070000001,,0.03024285174588037,612.874,0.574999988079071,-2.3458896840450794
613.551724,,0.03819049764413486,613.336,0.5690000057220459,-2.3591186171334466
614.017241,,0.0407857892427905,613.802,0.5690000057220459,-2.359314798551838
614.4827590000001,,0.03577390365526522,614.266,0.5519999861717224,-2.396582158965895
614.948276,,0.023089002326830487,614.732,0.5699999928474426,-2.3576245835176053
615.4137929999999,,0.0045495612740205395,615.197,0.5540000200271606,-2.39276132150558
615.8793099999999,,0.016966325825019404,615.663,0.5540000200271606,-2.39305204037741
616.344828,,0.037623804343033376,616.13,0.5849999785423279,-2.3258080135875163
616.810345,,0.05286019196457568,616.596,0.5509999990463257,-2.4001698565070315
617.275862,,0.05913356228847581,617.056,0.578000009059906,-2.34161922604552
617.741379,,0.05630059140859054,617.522,0.5789999961853027,-2.3396897008784565
618.206897,,0.04789988231959323,617.985,0.597000002861023,-2.3006904885535313
618.672414,,0.038369895548597675,618.454,0.5669999718666077,-2.366226815198518
619.137931,,0.0297933352917739,618.915,0.5830000042915344,-2.331500118219367
619.603448,,0.021475805038207254,619.384,0.5680000185966492,-2.364262339414323
620.068966,,0.01229293486156247,619.845,0.5640000104904175,-2.373007550706057
620.534483,,0.0025502280966348792,620.314,0.578000009059906,-2.342483857357389
621.0,,0.006681296563603936,620.781,0.5529999732971191,-2.3968745200719104
621.465517,,0.015064400861374535,621.244,0.5419999957084656,-2.4207135619471916
621.9310340000001,,0.022831026655191194,621.709,0.5540000200271606,-2.3943971944619444
622.396552,,0.02943224775236359,622.175,0.574999988079071,-2.34843067845217
622.862069,,0.03343211815216437,622.64,0.5720000267028809,-2.3547142037461546
623.327586,,0.034114675671058185,623.1,0.5460000038146973,-2.411076812747134
623.793103,,0.03259782211223607,623.566,0.5540000200271606,-2.393344344957189
624.258621,,0.030828497435644447,624.03,0.5509999990463257,-2.399565313731033
624.724138,,0.02967124133519726,624.496,0.5540000200271606,-2.3927117309577173
625.189655,,0.028398220144683257,624.966,0.5690000057220459,-2.3597210050695847
625.655172,,0.0259797011420389,625.429,0.503000020980835,-2.503217355421157
626.1206900000001,,0.02244967427302965,625.892,0.5540000200271606,-2.391838505303543
626.5862070000001,,0.018860961613905027,626.355,0.5389999747276306,-2.4242851062996067
627.0517239999999,,0.016159502611652735,626.826,0.5490000247955322,-2.402306370852837
627.5172409999999,,0.014406861612518727,627.288,0.5490000247955322,-2.40216124026375
627.982759,,0.013117808820752485,627.753,0.5540000200271606,-2.3911742299685415
628.448276,,0.011959265393247655,628.218,0.546999990940094,-2.4063855036411566
628.913793,,0.010766616851109299,628.684,0.5419999957084656,-2.4172956529363394
629.37931,,0.009239181505679364,629.148,0.5389999747276306,-2.423905060160463
629.844828,,0.007280502867083392,629.614,0.5339999794960022,-2.4349266893571757
630.3103450000001,,0.005511668800328252,630.078,0.5540000200271606,-2.3915333653313335
630.7758620000001,,0.004734423060609279,630.544,0.5460000038146973,-2.409188129271629
631.2413789999999,,0.004782722260741197,631.012,0.5690000057220459,-2.3593435423913585
631.706897,,0.004487595933205551,631.47,0.5490000247955322,-2.4032116619028367
632.172414,,0.003015396420965092,631.94,0.453000009059906,-2.6126815350245787
632.637931,,0.0008617190529583279,632.403,0.5410000085830688,-2.4212971406577646
633.103448,,0.0007267583771277791,632.871,0.550000011920929,-2.402031482821518
633.568966,,0.0011037179827480393,633.332,0.5400000214576721,-2.424153416791563
634.034483,,0.0008247914081153284,633.798,0.5419999957084656,-2.4201148195905846
634.5,,0.001021020056173283,634.261,0.5419999957084656,-2.420406948376713
634.9655170000001,,0.002268093540828776,634.727,0.5540000200271606,-2.3945193835209984
635.431034,,0.004040288469615261,635.192,0.5479999780654907,-2.4078034275929836
635.8965519999999,,0.00527837308583977,635.658,0.550000011920929,-2.403607125452897
636.362069,,0.005489102869815972,636.123,0.5320000052452087,-2.442928077564215
636.827586,,0.005225555619082766,636.588,0.5460000038146973,-2.412473260468981
637.293103,,0.005457464166589624,637.055,0.5640000104904175,-2.373242551616529
637.7586210000001,,0.006497374248580009,637.521,0.5419999957084656,-2.421096147376901
638.224138,,0.0076385118762820866,637.981,0.5540000200271606,-2.3948161220331308
638.689655,,0.007907126302769366,638.451,0.5630000233650208,-2.3750162475988104
639.155172,,0.00700719433297181,638.914,0.5419999957084656,-2.4205254737708994
639.62069,,0.005385286493758622,639.377,0.5410000085830688,-2.422418974484847
640.086207,,0.0036565706882117103,639.841,0.5419999957084656,-2.419921490296454
640.551724,,0.0023025735766710564,640.31,0.5429999828338623,-2.417399789955659
641.017241,,0.0016558509720044849,640.776,0.5360000133514404,-2.4322933908849502
641.482759,,0.0016528376602824297,641.24,0.546999990940094,-2.4079684674103485
641.9482760000001,,0.0016878133013697358,641.705,0.5419999957084656,-2.418509674769333
642.413793,,0.0012919093324306595,642.17,0.5429999828338623,-2.415997546073954
642.87931,,0.0010737141204432876,642.635,0.5389999747276306,-2.4244075484510414
643.344828,,0.0023327937795674064,643.1,0.5440000295639038,-2.4132479125381345
643.810345,,0.005224090890395063,643.566,0.5270000100135803,-2.4500655513202285
644.275862,,0.007801269958717964,644.026,0.5410000085830688,-2.4193990187278764
644.7413789999999,,0.007784759760448631,644.491,0.5659999847412109,-2.3648259723110328
645.206897,,0.005271684436099977,644.959,0.5540000200271606,-2.3909239288418798
645.672414,,0.002842769134455582,645.421,0.531000018119812,-2.4410503187246784
646.1379310000001,,0.0026612448592499816,645.885,0.5440000295639038,-2.412809151572672
646.6034480000001,,0.004105572437271499,646.355,0.5189999938011169,-2.467418857031763
647.0689659999999,,0.0047554823737805205,646.815,0.5540000200271606,-2.391367532714085
647.534483,,0.0032706146812729897,647.285,0.5479999780654907,-2.4046924238707748
648.0,,0.0006712693095621202,647.751,0.5460000038146973,-2.409346150991826
648.465517,,0.001071680918908569,648.211,0.49000000953674316,-2.5316829675784356
648.931034,,0.0010981220523988832,648.676,0.5690000057220459,-2.3599288125517157
649.396552,,0.00013025434259019184,649.14,0.5389999747276306,-2.425661909562388
649.862069,,0.000721374716522506,649.606,0.5669999718666077,-2.3650354630380965
650.327586,,0.0011495309161801113,650.071,0.5720000267028809,-2.354507952794901
650.7931030000001,,0.0015529566027061646,650.536,0.5690000057220459,-2.3613881077053245
651.258621,,0.0021470074064549706,651.0,0.5789999961853027,-2.339913440812
651.7241379999999,,0.002635930782426225,651.47,0.5419999957084656,-2.420793795183658
652.189655,,0.002726769599706363,651.933,0.546999990940094,-2.4101222998403715
652.655172,,0.0025735431254300767,652.396,0.546999990940094,-2.4102891881124635
653.12069,,0.0026153756063190246,652.867,0.5419999957084656,-2.4212893241597566
653.5862070000001,,0.00316598058399292,653.329,0.5360000133514404,-2.434405042251296
654.051724,,0.004120237083583379,653.795,0.5540000200271606,-2.3951686682893722
654.517241,,0.004913830401659188,654.257,0.5379999876022339,-2.4299421052377834
654.982759,,0.004955193131424749,654.723,0.5429999828338623,-2.4189020456924384
655.448276,,0.0043027731934086365,655.189,0.578000009059906,-2.3424443322889323
655.9137929999999,,0.0037223671413630084,655.655,0.546999990940094,-2.4097246365071796
656.37931,,0.0038819752767978743,656.115,0.5419999957084656,-2.420315321745175
656.844828,,0.004630239915272176,656.58,0.5540000200271606,-2.3938338020041465
657.310345,,0.005167155871389127,657.045,0.5860000252723694,-2.323753364027844
657.7758620000001,,0.0048108645843635755,657.511,0.5699999928474426,-2.358232013861996
658.241379,,0.0035800050643025084,657.981,0.5649999976158142,-2.3687408876822538
658.7068969999999,,0.002138097178236977,658.443,0.5450000166893005,-2.4119375051792633
659.172414,,0.0011950519171728068,658.911,0.5789999961853027,-2.3375069342493404
659.637931,,0.0009318234531242413,659.373,0.46399998664855957,-2.5877270962559695
660.103448,,0.0009904125677279124,659.841,0.5659999847412109,-2.3652241466907857
660.568966,,0.0009223659197756611,660.303,0.5490000247955322,-2.4020314422429534
661.034483,,0.0005097807529954692,660.768,0.5669999718666077,-2.3626427515657276
661.5,,0.0003191419765847685,661.232,0.574999988079071,-2.3451018063677678
661.965517,,0.0016530347351431532,661.698,0.5540000200271606,-2.3908063652593983
662.4310340000001,,0.0033841345687809043,662.165,0.5519999861717224,-2.395183741577955
662.8965519999999,,0.004761043312540926,662.63,0.5709999799728394,-2.353876155152973
663.362069,,0.004579590399706238,663.097,0.5540000200271606,-2.391063808157132
663.827586,,0.0024250897328074884,663.555,0.574999988079071,-2.345522461285174
664.293103,,0.0003125649920892421,664.022,0.5540000200271606,-2.391537540751812
664.7586210000001,,0.0013481274283809507,664.488,0.5509999990463257,-2.398383034821705
665.224138,,0.00026594986752825916,664.955,0.5669999718666077,-2.363871221144489
665.689655,,0.003205997801554935,665.418,0.5540000200271606,-2.392566452694403
666.155172,,0.00535271648210572,665.881,0.5419999957084656,-2.4190988177514665
666.62069,,0.005792686310768792,666.351,0.5379999876022339,-2.4282066523375834
667.086207,,0.005209279272040433,666.811,0.5049999952316284,-2.500489057517919
667.5517239999999,,0.004771040485248859,667.281,0.5640000104904175,-2.372317868698181
668.017241,,0.0049712954537413055,667.747,0.5419999957084656,-2.420586910815032
668.482759,,0.0053739712108590715,668.211,0.5529999732971191,-2.396919089115879
668.948276,,0.005313200332159082,668.677,0.5189999938011169,-2.471240230095725
669.413793,,0.004852123989361488,669.137,0.550000011920929,-2.4038916276554416
669.87931,,0.004867058305310972,669.602,0.5709999799728394,-2.3582649765759096
670.3448279999999,,0.005930078148216453,670.071,0.5540000200271606,-2.3953568992458285
670.810345,,0.0073551531301904345,670.537,0.5669999718666077,-2.367017499276191
671.275862,,0.007857996993639312,671.0,0.5649999976158142,-2.3712856373435116
671.7413789999999,,0.007094461681730781,671.463,0.5830000042915344,-2.3319106602943127
672.206897,,0.006003968662223553,671.926,0.5540000200271606,-2.3948664950697145
672.672414,,0.005531880702989682,672.396,0.5699999928474426,-2.3597246412614004
673.137931,,0.005488087192499068,672.859,0.5669999718666077,-2.365927073458888
673.6034480000001,,0.004942444021782198,673.322,0.546999990940094,-2.4091267415795383
674.068966,,0.0035000061097858856,673.788,0.5429999828338623,-2.417440665443917
674.5344829999999,,0.0018501361559093523,674.25,0.5669999718666077,-2.364737381170062
675.0,,0.0009937939605504482,674.716,0.5460000038146973,-2.4100705612854245
675.465517,,0.0011172922821324788,675.181,0.5740000009536743,-2.3486601006161694
675.931034,,0.0014395345391173024,675.647,0.6060000061988831,-2.2785565578183613
676.396552,,0.0011005523343790788,676.112,0.5789999961853027,-2.337025787786015
676.862069,,0.00014161723650893786,676.578,0.5350000262260437,-2.432576869948365
677.327586,,0.00216725960827768,677.044,0.5659999847412109,-2.3647858135978126
677.793103,,0.004931676396252953,677.509,0.5630000233650208,-2.371132984429511
678.2586210000001,,0.008183421043648567,677.97,0.5460000038146973,-2.408051789149332
678.7241379999999,,0.011054898476600713,678.44,0.5460000038146973,-2.4080086957445395
679.1896549999999,,0.012600909932609835,678.9,0.5540000200271606,-2.3906134500533054
679.655172,,0.012843433090403146,679.37,0.5350000262260437,-2.4321181940873147
680.12069,,0.01282384229184593,679.833,0.5509999990463257,-2.3974438777635227
