Trial: ,50
Threshold: ,0.0
Maximum EMG: ,0.0
Success: ,True

EMG Time,Raw EMG,Filtered EMG,Force Time,Raw Force (V),Filtered Force (N)
0.0,samples,0.0,0.47,0.492000013589859,-2.526792432931445
0.46551699999999996,time,0.0,0.929,0.4749999940395355,-2.563506110135668
0.9310339999999999,value,0.0,1.399,0.48500001430511475,-2.5414460743663523
1.396552,,0.0,1.865,0.4729999899864197,-2.567375206569896
1.862069,,0.0,2.329,0.49000000953674316,-2.5301890553147732
2.327586,,0.0,2.794,0.49000000953674316,-2.530110095392914
2.793103,,0.0,3.254,0.46399998664855957,-2.5867490664018735
3.258621,,0.0,3.72,0.4830000102519989,-2.545422794610498
3.724138,,0.0,4.185,0.5,-2.508525563133049
4.189654999999999,,0.0,4.65,0.4869999885559082,-2.537054628178934
4.655172,,0.0,5.118,0.4830000102519989,-2.546036657280627
5.12069,,0.0,5.58,0.48500001430511475,-2.5419999787087235
5.586207,,0.0,6.048,0.5009999871253967,-2.5075053633555933
6.051723999999999,,0.0,6.51,0.492000013589859,-2.527508347157307
6.517241,,0.0,6.974,0.4860000014305115,-2.540994970466452
6.982759,,0.0,7.444,0.47600001096725464,-2.56320345829708
7.448276,,0.0,7.909,0.4880000054836273,-2.5374762274189
7.913793000000001,,0.0,8.373,0.47600001096725464,-2.564018113605258
8.379309999999998,,0.0,8.839,0.47600001096725464,-2.5643855808703626
8.844828000000001,,0.0,9.303,0.47699999809265137,-2.5625324546894435
9.310345,,0.0,9.768,0.4830000102519989,-2.549733603854564
9.775862,,0.0,10.233,0.46700000762939453,-2.5848039672975975
10.241379,,0.0,10.699,0.492000013589859,-2.5304817221655203
10.706897,,0.0,11.166,0.4950000047683716,-2.5240163092941597
11.172414,,0.0,11.624,0.48399999737739563,-2.547975573270603
11.637931,,0.0,12.092,0.4869999885559082,-2.5413574686610336
12.103447999999998,,0.0,12.555,0.47600001096725464,-2.565166609773364
12.568966000000001,,0.0,13.025,0.49799999594688416,-2.5170110881272114
13.034483,,0.0,13.488,0.5249999761581421,-2.4578985817237737
13.5,,0.0,13.954,0.49000000953674316,-2.5338064355012793
13.965517,,0.0,14.418,0.4959999918937683,-2.52034526204987
14.431034,,0.0,14.883,0.48500001430511475,-2.543889184749278
14.896552,,0.0,15.348,0.4790000021457672,-2.55652157980912
15.362069,,0.0,15.814,0.47600001096725464,-2.5626138192926335
15.827586000000002,,0.0,16.281,0.4819999933242798,-2.549108099269489
16.293103,,0.0,16.739,0.4749999940395355,-2.5639481704101295
16.758621,,0.0,17.204,0.4819999933242798,-2.5483234700070914
17.224138,,0.0,17.67,0.46799999475479126,-2.5784986453702543
17.689655,,0.0,18.14,0.47600001096725464,-2.5608023121580206
18.155172,,0.0,18.602,0.46700000762939453,-2.580210489830432
18.62069,,0.0,19.066,0.503000020980835,-2.5016527542650424
19.086207,,0.0,19.536,0.48500001430511475,-2.5408187373324385
19.551724,,0.0,20.0,0.492000013589859,-2.525596720390636
20.017241000000002,,0.0,20.462,0.48899999260902405,-2.5322389615587455
20.482758999999998,,0.0,20.928,0.550000011920929,-2.3995210708243566
20.948276,,0.0,21.39,0.5019999742507935,-2.5043429485554243
21.413793000000002,,0.0,21.856,0.4830000102519989,-2.5460444060065166
21.87931,,0.0,22.321,0.4880000054836273,-2.5355112774661146
22.344828,,0.0,22.787,0.4830000102519989,-2.5468069424881405
22.810344999999998,,0.0,23.255,0.48399999737739563,-2.54506093658275
23.275862,,0.0,23.72,0.4959999918937683,-2.5193665816427004
23.741379,,0.0,24.185,0.4860000014305115,-2.541605210705483
24.206897,,0.0,24.644,0.5049999952316284,-2.500651633281435
24.672414,,0.0,25.114,0.5400000214576721,-2.4248133649730716
25.137931,,0.0,25.576,0.4749999940395355,-2.5668006025815937
25.603448,,0.0,26.044,0.503000020980835,-2.5061234180403167
26.068966,,0.0,26.506,0.4860000014305115,-2.5434259716564367
26.534483,,0.0,26.97,0.4699999988079071,-2.578482317710071
27.0,,0.0,27.44,0.49000000953674316,-2.535033951857698
27.465517,,0.0,27.905,0.49000000953674316,-2.535080698995357
27.931034,,0.0,28.37,0.49399998784065247,-2.5263327723380193
28.396552,,0.0,28.835,0.4779999852180481,-2.561078480965042
28.862069,,0.0,29.3,0.45500001311302185,-2.6109994076785665
29.327586,,0.0,29.766,0.49000000953674316,-2.5344893753216913
29.793103000000002,,0.0,30.225,0.46299999952316284,-2.592993353519659
30.258620999999998,,0.0,30.691,0.47200000286102295,-2.573013258302187
30.724138,,0.0,31.156,0.4869999885559082,-2.5399195430110395
31.189655000000002,,0.0,31.622,0.48100000619888306,-2.5525473383656427
31.655172000000004,,0.0,32.084,0.49000000953674316,-2.532478449083356
32.12069,,0.0,32.554,0.492000013589859,-2.527656756649267
32.586207,,0.0,33.015,0.4819999933242798,-2.5489895876766693
33.051724,,0.0,33.484,0.4729999899864197,-2.568168764171874
33.517241000000006,,0.0,33.951,0.48500001430511475,-2.541634738595746
33.982759,,0.0,34.416,0.49000000953674316,-2.5304014943785655
34.448276,,0.0,34.874,0.48399999737739563,-2.5431938795293685
34.913793,,0.0,35.34,0.4779999852180481,-2.55605580636735
35.37931,,0.0,35.806,0.4690000116825104,-2.5755304074161063
35.844828,,0.0,36.27,0.4909999966621399,-2.527548275800687
36.310345,,0.0,36.735,0.45100000500679016,-2.6147257374788606
36.775862,,0.0,37.2,0.4650000035762787,-2.584339828581034
37.241378999999995,,0.0,37.666,0.4909999966621399,-2.5278904156214996
37.706897000000005,,0.0,38.129,0.4749999940395355,-2.5630179861478353
38.172414,,0.0,38.598,0.4950000047683716,-2.519779732010301
38.637931,,0.0,39.059,0.47200000286102295,-2.5702790713323584
39.103448,,0.0,39.529,0.4729999899864197,-2.5685353290269197
39.568965999999996,,0.0,39.992,0.47999998927116394,-2.553751352040472
40.034483,,0.0,40.454,0.49399998784065247,-2.5237338922150556
40.5,,0.0,40.92,0.4779999852180481,-2.5590779532677845
40.965517,,0.0,41.384,0.4779999852180481,-2.559551219900551
41.431034,,0.0,41.85,0.4860000014305115,-2.5425685437207486
41.896552,,0.0,42.315,0.5049999952316284,-2.5015796949355904
42.362069000000005,,0.0,42.781,0.47699999809265137,-2.562933420241034
42.827586000000004,,0.0,43.247,0.4729999899864197,-2.5719355413969933
43.293103,,0.0,43.713,0.48500001430511475,-2.546006619514694
43.758621,,0.0,44.178,0.49000000953674316,-2.535248427015494
44.224138,,0.0,44.643,0.47699999809265137,-2.563621463618385
44.689655,,0.0,45.107,0.4860000014305115,-2.5439780688069367
45.155172,,0.0,45.569,0.5049999952316284,-2.5024623816097176
45.620689999999996,,0.0,46.037,0.4880000054836273,-2.539295019668985
46.086206999999995,,0.0,46.499,0.48399999737739563,-2.547728536985032
46.551724,,0.0,46.967,0.48399999737739563,-2.547379496290688
47.017241,,0.0,47.429,0.48399999737739563,-2.5469729988756744
47.482759,,0.0,47.894,0.492000013589859,-2.529091864852161
47.948276,,0.0,48.363,0.49000000953674316,-2.5329652275259513
48.413793,,0.0,48.828,0.5059999823570251,-2.4976052058921465
48.879310000000004,,0.0,49.295,0.4819999933242798,-2.549388489460756
49.344828,,0.0,49.754,0.4729999899864197,-2.568505684767938
49.810345,,0.0,50.225,0.4779999852180481,-2.5571511767816495
50.275862,,0.0,50.684,0.4819999933242798,-2.5480187867953554
50.741379,,0.0,51.156,0.4860000014305115,-2.5389424855179454
51.206897,,0.0,51.615,0.4880000054836273,-2.5342905508228246
51.672414,,0.0,52.085,0.47999998927116394,-2.551501433901653
52.137931,,0.0,52.547,0.49000000953674316,-2.5295798311959814
52.603448,,0.0,53.01,0.5059999823570251,-2.4946735970461735
53.068966,,0.0,53.48,0.4699999988079071,-2.5731458472118605
53.534483,,0.0,53.939,0.48100000619888306,-2.54931034212241
54.0,,0.0,54.408,0.4740000069141388,-2.564776027058989
54.465517,,0.0,54.874,0.49399998784065247,-2.5214971110617386
54.931034,,0.0,55.334,0.46399998664855957,-2.587220717470519
55.396552,,0.0,55.8,0.4580000042915344,-2.6007167472077515
55.862069,,0.0,56.266,0.47200000286102295,-2.5706875835415444
56.327586,,0.0,56.732,0.48399999737739563,-2.54504847238396
56.793102999999995,,0.0,57.197,0.47999998927116394,-2.554284418835704
57.258621000000005,,0.0,57.662,0.4880000054836273,-2.5373769492589044
57.724138,,0.0,58.125,0.4740000069141388,-2.5683841873197566
58.189655,,0.0,58.595,0.4699999988079071,-2.577574152518054
58.655172,,0.0,59.058,0.48100000619888306,-2.554038995618499
59.120689999999996,,0.0,59.521,0.48899999260902405,-2.536980576194929
59.586207,,0.0,59.984,0.47999998927116394,-2.5568879386916272
60.051724,,0.0,60.454,0.44699999690055847,-2.6290029523001013
60.517241,,0.0,60.92,0.47999998927116394,-2.5572409659828574
60.982758999999994,,0.0,61.384,0.47999998927116394,-2.5572831233936086
61.448276,,0.0,61.85,0.46700000762939453,-2.585554357794254
61.913793,,0.0,62.315,0.492000013589859,-2.53094482460851
62.379310000000004,,0.0,62.781,0.4819999933242798,-2.5524994671602097
62.84482800000001,,0.0,63.24,0.5379999876022339,-2.4301802691395387
63.310345000000005,,0.0,63.706,0.4819999933242798,-2.5517953593307077
63.775862000000004,,0.0,64.17,0.49000000953674316,-2.5339151883763815
64.241379,,0.0,64.636,0.46700000762939453,-2.583526481038044
64.706897,,0.0,65.099,0.4880000054836273,-2.537246129177908
65.172414,,0.0,65.569,0.492000013589859,-2.5279875979142745
65.637931,,0.0,66.033,0.46799999475479126,-2.5797328600166525
66.103448,,0.0,66.495,0.492000013589859,-2.5269216636729643
66.56896599999999,,0.0,66.959,0.4819999933242798,-2.548219479374373
67.03448300000001,,0.0,67.429,0.5,-2.508564803292562
67.5,,0.0,67.894,0.47600001096725464,-2.56047691986462
67.965517,,0.0,68.359,0.4909999966621399,-2.5274975010700946
68.431034,,0.0,68.825,0.48100000619888306,-2.5490696776905732
68.896552,,0.0,69.284,0.49399998784065247,-2.520625245792622
69.362069,,0.0,69.75,0.47699999809265137,-2.557636672044096
69.827586,,0.0,70.215,0.4129999876022339,-2.6971438712248776
70.293103,,0.0,70.681,0.4129999876022339,-2.6973174768084114
70.75862099999999,,0.0,71.144,0.49900001287460327,-2.510221588645362
71.22413800000001,,0.0,71.614,0.48899999260902405,-2.5323592683358047
71.689655,,0.0,72.077,0.47600001096725464,-2.5611041103141035
72.15517200000001,,0.0,72.54,0.4880000054836273,-2.5354414390030056
72.62069,,0.0,73.007,0.49000000953674316,-2.531608734002831
73.086207,,0.0,73.469,0.4749999940395355,-2.5648402853889163
73.551724,,0.0,73.935,0.4129999876022339,-2.700480022667151
74.017241,,0.0,74.405,0.4860000014305115,-2.5419973939500378
74.482759,,0.0,74.871,0.47200000286102295,-2.5730337392513
74.94827599999999,,0.0,75.336,0.46700000762939453,-2.5844210654288875
75.41379300000001,,0.0,75.794,0.492000013589859,-2.530392086279655
75.87931,,0.0,76.259,0.4869999885559082,-2.541651185555141
76.344828,,0.0,76.725,0.49000000953674316,-2.5353975236256594
76.810345,,0.0,77.192,0.4749999940395355,-2.568267377483882
77.275862,,0.0,77.658,0.4749999940395355,-2.568359562769832
77.741379,,0.0,78.121,0.48399999737739563,-2.5487430252430916
78.206897,,0.0,78.584,0.4869999885559082,-2.542097215111854
78.67241399999999,,0.0,79.052,0.4860000014305115,-2.54406775386432
79.137931,,0.0,79.515,0.49799999594688416,-2.517623809306883
79.603448,,0.0,79.985,0.47999998927116394,-2.5564564538972694
80.068966,,0.0,80.447,0.5210000276565552,-2.466677418396688
80.53448300000001,,0.0,80.912,0.4819999933242798,-2.5511329610148237
81.0,,0.0,81.376,0.47999998927116394,-2.5549377242781097
81.465517,,0.0,81.841,0.4779999852180481,-2.55872006224283
81.931034,,0.0,82.306,0.5040000081062317,-2.50149551867811
82.396552,,0.0,82.772,0.47200000286102295,-2.5706460436534657
82.86206899999999,,0.0,83.237,0.4740000069141388,-2.565754447289381
83.327586,,0.0,83.703,0.47999998927116394,-2.552197644889708
83.79310299999999,,0.0,84.17,0.47600001096725464,-2.560491814590484
84.258621,,0.0,84.629,0.47600001096725464,-2.560149416131164
84.72413800000001,,0.0,85.096,0.4429999887943268,-2.6317920843778886
85.189655,,0.0,85.565,0.4880000054836273,-2.5335980883329605
85.65517200000001,,0.0,86.029,0.36399999260902405,-2.803700135767299
86.12069,,0.0,86.492,0.4819999933242798,-2.5466764663249917
86.586207,,0.0,86.962,0.492000013589859,-2.5250501022045864
87.051724,,0.0,87.425,0.5230000019073486,-2.4577670245722136
87.517241,,0.0,87.891,0.47099998593330383,-2.571398150193001
87.98275899999999,,0.0,88.351,0.49000000953674316,-2.530421578805044
88.448276,,0.0,88.816,0.4729999899864197,-2.567940331276334
88.913793,,0.0,89.281,0.49399998784065247,-2.522718918784554
89.37931,,0.0,89.747,0.47200000286102295,-2.5712111626769896
89.844828,,0.0,90.214,0.47600001096725464,-2.5630729799692458
90.310345,,0.0,90.68,0.4819999933242798,-2.5505740038056683
90.775862,,0.0,91.14,0.4880000054836273,-2.538052977006009
91.241379,,0.0,91.61,0.48500001430511475,-2.5451002163493204
91.706897,,0.0,92.074,0.4880000054836273,-2.539019905931506
92.17241399999999,,0.0,92.536,0.4749999940395355,-2.567728203068279
92.63793100000001,,0.0,92.999,0.5239999890327454,-2.461277891627317
93.103448,,0.0,93.469,0.46799999475479126,-2.5834933884287525
93.568966,,0.0,93.935,0.49000000953674316,-2.5356761378282346
94.03448300000001,,0.0,94.398,0.49000000953674316,-2.535687922572328
94.5,,0.0,94.864,0.4880000054836273,-2.5399551309105783
94.965517,,0.0,95.328,0.4950000047683716,-2.5245155302072773
95.431034,,0.0,95.794,0.4729999899864197,-2.5721641140315428
95.896552,,0.0,96.259,0.4779999852180481,-2.560906077071214
96.36206899999999,,0.0,96.724,0.492000013589859,-2.52996861164888
96.827586,,0.0,97.185,0.4869999885559082,-2.5403673771494364
97.293103,,0.0,97.651,0.47200000286102295,-2.5725101635569363
97.758621,,0.0,98.114,0.515999972820282,-2.476087128445442
98.224138,,0.0,98.584,0.47699999809265137,-2.5604833400633646
98.689655,,0.0,99.045,0.49000000953674316,-2.531599689199961
99.155172,,0.0,99.515,0.4830000102519989,-2.546316960866216
99.62069,,0.0,99.978,0.44999998807907104,-2.6177244841425718
100.086207,,0.0,100.439,0.4959999918937683,-2.517079793143922
100.551724,,0.0,100.905,0.46700000762939453,-2.579907672522049
101.017241,,0.0,101.373,0.46799999475479126,-2.5774612184208334
101.482759,,0.0,101.839,0.48500001430511475,-2.5402498350234737
101.948276,,0.0,102.304,0.4749999940395355,-2.561960415011249
102.413793,,0.0,102.77,0.4690000116825104,-2.575057005934224
102.87931,,0.0,103.229,0.47999998927116394,-2.551216537227273
103.344828,,0.0,103.695,0.48100000619888306,-2.549257887975999
103.810345,,0.0,104.159,0.46299999952316284,-2.5887819734823703
104.275862,,0.0,104.625,0.4860000014305115,-2.5390600633573897
104.741379,,0.0,105.095,0.4729999899864197,-2.5678355207694374
105.206897,,0.0,105.558,0.48399999737739563,-2.5443747225111553
105.672414,,0.0,106.021,0.503000020980835,-2.5035195059681272
106.13793100000001,,0.0,106.484,0.4729999899864197,-2.569435599818476
106.603448,,0.0,106.95,0.5049999952316284,-2.5002753484829054
107.068966,,0.0,107.415,0.47099998593330383,-2.5748884655189297
107.534483,,0.0,107.881,0.4909999966621399,-2.5318203758789837
108.0,,0.0,108.348,0.46700000762939453,-2.5845633140922084
108.46551699999999,,0.0,108.814,0.49000000953674316,-2.53484613493365
108.931034,,0.0,109.281,0.4819999933242798,-2.552591086072053
109.396552,,0.0,109.739,0.4880000054836273,-2.539748875555437
109.862069,,0.0,110.205,0.4880000054836273,-2.5398855027814076
110.32758600000001,,0.0,110.671,0.49000000953674316,-2.535567541436713
110.793103,,0.0,111.14,0.46799999475479126,-2.5834392890712827
111.258621,,0.0,111.602,0.47200000286102295,-2.5745710148761067
111.724138,,0.0,112.066,0.4970000088214874,-2.5198608917000818
112.189655,,0.0,112.536,0.4779999852180481,-2.560928413865875
112.655172,,0.0,113.0,0.4650000035762787,-2.5888519303307738
113.12069,,0.0,113.462,0.49399998784065247,-2.525213244894248
113.586207,,0.0,113.927,0.47999998927116394,-2.5552113734581994
114.051724,,0.0,114.391,0.47600001096725464,-2.563393859771426
114.51724100000001,,0.0,114.856,0.49000000953674316,-2.532348536243002
114.982759,,0.0,115.325,0.46799999475479126,-2.5797395266338223
115.448276,,0.0,115.791,0.49000000953674316,-2.5312918763828316
115.913793,,0.0,116.255,0.4880000054836273,-2.535169660611341
116.37931,,0.0,116.721,0.47200000286102295,-2.569601282115166
116.84482799999999,,0.0,117.186,0.4650000035762787,-2.5844918626026443
117.310345,,0.0,117.644,0.47600001096725464,-2.560245056763561
117.77586199999999,,0.0,118.114,0.4650000035762787,-2.5840154472936883
118.241379,,0.0,118.576,0.4860000014305115,-2.538161616208786
118.70689700000001,,0.0,119.044,0.49000000953674316,-2.5294396482867114
119.172414,,0.0,119.506,0.4819999933242798,-2.5469559375743724
119.63793100000001,,0.0,119.97,0.503000020980835,-2.501382559940583
120.103448,,0.0,120.439,0.4830000102519989,-2.54521905740378
120.568966,,0.0,120.906,0.46299999952316284,-2.589133003345234
121.034483,,0.0,121.366,0.4819999933242798,-2.5481469778625128
121.5,,0.0,121.831,0.4959999918937683,-2.518107991290045
121.96551699999999,,0.0,122.296,0.492000013589859,-2.5273230251704346
122.431034,,0.0,122.762,0.4690000116825104,-2.5779553833163082
122.896552,,0.0,123.229,0.492000013589859,-2.528376873794876
123.362069,,0.0,123.695,0.47200000286102295,-2.572470636966212
123.827586,,0.0,124.159,0.49000000953674316,-2.5337497157464166
124.293103,,0.0,124.625,0.4779999852180481,-2.5603468510183904
124.758621,,0.0,125.088,0.4729999899864197,-2.5716379892743872
125.22413800000001,,0.0,125.55,0.47999998927116394,-2.5567178914603965
125.68965500000002,,0.0,126.018,0.4819999933242798,-2.552613143034815
126.15517200000001,,0.0,126.48,0.47600001096725464,-2.5658518072958154
126.62069000000001,,0.0,126.946,0.4779999852180481,-2.561570694559295
127.086207,,0.0,127.409,0.47600001096725464,-2.565911230239108
127.55172400000001,,0.0,127.875,0.49399998784065247,-2.5265864223832293
128.017241,,0.0,128.34,0.4779999852180481,-2.5612464080301103
128.48275900000002,,0.0,128.806,0.4740000069141388,-2.56968001472473
128.948276,,0.0,129.27,0.47600001096725464,-2.5649685807355724
129.413793,,0.0,129.735,0.48399999737739563,-2.5471231652068402
129.87931,,0.0,130.2,0.47200000286102295,-2.5728015868145655
130.344828,,0.0,130.666,0.4779999852180481,-2.5592300987084515
130.81034499999998,,0.0,131.129,0.503000020980835,-2.504245108536356
131.275862,,0.0,131.599,0.4959999918937683,-2.518973341805699
131.741379,,0.0,132.062,0.515999972820282,-2.474890149747278
132.206897,,0.0,132.525,0.5019999742507935,-2.5049088046415697
132.67241399999997,,0.0,132.996,0.4860000014305115,-2.5393281792771
133.13793099999998,,0.0,133.458,0.4690000116825104,-2.5759847644739575
133.60344800000001,,0.0,133.923,0.4790000021457672,-2.553889156632617
134.06896600000002,,0.0,134.387,0.47200000286102295,-2.568911679892771
134.53448300000002,,0.0,134.853,0.4699999988079071,-2.573129358133104
135.0,,0.0,135.318,0.492000013589859,-2.525151944338239
135.465517,,0.0,135.784,0.49000000953674316,-2.5295553432941635
135.931034,,0.0,136.244,0.4880000054836273,-2.5340501029578393
136.396552,,0.0,136.709,0.5139999985694885,-2.477629279848512
136.862069,,0.0,137.174,0.49000000953674316,-2.5302198824544115
137.327586,,0.0,137.64,0.4819999933242798,-2.548022166885685
137.793103,,0.0,138.11,0.4729999899864197,-2.568062261435544
138.258621,,0.0,138.573,0.49000000953674316,-2.531503176886822
138.724138,,0.0,139.036,0.5210000276565552,-2.4644726537879245
139.189655,,0.0,139.499,0.4779999852180481,-2.558675307579436
139.655172,,0.0,139.97,0.46299999952316284,-2.59187361751344
140.12069,,0.0,140.432,0.5009999871253967,-2.509585898700798
140.586207,,0.0,140.898,0.4869999885559082,-2.540553598787238
141.05172399999998,,0.0,141.363,0.48500001430511475,-2.5453283158475797
141.51724099999998,,0.0,141.828,0.4749999940395355,-2.5674705803530813
141.982759,,0.0,142.293,0.4880000054836273,-2.5394310643656675
142.44827600000002,,0.0,142.758,0.48500001430511475,-2.546167991784912
142.913793,,0.0,143.225,0.4819999933242798,-2.5528165979850335
143.37931,,0.0,143.691,0.47999998927116394,-2.5571947483758266
143.844828,,0.0,144.156,0.49000000953674316,-2.5353365150803207
144.310345,,0.0,144.615,0.4729999899864197,-2.572211527196646
144.77586200000002,,0.0,145.084,0.48399999737739563,-2.5479991977718863
145.241379,,0.0,145.547,0.492000013589859,-2.530245140510001
145.706897,,0.0,146.015,0.47600001096725464,-2.5647109767187777
146.172414,,0.0,146.478,0.5120000243186951,-2.4858313358222324
146.637931,,0.0,146.943,0.4740000069141388,-2.568129828578896
147.103448,,0.0,147.406,0.49000000953674316,-2.532755080942714
147.568966,,0.0,147.872,0.4880000054836273,-2.536586277930518
148.034483,,0.0,148.336,0.49000000953674316,-2.531709398109676
148.5,,0.0,148.802,0.4869999885559082,-2.537748748759909
148.965517,,0.0,149.267,0.4729999899864197,-2.56779213287198
149.43103399999998,,0.0,149.733,0.46399998664855957,-2.5869964305093087
149.89655199999999,,0.0,150.2,0.4909999966621399,-2.5278363176511527
150.362069,,0.0,150.665,0.47699999809265137,-2.5580778819877668
150.82758600000003,,0.0,151.126,0.4729999899864197,-2.5666183126790654
151.293103,,0.0,151.595,0.45899999141693115,-2.5970367428348724
151.758621,,0.0,152.058,0.4790000021457672,-2.5534754471452783
152.224138,,0.0,152.521,0.47600001096725464,-2.560116646395465
152.68965500000002,,0.0,152.989,0.4880000054836273,-2.534167870857809
153.155172,,0.0,153.451,0.5080000162124634,-2.4908726693245087
153.62069,,0.0,153.917,0.49000000953674316,-2.530439598508912
154.086207,,0.0,154.383,0.48100000619888306,-2.5504615488226112
154.551724,,0.0,154.849,0.44699999690055847,-2.625000950976346
155.017241,,0.0,155.314,0.4880000054836273,-2.536178904996478
155.482759,,0.0,155.779,0.46299999952316284,-2.591168788934359
155.948276,,0.0,156.244,0.47600001096725464,-2.5633744433062255
156.413793,,0.0,156.71,0.4790000021457672,-2.557354379381469
156.87931,,0.0,157.17,0.4950000047683716,-2.5229826476960073
157.34482799999998,,0.0,157.636,0.48399999737739563,-2.547389439693525
157.81034499999998,,0.0,158.099,0.6060000061988831,-2.2819747109334174
158.275862,,0.0,158.569,0.4790000021457672,-2.5589686135909293
158.741379,,0.0,159.033,0.47999998927116394,-2.5570133731575457
159.20689700000003,,0.0,159.495,0.5040000081062317,-2.5048621493136585
159.672414,,0.0,159.963,0.48100000619888306,-2.5550159453765238
160.137931,,0.0,160.425,0.4869999885559082,-2.541896516766481
160.60344800000001,,0.0,160.89,0.492000013589859,-2.5308650307258715
161.06896600000002,,0.0,161.355,0.46799999475479126,-2.582928537830648
161.534483,,0.0,161.821,0.492000013589859,-2.530338429111038
162.0,,0.0,162.288,0.4729999899864197,-2.5713614910648896
162.465517,,0.0,162.754,0.4959999918937683,-2.5208239662369696
162.931034,,0.0,163.218,0.47600001096725464,-2.5639244296204993
163.396552,,0.0,163.684,0.46299999952316284,-2.591745926540623
163.862069,,0.0,164.147,0.5049999952316284,-2.4997289721264715
164.327586,,0.0,164.609,0.48500001430511475,-2.5427905740888423
164.793103,,0.0,165.077,0.4779999852180481,-2.5575482272178576
165.258621,,0.0,165.54,0.47699999809265137,-2.5592682745555324
165.72413799999998,,0.0,166.01,0.48500001430511475,-2.5414291001775817
166.189655,,0.0,166.473,0.48399999737739563,-2.543258882451941
166.655172,,0.0,166.939,0.4740000069141388,-2.564768308962108
167.12069,,0.0,167.401,0.4690000116825104,-2.575465320266169
167.58620699999997,,0.0,167.867,0.49000000953674316,-2.529604190981978
168.051724,,0.0,168.333,0.4740000069141388,-2.5644426082051632
168.517241,,0.0,168.798,0.48500001430511475,-2.5405473880359946
168.98275900000002,,0.0,169.263,0.47600001096725464,-2.560312730319604
169.44827600000002,,0.0,169.729,0.4909999966621399,-2.5278727778657246
169.913793,,0.0,170.195,0.47999998927116394,-2.5521520746416746
170.37931,,0.0,170.654,0.492000013589859,-2.526386675402058
170.844828,,0.0,171.122,0.492000013589859,-2.5268172273857825
171.310345,,0.0,171.584,0.47600001096725464,-2.562144820527302
171.775862,,0.0,172.055,0.4869999885559082,-2.538673273850952
172.241379,,0.0,172.518,0.492000013589859,-2.5282822450764577
172.706897,,0.0,172.981,0.4880000054836273,-2.537491895491414
173.172414,,0.0,173.451,0.492000013589859,-2.5292496934708413
173.637931,,0.0,173.909,0.48500001430511475,-2.5449354677969316
174.103448,,0.0,174.381,0.4830000102519989,-2.5496776370580765
174.568966,,0.0,174.839,0.48500001430511475,-2.545643180178736
175.034483,,0.0,175.304,0.4830000102519989,-2.5502514696029657
175.5,,0.0,175.769,0.4690000116825104,-2.5809243649597207
175.96551699999998,,0.0,176.237,0.5669999718666077,-2.3675030575859406
176.43103399999998,,0.0,176.703,0.49000000953674316,-2.5352552219083107
176.896552,,0.0,177.17,0.46799999475479126,-2.583093715187972
177.36206900000002,,0.0,177.636,0.46399998664855957,-2.5916339776819837
177.827586,,0.0,178.099,0.4429999887943268,-2.6371354110518763
178.293103,,0.0,178.562,0.49000000953674316,-2.5344208009998948
178.758621,,0.0,179.025,0.47600001096725464,-2.56454490742837
179.224138,,0.0,179.495,0.47600001096725464,-2.5641204398107433
179.68965500000002,,0.0,179.954,0.48399999737739563,-2.546232650444217
180.155172,,0.0,180.425,0.45399999618530273,-2.611113832257181
180.62069,,0.0,180.89,0.5040000081062317,-2.5016981830655656
181.086207,,0.0,181.356,0.4729999899864197,-2.568762459672131
181.551724,,0.0,181.814,0.49000000953674316,-2.5312752107251923
182.01724099999998,,0.0,182.281,0.47600001096725464,-2.5613638320662977
182.482759,,0.0,182.747,0.47600001096725464,-2.5610018607482483
182.948276,,0.0,183.214,0.492000013589859,-2.525842944710223
183.413793,,0.0,183.68,0.47200000286102295,-2.5691857252993886
183.87931,,0.0,184.144,0.47099998593330383,-2.571211832581494
184.34482799999998,,0.0,184.607,0.49399998784065247,-2.5210324183316923
184.81034499999998,,0.0,185.07,0.4729999899864197,-2.566797149016632
185.27586200000002,,0.0,185.539,0.47600001096725464,-2.5603574892712495
185.74137900000002,,0.0,186.0,0.47999998927116394,-2.551819504415846
186.206897,,0.0,186.47,0.47200000286102295,-2.5694997346788973
186.672414,,0.0,186.929,0.4740000069141388,-2.565460224189735
187.137931,,0.0,187.399,0.49000000953674316,-2.5309761354943396
187.60344800000001,,0.0,187.865,0.492000013589859,-2.5270372561755963
188.06896600000002,,0.0,188.33,0.47600001096725464,-2.5623451052268615
188.534483,,0.0,188.796,0.47600001096725464,-2.562812228472301
189.0,,0.0,189.254,0.4950000047683716,-2.52188822056794
189.465517,,0.0,189.72,0.49000000953674316,-2.5332398715282163
189.931034,,0.0,190.185,0.4860000014305115,-2.5423868635965414
190.39655199999999,,0.0,190.651,0.4909999966621399,-2.5318869357904625
190.862069,,0.0,191.114,0.49399998784065247,-2.525693153998723
191.327586,,0.0,191.584,0.48100000619888306,-2.554296280915533
191.793103,,0.0,192.044,0.47600001096725464,-2.5654009849914083
192.25862099999998,,0.0,192.514,0.48500001430511475,-2.54592939629239
192.72413799999998,,0.0,192.977,0.47699999809265137,-2.563415695758687
193.189655,,0.0,193.44,0.4830000102519989,-2.550320212988577
193.655172,,0.0,193.905,0.47699999809265137,-2.5632889899121465
194.12069000000002,,0.0,194.37,0.4300000071525574,-2.66550717878855
194.586207,,0.0,194.835,0.46700000762939453,-2.5846505514543163
195.051724,,0.0,195.3,0.47200000286102295,-2.5734495013251175
195.517241,,0.0,195.766,0.4819999933242798,-2.5513024245956935
195.98275900000002,,0.0,196.232,0.46399998664855957,-2.590115650024913
196.448276,,0.0,196.698,0.4950000047683716,-2.5221453355308476
196.913793,,0.0,197.163,0.492000013589859,-2.5282318380127826
197.37931,,0.0,197.629,0.4860000014305115,-2.540850379258969
197.844828,,0.0,198.092,0.47600001096725464,-2.562193781172446
198.310345,,0.0,198.555,0.3869999945163727,-2.755676458419498
198.775862,,0.0,199.026,0.4749999940395355,-2.563578586787176
199.241379,,0.0,199.488,0.492000013589859,-2.5262144760743284
199.706897,,0.0,199.959,0.4779999852180481,-2.5564459606290653
200.172414,,0.0,200.414,0.47999998927116394,-2.551884449299624
200.63793099999998,,0.0,200.88,0.4880000054836273,-2.5343224645715203
201.103448,,0.0,201.344,0.4860000014305115,-2.538621958828768
201.568966,,0.0,201.809,0.49000000953674316,-2.5299258709777215
202.034483,,0.0,202.277,0.47999998927116394,-2.5518066181496244
202.5,,0.0,202.743,0.44600000977516174,-2.6260484895035603
202.965517,,0.0,203.207,0.4749999940395355,-2.563104880882058
203.431034,,0.0,203.673,0.47200000286102295,-2.569939632072966
203.896552,,0.0,204.136,0.4779999852180481,-2.5572185182408016
204.36206900000002,,0.0,204.599,0.4690000116825104,-2.5772182425756793
204.827586,,0.0,205.067,0.48100000619888306,-2.5514956529216204
205.293103,,0.0,205.529,0.46799999475479126,-2.580255718082569
205.758621,,0.0,205.999,0.47200000286102295,-2.5719820327284393
206.224138,,0.0,206.462,0.4690000116825104,-2.578949024882482
206.689655,,0.0,206.927,0.4819999933242798,-2.551034592422519
207.155172,,0.0,207.39,0.4950000047683716,-2.523084026624026
207.62069,,0.0,207.855,0.46799999475479126,-2.5822320193572006
208.086207,,0.0,208.322,0.46399998664855957,-2.5912147751038264
208.551724,,0.0,208.788,0.4819999933242798,-2.5522032713116927
209.01724099999998,,0.0,209.254,0.46700000762939453,-2.5850168912634173
209.482759,,0.0,209.72,0.4779999852180481,-2.5611115555799584
209.948276,,0.0,210.181,0.4819999933242798,-2.55238069308989
210.413793,,0.0,210.646,0.5239999890327454,-2.460784702323682
210.87930999999998,,0.0,211.115,0.48899999260902405,-2.5368702183951504
211.344828,,0.0,211.577,0.48899999260902405,-2.536634389341315
211.810345,,0.0,212.04,0.46399998664855957,-2.5908047189231747
212.27586200000002,,0.0,212.51,0.47200000286102295,-2.5730295067990125
212.741379,,0.0,212.974,0.49399998784065247,-2.5247136683869944
213.206897,,0.0,213.436,0.4009999930858612,-2.726915469435562
213.672414,,0.0,213.902,0.4869999885559082,-2.5391261602845203
214.137931,,0.0,214.367,0.4819999933242798,-2.5495924912506576
214.60344800000001,,0.0,214.832,0.4620000123977661,-2.5927489087787
215.068966,,0.0,215.299,0.4830000102519989,-2.546604068130991
215.534483,,0.0,215.765,0.4729999899864197,-2.5680322149362325
216.0,,0.0,216.23,0.46700000762939453,-2.5807912356941998
216.465517,,0.0,216.695,0.4749999940395355,-2.5631042752217694
216.93103399999998,,0.0,217.155,0.4729999899864197,-2.5672662024394075
217.39655199999999,,0.0,217.621,0.4819999933242798,-2.5475307608317985
217.862069,,0.0,218.089,0.47600001096725464,-2.5605461886589134
218.327586,,0.0,218.551,0.4690000116825104,-2.575813068334798
218.793103,,0.0,219.014,0.4659999907016754,-2.5824378225854305
219.25862099999998,,0.0,219.484,0.4659999907016754,-2.5825962978182804
219.724138,,0.0,219.951,0.4950000047683716,-2.5196380927201507
220.18965500000002,,0.0,220.416,0.4690000116825104,-2.576562232495878
220.65517200000002,,0.0,220.874,0.48100000619888306,-2.5507459391161467
221.12069,,0.0,221.34,0.492000013589859,-2.527146292476096
221.586207,,0.0,221.806,0.49000000953674316,-2.53189543662665
222.051724,,0.0,222.271,0.4880000054836273,-2.5366589978783876
222.517241,,0.0,222.736,0.4779999852180481,-2.5588543375236146
222.98275900000002,,0.0,223.203,0.46700000762939453,-2.5832192262134557
223.448276,,0.0,223.669,0.49399998784065247,-2.5247747687112683
223.913793,,0.0,224.129,0.48500001430511475,-2.5447289922550493
224.37931,,0.0,224.599,0.47200000286102295,-2.5733552209996016
224.844828,,0.0,225.059,0.4449999928474426,-2.6324321831134827
225.31034499999998,,0.0,225.529,0.5249999761581421,-2.4583357706116935
225.775862,,0.0,225.992,0.4880000054836273,-2.539075917001666
226.241379,,0.0,226.455,0.49000000953674316,-2.534779759153517
226.706897,,0.0,226.92,0.47999998927116394,-2.5565577291004224
227.172414,,0.0,227.384,0.4779999852180481,-2.5608377415544843
227.63793099999998,,0.0,227.85,0.47699999809265137,-2.5628732751214685
228.103448,,0.0,228.315,0.492000013589859,-2.529989006850746
228.56896600000002,,0.0,228.781,0.4650000035762787,-2.5885530054604446
229.03448300000002,,0.0,229.247,0.515999972820282,-2.477135119689252
229.5,,0.0,229.713,0.48399999737739563,-2.5465062711593847
229.965517,,0.0,230.178,0.48500001430511475,-2.543954005124207
230.431034,,0.0,230.643,0.4790000021457672,-2.556636307062817
230.896552,,0.0,231.107,0.492000013589859,-2.5279198625839583
231.362069,,0.0,231.569,0.4860000014305115,-2.54060497260032
231.827586,,0.0,232.04,0.48899999260902405,-2.53370084737031
232.293103,,0.0,232.503,0.48100000619888306,-2.5507914976300894
232.758621,,0.0,232.971,0.47600001096725464,-2.5613862201577113
233.224138,,0.0,233.433,0.4749999940395355,-2.5633154804360365
233.689655,,0.0,233.899,0.5370000004768372,-2.428045056178799
234.155172,,0.0,234.366,0.4830000102519989,-2.5455574540032626
234.62069,,0.0,234.824,0.49000000953674316,-2.530236303645761
235.086207,,0.0,235.289,0.48399999737739563,-2.54330439758891
235.55172399999998,,0.0,235.754,0.4749999940395355,-2.562975349259625
236.01724099999998,,0.0,236.221,0.4749999940395355,-2.563103710183187
236.482759,,0.0,236.687,0.3970000147819519,-2.7332294679816274
236.94827600000002,,0.0,237.159,0.49000000953674316,-2.5308642256350637
237.413793,,0.0,237.618,0.46399998664855957,-2.5878068856280185
237.87931,,0.0,238.08,0.47200000286102295,-2.5707137710712975
238.344828,,0.0,238.55,0.47699999809265137,-2.5601846910626063
238.810345,,0.0,239.011,0.46799999475479126,-2.5801733214772695
239.27586200000002,,0.0,239.481,0.4699999988079071,-2.576201919382537
239.741379,,0.0,239.94,0.492000013589859,-2.528650505216472
240.206897,,0.0,240.41,0.4690000116825104,-2.5791193705906985
240.672414,,0.0,240.875,0.48500001430511475,-2.544591192474193
241.137931,,0.0,241.341,0.4749999940395355,-2.5666683293839996
241.603448,,0.0,241.799,0.4729999899864197,-2.571268079695842
242.068966,,0.0,242.266,0.46700000762939453,-2.5845274573169332
242.534483,,0.0,242.731,0.460999995470047,-2.597726915491484
243.0,,0.0,243.196,0.4490000009536743,-2.6239352075500575
243.465517,,0.0,243.661,0.46399998664855957,-2.591255574943092
243.93103399999998,,0.0,244.129,0.46299999952316284,-2.5933697498647073
244.39655199999999,,0.0,244.591,0.5049999952316284,-2.501738666960304
244.862069,,0.0,245.059,0.49000000953674316,-2.534229997514635
245.327586,,0.0,245.521,0.46799999475479126,-2.581917534933424
245.793103,,0.0,245.989,0.4690000116825104,-2.5794503877612143
246.258621,,0.0,246.451,0.46399998664855957,-2.59001901302571
246.724138,,0.0,246.916,0.4830000102519989,-2.5482736088756743
247.18965500000002,,0.0,247.383,0.46700000762939453,-2.582765142227574
247.655172,,0.0,247.849,0.4959999918937683,-2.519212606175215
248.12069,,0.0,248.314,0.4699999988079071,-2.5754919235906457
248.586207,,0.0,248.78,0.4690000116825104,-2.57732280154586
249.051724,,0.0,249.244,0.49300000071525574,-2.52471596091497
249.517241,,0.0,249.71,0.4880000054836273,-2.535327265626925
249.982759,,0.0,250.17,0.49000000953674316,-2.5307336032284797
250.44827600000002,,0.0,250.635,0.46399998664855957,-2.5871953893047652
250.913793,,0.0,251.103,0.47699999809265137,-2.5587491765001484
251.37931000000003,,0.0,251.565,0.4749999940395355,-2.5630458213167753
251.844828,,0.0,252.029,0.5019999742507935,-2.5042257853375443
252.31034499999998,,0.0,252.499,0.4830000102519989,-2.545686729918377
252.77586200000002,,0.0,252.963,0.4880000054836273,-2.534921361660518
253.241379,,0.0,253.425,0.4690000116825104,-2.57650123906163
253.706897,,0.0,253.89,0.4880000054836273,-2.5353446557453263
254.172414,,0.0,254.356,0.4909999966621399,-2.5290908850910587
254.63793099999998,,0.0,254.821,0.47600001096725464,-2.5620882929481814
255.10344800000001,,0.0,255.288,0.4779999852180481,-2.5580750123023135
255.56896600000002,,0.0,255.754,0.45500001311302185,-2.6085442062385336
256.03448299999997,,0.0,256.214,0.48399999737739563,-2.5457293366360205
256.5,,0.0,256.68,0.4950000047683716,-2.5221236255622377
256.965517,,0.0,257.144,0.47600001096725464,-2.5638593119146176
257.431034,,0.0,257.614,0.4699999988079071,-2.5772447092538284
257.896552,,0.0,258.077,0.46299999952316284,-2.592771992068463
258.362069,,0.0,258.54,0.47999998927116394,-2.5559665961507423
258.827586,,0.0,259.01,0.49799999594688416,-2.516929480947375
259.29310300000003,,0.0,259.473,0.4180000126361847,-2.6913420010445153
259.758621,,0.0,259.939,0.48899999260902405,-2.536718252920198
260.224138,,0.0,260.402,0.5090000033378601,-2.4931418378947803
260.689655,,0.0,260.867,0.46700000762939453,-2.584576774765058
261.155172,,0.0,261.333,0.47200000286102295,-2.573553513258629
261.62068999999997,,0.0,261.799,0.5640000104904175,-2.372928925579041
262.086207,,0.0,262.259,0.47699999809265137,-2.562227726297214
262.551724,,0.0,262.725,0.48399999737739563,-2.5466876279671884
263.017241,,0.0,263.192,0.4819999933242798,-2.5507200112591955
263.482759,,0.0,263.658,0.47600001096725464,-2.5634417926756337
263.94827599999996,,0.0,264.119,0.48100000619888306,-2.5521844210077624
264.413793,,0.0,264.588,0.4790000021457672,-2.5561748298249514
264.87931,,0.0,265.051,0.47699999809265137,-2.5601738910020435
265.34482799999995,,0.0,265.521,0.48500001430511475,-2.5424061337390955
265.810345,,0.0,265.981,0.47200000286102295,-2.570420238424545
266.27586199999996,,0.0,266.451,0.47200000286102295,-2.570151892669413
266.741379,,0.0,266.909,0.49000000953674316,-2.530716008191503
267.206897,,0.0,267.38,0.4880000054836273,-2.534907383181347
267.672414,,0.0,267.846,0.5009999871253967,-2.506477838079756
268.137931,,0.0,268.304,0.47200000286102295,-2.569613600755825
268.603448,,0.0,268.77,0.47200000286102295,-2.5696328474668237
269.06896600000005,,0.0,269.236,0.46799999475479126,-2.5784309270325654
269.53448299999997,,0.0,269.703,0.48500001430511475,-2.541538674484084
270.0,,0.0,270.17,0.4860000014305115,-2.5395610591150355
270.465517,,0.0,270.635,0.4650000035762787,-2.5855635692363554
270.931034,,0.0,271.099,0.47999998927116394,-2.5531772231555556
271.396552,,0.0,271.562,0.48899999260902405,-2.5338956790163487
271.86206899999996,,0.0,272.03,0.4699999988079071,-2.5756387791223707
272.327586,,0.0,272.492,0.4699999988079071,-2.575999680552101
272.793103,,0.0,272.959,0.47600001096725464,-2.563289765975638
273.258621,,0.0,273.421,0.47999998927116394,-2.554926736804649
273.724138,,0.0,273.887,0.49000000953674316,-2.5334698276149625
274.18965499999996,,0.0,274.352,0.492000013589859,-2.529409515055706
274.655172,,0.0,274.817,0.4699999988079071,-2.577595139648126
275.12069,,0.0,275.284,0.46700000762939453,-2.5843376567084313
275.586207,,0.0,275.75,0.4860000014305115,-2.5430950158395675
276.051724,,0.0,276.214,0.49000000953674316,-2.5344717975333855
276.517241,,0.0,276.68,0.47200000286102295,-2.5737156829625465
276.98275900000004,,0.0,277.14,0.5669999718666077,-2.3667070971062065
277.448276,,0.0,277.61,0.492000013589859,-2.5300030580501245
277.913793,,0.0,278.073,0.4880000054836273,-2.5385539136841095
278.37931,,0.0,278.536,0.47600001096725464,-2.5644799952106943
278.844828,,0.0,279.004,0.47999998927116394,-2.555501340836496
279.31034500000004,,0.0,279.466,0.47699999809265137,-2.561735389510367
279.77586199999996,,0.0,279.932,0.4650000035762787,-2.5875494133281034
280.241379,,0.0,280.395,0.47200000286102295,-2.571952065739531
280.706897,,0.0,280.86,0.48899999260902405,-2.534561756566491
281.172414,,0.0,281.325,0.4909999966621399,-2.5298549162615744
281.637931,,0.0,281.791,0.47999998927116394,-2.5534850124420263
282.10344799999996,,0.0,282.256,0.4699999988079071,-2.5749618651939157
282.568966,,0.0,282.722,0.47999998927116394,-2.552901178948653
283.034483,,0.0,283.188,0.4819999933242798,-2.5483132460820523
283.5,,0.0,283.654,0.47600001096725464,-2.5612049207847134
283.965517,,0.0,284.118,0.4860000014305115,-2.5392941049982
284.431034,,0.0,284.58,0.46399998664855957,-2.587159688548821
284.89655200000004,,0.0,285.044,0.4950000047683716,-2.5196181999989347
285.362069,,0.0,285.514,0.46399998664855957,-2.587214092050598
285.827586,,0.0,285.977,0.48899999260902405,-2.5328646345117267
286.293103,,0.0,286.439,0.5,-2.509070823005272
286.758621,,0.0,286.905,0.49000000953674316,-2.5310768954481575
287.22413800000004,,0.0,287.369,0.48500001430511475,-2.542231183401202
287.689655,,0.0,287.835,0.4699999988079071,-2.575205808994968
288.155172,,0.0,288.299,0.47200000286102295,-2.571168453659145
288.62069,,0.0,288.766,0.47200000286102295,-2.571503632981761
289.086207,,0.0,289.232,0.47699999809265137,-2.560950142360254
289.55172400000004,,0.0,289.698,0.492000013589859,-2.5286035677860697
290.01724099999996,,0.0,290.162,0.46799999475479126,-2.581207234119306
290.482759,,0.0,290.628,0.4959999918937683,-2.5204942251390214
290.948276,,0.0,291.096,0.47600001096725464,-2.5643202901140567
291.413793,,0.0,291.558,0.47600001096725464,-2.564529827256332
291.87931,,0.0,292.021,0.48399999737739563,-2.54726046790571
292.344828,,0.0,292.484,0.4740000069141388,-2.5691521043012417
292.81034500000004,,0.0,292.95,0.47600001096725464,-2.564842437709516
293.275862,,0.0,293.416,0.4860000014305115,-2.5430447413953554
293.74137900000005,,0.0,293.882,0.47099998593330383,-2.5756548672883453
294.206897,,0.0,294.348,0.46399998664855957,-2.5907802441064978
294.672414,,0.0,294.813,0.4690000116825104,-2.5797108150335175
295.13793100000004,,0.0,295.281,0.4880000054836273,-2.5380946529969832
295.603448,,0.0,295.739,0.4830000102519989,-2.548726683101144
296.068966,,0.0,296.211,0.47600001096725464,-2.5636848855502845
296.534483,,0.0,296.669,0.47600001096725464,-2.5633709867874748
297.0,,0.0,297.137,0.5019999742507935,-2.5064002406831922
297.46551700000003,,0.0,297.599,0.47600001096725464,-2.562716782922343
297.931034,,0.0,298.07,0.47699999809265137,-2.5602183421226465
298.396552,,0.0,298.532,0.49000000953674316,-2.5315946993216816
298.862069,,0.0,298.996,0.48100000619888306,-2.5509290660613733
299.327586,,0.0,299.465,0.4729999899864197,-2.5681212536518907
299.79310300000003,,0.0,299.924,0.46799999475479126,-2.5788217933627178
300.258621,,0.0,300.394,0.49900001287460327,-2.5111409559301214
300.724138,,0.0,300.86,0.4909999966621399,-2.5284809560724715
301.189655,,0.0,301.325,0.4880000054836273,-2.5349835407003822
301.65517200000005,,0.0,301.791,0.492000013589859,-2.5262925893982104
302.12069,,0.0,302.255,0.5059999823570251,-2.4958710516722102
302.586207,,0.0,302.721,0.47699999809265137,-2.559184542687861
303.05172400000004,,0.0,303.186,0.45100000500679016,-2.6160124408362946
303.517241,,0.0,303.644,0.47200000286102295,-2.5704895343552843
303.982759,,0.0,304.114,0.49399998784065247,-2.5228257551225783
304.448276,,0.0,304.577,0.46700000762939453,-2.5819443229321744
304.913793,,0.0,305.04,0.47999998927116394,-2.5539366518134266
305.37931000000003,,0.0,305.511,0.48899999260902405,-2.5346530964641145
305.844828,,0.0,305.974,0.4779999852180481,-2.5589415170295404
306.310345,,0.0,306.436,0.4729999899864197,-2.5701471450948645
306.775862,,0.0,306.902,0.47699999809265137,-2.5617245457536986
307.241379,,0.0,307.366,0.46700000762939453,-2.583773602337796
307.70689699999997,,0.0,307.832,0.4740000069141388,-2.568748117826683
308.172414,,0.0,308.296,0.47600001096725464,-2.564571136220318
308.637931,,0.0,308.762,0.48899999260902405,-2.5363781862527834
309.103448,,0.0,309.229,0.4860000014305115,-2.5429881343659786
309.568966,,0.0,309.695,0.4830000102519989,-2.549540252456446
310.034483,,0.0,310.155,0.46399998664855957,-2.5908930374080152
310.5,,0.0,310.621,0.4740000069141388,-2.569009025467634
310.96551700000003,,0.0,311.088,0.49399998784065247,-2.5252854274656262
311.431034,,0.0,311.551,0.46799999475479126,-2.581730768303529
311.896552,,0.0,312.018,0.46700000762939453,-2.583667917592043
312.362069,,0.0,312.481,0.47600001096725464,-2.563784621094471
312.827586,,0.0,312.947,0.47999998927116394,-2.5547689297507725
313.29310300000003,,0.0,313.41,0.46799999475479126,-2.5805952507306884
313.758621,,0.0,313.875,0.4830000102519989,-2.5475917806267203
314.224138,,0.0,314.341,0.4749999940395355,-2.564701060504616
314.689655,,0.0,314.806,0.47200000286102295,-2.5709309210162745
315.155172,,0.0,315.273,0.4690000116825104,-2.577184601522851
315.62068999999997,,0.0,315.739,0.492000013589859,-2.526825839567294
316.086207,,0.0,316.203,0.4699999988079071,-2.57454620448992
316.551724,,0.0,316.669,0.4950000047683716,-2.519916412162451
317.017241,,0.0,317.129,0.4819999933242798,-2.548126608588069
317.482759,,0.0,317.599,0.49300000071525574,-2.5241038433292515
317.94827599999996,,0.0,318.062,0.4749999940395355,-2.563318641728051
318.413793,,0.0,318.525,0.4819999933242798,-2.5481243506667646
318.87931000000003,,0.0,318.996,0.46399998664855957,-2.587452192639727
319.344828,,0.0,319.458,0.4819999933242798,-2.548401287032546
319.810345,,0.0,319.924,0.49799999594688416,-2.513754597032751
320.275862,,0.0,320.387,0.4970000088214874,-2.516184330141018
320.741379,,0.0,320.853,0.48500001430511475,-2.5426107918760854
321.20689699999997,,0.0,321.318,0.4569999873638153,-2.6039195012982725
321.672414,,0.0,321.783,0.49000000953674316,-2.5323454138557677
322.137931,,0.0,322.248,0.5249999761581421,-2.4564176710527064
322.603448,,0.0,322.713,0.4699999988079071,-2.5765607277568154
323.068966,,0.0,323.181,0.48500001430511475,-2.5441820894545106
323.53448299999997,,0.0,323.639,0.45899999141693115,-2.6011034700450706
324.0,,0.0,324.107,0.49000000953674316,-2.5338085481583734
324.465517,,0.0,324.569,0.48500001430511475,-2.544903606172428
324.931034,,0.0,325.037,0.48899999260902405,-2.5363426263266904
325.396552,,0.0,325.506,0.4860000014305115,-2.542979009304784
325.86206899999996,,0.0,325.967,0.4830000102519989,-2.549559162486088
326.327586,,0.0,326.43,0.4880000054836273,-2.538652540255185
326.793103,,0.0,326.895,0.47600001096725464,-2.5647257537749932
327.258621,,0.0,327.362,0.4880000054836273,-2.5384564809363783
327.724138,,0.0,327.828,0.4749999940395355,-2.5666023713662764
328.189655,,0.0,328.295,0.4819999933242798,-2.5511297242646176
328.655172,,0.0,328.761,0.49000000953674316,-2.533439531870197
329.12068999999997,,0.0,329.22,0.47999998927116394,-2.5549340589779206
329.586207,,0.0,329.686,0.4909999966621399,-2.5306549032955643
330.051724,,0.0,330.159,0.492000013589859,-2.5281497305320655
330.517241,,0.0,330.617,0.492000013589859,-2.5278206712128415
330.982759,,0.0,331.081,0.4749999940395355,-2.564536690811849
331.44827599999996,,0.0,331.551,0.46700000762939453,-2.5816636277039535
331.913793,,0.0,332.014,0.4659999907016754,-2.583569017710083
332.37931,,0.0,332.477,0.48100000619888306,-2.550653331736936
332.844828,,0.0,332.942,0.46799999475479126,-2.578784330188226
333.310345,,0.0,333.405,0.46399998664855957,-2.587358175147515
333.77586199999996,,0.0,333.871,0.4749999940395355,-2.563307505567232
334.241379,,0.0,334.336,0.47600001096725464,-2.561100842647903
334.706897,,0.0,334.801,0.4429999887943268,-2.6330270762378998
335.17241399999995,,0.0,335.266,0.5040000081062317,-2.500217982752474
335.637931,,0.0,335.732,0.47200000286102295,-2.5700772102164424
336.103448,,0.0,336.199,0.47999998927116394,-2.5528397764502073
336.56896600000005,,0.0,336.665,0.48899999260902405,-2.5334670556450933
337.034483,,0.0,337.127,0.5009999871253967,-2.5075937399064636
337.5,,0.0,337.589,0.492000013589859,-2.527498455325548
337.965517,,0.0,338.059,0.47600001096725464,-2.5626714632702203
338.431034,,0.0,338.521,0.4830000102519989,-2.5477441465607975
338.89655200000004,,0.0,338.985,0.48399999737739563,-2.5458874222740278
339.36206899999996,,0.0,339.455,0.4790000021457672,-2.557091242494762
339.827586,,0.0,339.921,0.460999995470047,-2.596597171075502
340.293103,,0.0,340.384,0.47999998927116394,-2.555464205956027
340.758621,,0.0,340.85,0.47200000286102295,-2.573117580329949
341.224138,,0.0,341.314,0.4779999852180481,-2.5602257002609763
341.68965499999996,,0.0,341.78,0.4880000054836273,-2.5385690851263107
342.155172,,0.0,342.24,0.4779999852180481,-2.560431172758534
342.62069,,0.0,342.705,0.47200000286102295,-2.5735221795721466
343.086207,,0.0,343.171,0.47999998927116394,-2.5560554361966665
343.551724,,0.0,343.636,0.4869999885559082,-2.5407114222681972
344.01724099999996,,0.0,344.099,0.5109999775886536,-2.4882765252077905
344.48275900000004,,0.0,344.569,0.4740000069141388,-2.568689511419763
344.948276,,0.0,345.03,0.4699999988079071,-2.577164669773018
345.413793,,0.0,345.499,0.4880000054836273,-2.5376749892690458
345.87931,,0.0,345.962,0.48399999737739563,-2.5460890903434423
346.344828,,0.0,346.425,0.4690000116825104,-2.578451176784027
346.81034500000004,,0.0,346.89,0.47200000286102295,-2.5715909574673397
347.275862,,0.0,347.355,0.4819999933242798,-2.5494835514463907
347.741379,,0.0,347.821,0.4819999933242798,-2.5491754651870364
348.206897,,0.0,348.289,0.4699999988079071,-2.575033559436614
348.672414,,0.0,348.754,0.49000000953674316,-2.5312061587341637
349.13793100000004,,0.0,349.214,0.4749999940395355,-2.5636704275354565
349.60344799999996,,0.0,349.68,0.46399998664855957,-2.587465998574979
350.068966,,0.0,350.148,0.4779999852180481,-2.556846876436559
350.534483,,0.0,350.61,0.49900001287460327,-2.5110315766652347
351.0,,0.0,351.081,0.4779999852180481,-2.5567753488282468
351.465517,,0.0,351.543,0.45899999141693115,-2.598218383947399
351.93103399999995,,0.0,352.007,0.4959999918937683,-2.5177125751991314
352.396552,,0.0,352.469,0.47699999809265137,-2.559262670065973
352.862069,,0.0,352.935,0.4729999899864197,-2.5681798554381894
353.32758600000005,,0.0,353.405,0.4860000014305115,-2.5401007283083827
353.793103,,0.0,353.871,0.47699999809265137,-2.55998489112499
354.258621,,0.0,354.329,0.47999998927116394,-2.553749726931465
354.72413800000004,,0.0,354.794,0.46299999952316284,-2.5911030236918275
355.189655,,0.0,355.259,0.4790000021457672,-2.556566920364877
355.655172,,0.0,355.724,0.49000000953674316,-2.532919590201472
356.12069,,0.0,356.196,0.46700000762939453,-2.58333176802912
356.586207,,0.0,356.654,0.492000013589859,-2.5291449850308125
357.05172400000004,,0.0,357.122,0.47999998927116394,-2.555535591621209
357.517241,,0.0,357.584,0.4740000069141388,-2.568813994144671
357.982759,,0.0,358.055,0.47699999809265137,-2.562438428004001
358.448276,,0.0,358.517,0.46399998664855957,-2.5908703833500546
358.913793,,0.0,358.985,0.4690000116825104,-2.5800326681233128
359.37931000000003,,0.0,359.447,0.46700000762939453,-2.5843900266998903
359.844828,,0.0,359.913,0.4699999988079071,-2.5777985114043496
360.310345,,0.0,360.377,0.46399998664855957,-2.590760916115463
360.775862,,0.0,360.842,0.4970000088214874,-2.5187048656123725
361.241379,,0.0,361.306,0.4779999852180481,-2.559891742740735
361.706897,,0.0,361.772,0.4880000054836273,-2.537857035214833
362.172414,,0.0,362.236,0.4860000014305115,-2.5419331766202538
362.63793100000004,,0.0,362.702,0.46399998664855957,-2.5895583238001683
363.103448,,0.0,363.167,0.46399998664855957,-2.58923946477823
363.568966,,0.0,363.633,0.48500001430511475,-2.54316510801058
364.034483,,0.0,364.095,0.46299999952316284,-2.5907785615420114
364.5,,0.0,364.565,0.4699999988079071,-2.57522705549907
364.96551700000003,,0.0,365.026,0.47600001096725464,-2.561879408971264
365.431034,,0.0,365.495,0.4779999852180481,-2.5572798034712907
365.896552,,0.0,365.959,0.453000009059906,-2.611544749041701
366.362069,,0.0,366.421,0.47999998927116394,-2.5525677647354015
366.827586,,0.0,366.887,0.47600001096725464,-2.561180809953194
367.29310300000003,,0.0,367.352,0.515999972820282,-2.4739874302695313
367.758621,,0.0,367.818,0.4519999921321869,-2.6134287162785115
368.224138,,0.0,368.284,0.4779999852180481,-2.5568478694546792
368.689655,,0.0,368.75,0.4819999933242798,-2.548251744852677
369.155172,,0.0,369.215,0.492000013589859,-2.526633745006187
369.62068999999997,,0.0,369.68,0.46700000762939453,-2.581313460011939
370.086207,,0.0,370.144,0.4650000035762787,-2.585923453624754
370.55172400000004,,0.0,370.607,0.47200000286102295,-2.5709574985492836
371.017241,,0.0,371.07,0.4659999907016754,-2.584337063877966
371.482759,,0.0,371.54,0.4880000054836273,-2.5367276596326844
371.948276,,0.0,372.003,0.48399999737739563,-2.5457659231501264
372.413793,,0.0,372.466,0.45500001311302185,-2.609263405016743
372.87931000000003,,0.0,372.932,0.49000000953674316,-2.53331115078801
373.344828,,0.0,373.394,0.4779999852180481,-2.5597293971624926
373.810345,,0.0,373.86,0.4749999940395355,-2.566505027814519
374.275862,,0.0,374.325,0.47099998593330383,-2.5754176321704634
374.741379,,0.0,374.791,0.4699999988079071,-2.5777466069695865
375.20689699999997,,0.0,375.255,0.46700000762939453,-2.584380724921386
375.672414,,0.0,375.721,0.492000013589859,-2.5299570627454657
376.137931,,0.0,376.185,0.4749999940395355,-2.5669791557322625
376.603448,,0.0,376.651,0.4909999966621399,-2.5320484620631767
377.068966,,0.0,377.114,0.4860000014305115,-2.5428140684379303
377.53448299999997,,0.0,377.584,0.47999998927116394,-2.555706934001887
378.0,,0.0,378.044,0.492000013589859,-2.529338214938275
378.465517,,0.0,378.514,0.4880000054836273,-2.537788826401048
378.931034,,0.0,378.977,0.47600001096725464,-2.5636378137857467
379.396552,,0.0,379.439,0.46399998664855957,-2.5894659893165497
379.862069,,0.0,379.905,0.47600001096725464,-2.562995858792426
380.327586,,0.0,380.369,0.4880000054836273,-2.536524851435829
380.79310300000003,,0.0,380.835,0.47699999809265137,-2.5601715236866274
381.258621,,0.0,381.3,0.4699999988079071,-2.575122532893422
381.724138,,0.0,381.766,0.4749999940395355,-2.5639583938287602
382.189655,,0.0,382.232,0.4880000054836273,-2.5354017670211357
382.655172,,0.0,382.698,0.4790000021457672,-2.554819056602633
383.12068999999997,,0.0,383.162,0.4650000035762787,-2.585179466990635
383.586207,,0.0,383.628,0.47699999809265137,-2.5589497473845717
384.051724,,0.0,384.096,0.47200000286102295,-2.5698143575948342
384.517241,,0.0,384.558,0.47600001096725464,-2.5611292056825845
384.982759,,0.0,385.021,0.4659999907016754,-2.5830025000616237
385.44827599999996,,0.0,385.484,0.47200000286102295,-2.5700721061976024
385.913793,,0.0,385.95,0.47999998927116394,-2.5528346277901606
386.37931,,0.0,386.415,0.492000013589859,-2.526926002999696
386.84482799999995,,0.0,386.881,0.47600001096725464,-2.5620555205766298
387.310345,,0.0,387.347,0.47200000286102295,-2.571069189236199
387.775862,,0.0,387.813,0.49000000953674316,-2.5321713031428223
388.241379,,0.0,388.277,0.47200000286102295,-2.571713459325315
388.70689699999997,,0.0,388.743,0.46799999475479126,-2.5807534646134234
389.172414,,0.0,389.207,0.4000000059604645,-2.7292175827073026
389.637931,,0.0,389.673,0.492000013589859,-2.52907948114333
390.103448,,0.0,390.14,0.47600001096725464,-2.564205945581752
390.56896600000005,,0.0,390.602,0.46799999475479126,-2.5818642379749455
391.03448299999997,,0.0,391.07,0.47099998593330383,-2.5755116633734687
391.5,,0.0,391.533,0.4729999899864197,-2.5712861761549624
391.965517,,0.0,391.996,0.49000000953674316,-2.5343247131188558
392.431034,,0.0,392.466,0.492000013589859,-2.529983652834042
392.896552,,0.0,392.924,0.492000013589859,-2.529939568760786
393.36206899999996,,0.0,393.394,0.47699999809265137,-2.5625165295833416
393.827586,,0.0,393.86,0.47200000286102295,-2.5732521147248937
394.293103,,0.0,394.325,0.47999998927116394,-2.5556157460939337
394.75862099999995,,0.0,394.784,0.47600001096725464,-2.5640799327911497
395.224138,,0.0,395.252,0.47600001096725464,-2.5637942964990157
395.68965499999996,,0.0,395.717,0.43799999356269836,-2.6462718760047057
396.155172,,0.0,396.182,0.5529999732971191,-2.395399686320271
396.62069,,0.0,396.648,0.4620000123977661,-2.5933210820965145
397.086207,,0.0,397.111,0.4880000054836273,-2.5363439614817898
397.551724,,0.0,397.58,0.46700000762939453,-2.581778335445362
398.017241,,0.0,398.044,0.47699999809265137,-2.5596997853681054
398.48275900000004,,0.0,398.506,0.47699999809265137,-2.5594421690969162
398.94827599999996,,0.0,398.97,0.47699999809265137,-2.55922700261172
399.413793,,0.0,399.44,0.46700000762939453,-2.5808477778475885
399.87931,,0.0,399.905,0.4650000035762787,-2.585094534841417
400.344828,,0.0,400.369,0.4699999988079071,-2.5741495680856414
400.810345,,0.0,400.835,0.47600001096725464,-2.561086097594972
401.27586199999996,,0.0,401.299,0.4269999861717224,-2.6679089022086035
401.741379,,0.0,401.765,0.4819999933242798,-2.548211057359152
402.206897,,0.0,402.23,0.47699999809265137,-2.5592859202211358
402.672414,,0.0,402.695,0.4729999899864197,-2.568229282203541
403.137931,,0.0,403.155,0.47699999809265137,-2.559783359981812
403.60344799999996,,0.0,403.621,0.4749999940395355,-2.5644406696619
404.068966,,0.0,404.088,0.47600001096725464,-2.5625837015118056
404.534483,,0.0,404.551,0.47600001096725464,-2.562916887353036
405.0,,0.0,405.014,0.460999995470047,-2.5959309803579202
405.465517,,0.0,405.484,0.503000020980835,-2.5047522683808014
405.931034,,0.0,405.95,0.47200000286102295,-2.572594332224666
406.39655200000004,,0.0,406.416,0.4729999899864197,-2.570689647148408
406.862069,,0.0,406.874,0.4869999885559082,-2.5404241869447546
407.327586,,0.0,407.341,0.4699999988079071,-2.577650894790363
407.793103,,0.0,407.807,0.4729999899864197,-2.5712531189446097
408.258621,,0.0,408.274,0.46799999475479126,-2.5822289804499348
408.72413800000004,,0.0,408.74,0.48399999737739563,-2.547394987460546
409.18965499999996,,0.0,409.199,0.46700000762939453,-2.5843973025791707
409.655172,,0.0,409.665,0.47200000286102295,-2.573411693583638
410.12069,,0.0,410.133,0.4659999907016754,-2.5863368129893707
410.586207,,0.0,410.596,0.4880000054836273,-2.538209693829329
411.05172400000004,,0.0,411.066,0.4650000035762787,-2.588077825974282
411.51724099999996,,0.0,411.528,0.4620000123977661,-2.594337122332991
411.982759,,0.0,411.992,0.4860000014305115,-2.5417459827113005
412.448276,,0.0,412.454,0.46299999952316284,-2.5915335934040145
412.913793,,0.0,412.92,0.46299999952316284,-2.5912051013125383
413.37931,,0.0,413.391,0.47999998927116394,-2.553842913848803
413.844828,,0.0,413.849,0.503000020980835,-2.5034212418897805
414.31034500000004,,0.0,414.314,0.46700000762939453,-2.5815618326673904
414.775862,,0.0,414.78,0.4819999933242798,-2.5486230037322395
415.241379,,0.0,415.244,0.48500001430511475,-2.54186783621726
415.706897,,0.0,415.71,0.4909999966621399,-2.5286231951450877
416.172414,,0.0,416.174,0.4749999940395355,-2.5633607140242227
416.63793100000004,,0.0,416.64,0.47200000286102295,-2.569832097790395
417.103448,,0.0,417.11,0.4659999907016754,-2.5828984283683
417.568966,,0.0,417.573,0.4790000021457672,-2.5546295856772425
418.034483,,0.0,418.036,0.4749999940395355,-2.5634550717813394
418.5,,0.0,418.499,0.48100000619888306,-2.550547580031984
418.96551700000003,,0.0,418.966,0.5799999833106995,-2.335072166926328
419.43103399999995,,0.0,419.429,0.49000000953674316,-2.5313990146432754
419.896552,,0.0,419.895,0.46700000762939453,-2.581788355998354
420.362069,,0.0,420.362,0.47600001096725464,-2.562486581908407
420.827586,,0.0,420.828,0.47999998927116394,-2.5540943335973045
421.293103,,0.0,421.293,0.49000000953674316,-2.5326358082136307
421.758621,,0.0,421.759,0.49900001287460327,-2.5133508463516177
422.22413800000004,,0.0,422.225,0.49399998784065247,-2.5245514174722494
422.689655,,0.0,422.691,0.47200000286102295,-2.5727641723409715
423.15517200000005,,0.0,423.156,0.4690000116825104,-2.5795499938417485
423.62069,,0.0,423.614,0.46299999952316284,-2.5928319935830073
424.086207,,0.0,424.084,0.4749999940395355,-2.566851879203823
424.55172400000004,,0.0,424.547,0.46399998664855957,-2.5909288941062742
425.017241,,0.0,425.01,0.453000009059906,-2.6149507319552496
425.482759,,0.0,425.481,0.4790000021457672,-2.558305598660204
425.948276,,0.0,425.939,0.4880000054836273,-2.538639230962267
426.413793,,0.0,426.409,0.4790000021457672,-2.5581311627397794
426.87931000000003,,0.0,426.875,0.47999998927116394,-2.5557826780969237
427.344828,,0.0,427.341,0.47999998927116394,-2.555564012009615
427.810345,,0.0,427.799,0.46399998664855957,-2.590161776979902
428.275862,,0.0,428.266,0.46399998664855957,-2.589867678250036
428.741379,,0.0,428.732,0.4749999940395355,-2.5655840002255625
429.20689699999997,,0.0,429.196,0.48399999737739563,-2.545642367003169
429.672414,,0.0,429.661,0.46700000762939453,-2.5823403694031737
430.137931,,0.0,430.129,0.4729999899864197,-2.5689351001905165
430.603448,,0.0,430.592,0.4880000054836273,-2.5359376782574947
431.068966,,0.0,431.059,0.4790000021457672,-2.5552530515018663
431.534483,,0.0,431.522,0.46700000762939453,-2.5811390046046516
432.0,,0.0,431.985,0.4740000069141388,-2.565673951141549
432.46551700000003,,0.0,432.455,0.48100000619888306,-2.5502589161149394
432.931034,,0.0,432.92,0.47999998927116394,-2.552328108893413
433.396552,,0.0,433.384,0.4659999907016754,-2.5827785527363747
433.862069,,0.0,433.85,0.4790000021457672,-2.55446647760572
434.327586,,0.0,434.315,0.4749999940395355,-2.563252360483348
434.79310300000003,,0.0,434.774,0.4880000054836273,-2.5350598137015434
435.258621,,0.0,435.24,0.4740000069141388,-2.5657456075944047
435.724138,,0.0,435.705,0.4830000102519989,-2.546371950694618
436.189655,,0.0,436.171,0.4860000014305115,-2.540112602849761
436.655172,,0.0,436.636,0.4399999976158142,-2.6406417157367534
437.12068999999997,,0.0,437.099,0.4690000116825104,-2.5777984440322994
437.586207,,0.0,437.569,0.46299999952316284,-2.591223850138797
438.051724,,0.0,438.033,0.47200000286102295,-2.5719739740938565
438.517241,,0.0,438.495,0.47099998593330383,-2.574503779529747
438.982759,,0.0,438.959,0.47600001096725464,-2.5639435203993575
439.448276,,0.0,439.429,0.5049999952316284,-2.5010664822815034
439.913793,,0.0,439.894,0.503000020980835,-2.5056874298306266
440.37931000000003,,0.0,440.358,0.46700000762939453,-2.5843343116071074
440.844828,,0.0,440.824,0.4729999899864197,-2.5714240979803273
441.310345,,0.0,441.289,0.46399998664855957,-2.591135132399267
441.775862,,0.0,441.755,0.49000000953674316,-2.534531201225384
442.241379,,0.0,442.214,0.49799999594688416,-2.517078339470808
442.70689699999997,,0.0,442.68,0.46399998664855957,-2.591064350292888
443.172414,,0.0,443.147,0.4790000021457672,-2.558235429885981
443.637931,,0.0,443.61,0.46799999475479126,-2.581995039520255
444.103448,,0.0,444.081,0.4749999940395355,-2.5664886899553014
444.568966,,0.0,444.543,0.5820000171661377,-2.333072770871162
445.03448299999997,,0.0,445.004,0.47600001096725464,-2.5636716478802017
445.5,,0.0,445.473,0.5009999871253967,-2.5088419498313583
445.965517,,0.0,445.939,0.44699999690055847,-2.6261133571150372
446.431034,,0.0,446.401,0.48399999737739563,-2.545128269940503
446.896552,,0.0,446.867,0.4740000069141388,-2.5665518702123697
447.36206899999996,,0.0,447.333,0.49000000953674316,-2.5313536307275064
447.827586,,0.0,447.798,0.46299999952316284,-2.589871213291835
448.29310300000003,,0.0,448.262,0.48100000619888306,-2.550393518276851
448.758621,,0.0,448.728,0.45500001311302185,-2.606829039187701
449.224138,,0.0,449.192,0.4650000035762787,-2.5848930282170324
449.689655,,0.0,449.658,0.47999998927116394,-2.5521282329459707
450.155172,,0.0,450.125,0.4779999852180481,-2.556466972742776
450.62068999999997,,0.0,450.588,0.4779999852180481,-2.5565154138601853
451.086207,,0.0,451.051,0.4749999940395355,-2.5631654822306893
451.551724,,0.0,451.514,0.48399999737739563,-2.543733949783648
452.017241,,0.0,451.985,0.4830000102519989,-2.5461453880869063
452.482759,,0.0,452.447,0.47600001096725464,-2.5616780586383907
452.94827599999996,,0.0,452.913,0.49000000953674316,-2.5314996908841714
453.413793,,0.0,453.376,0.46299999952316284,-2.5906766454779984
453.87931,,0.0,453.842,0.4650000035762787,-2.586693140651751
454.344828,,0.0,454.307,0.4690000116825104,-2.578361409495867
454.810345,,0.0,454.772,0.492000013589859,-2.528631813894643
455.27586199999996,,0.0,455.237,0.4749999940395355,-2.5660321466058758
455.741379,,0.0,455.704,0.4790000021457672,-2.5576533876139704
456.206897,,0.0,456.171,0.4860000014305115,-2.5427007418988787
456.672414,,0.0,456.629,0.46700000762939453,-2.5843455971677307
457.137931,,0.0,457.1,0.4749999940395355,-2.5671120761923913
457.603448,,0.0,457.562,0.47999998927116394,-2.556353297564297
458.06896600000005,,0.0,458.025,0.4650000035762787,-2.589101858795226
458.53448299999997,,0.0,458.495,0.45899999141693115,-2.602175289844287
459.0,,0.0,458.954,0.46700000762939453,-2.5846803439465553
459.465517,,0.0,459.425,0.4690000116825104,-2.580191710384647
459.931034,,0.0,459.89,0.46399998664855957,-2.590891822719988
460.39655200000004,,0.0,460.355,0.4729999899864197,-2.571034712905394
460.86206899999996,,0.0,460.814,0.4869999885559082,-2.5402353612518143
461.327586,,0.0,461.281,0.49000000953674316,-2.533360478911956
461.793103,,0.0,461.747,0.47999998927116394,-2.5547777715494724
462.258621,,0.0,462.211,0.4740000069141388,-2.5674619293041068
462.724138,,0.0,462.677,0.46399998664855957,-2.5888550123574503
463.18965499999996,,0.0,463.14,0.4749999940395355,-2.5645032507721957
463.655172,,0.0,463.61,0.46799999475479126,-2.5793860876181465
464.12069,,0.0,464.074,0.46799999475479126,-2.5790489181403395
464.58620699999994,,0.0,464.536,0.46399998664855957,-2.5874677626718645
465.051724,,0.0,465.003,0.4749999940395355,-2.5632575613881605
465.517241,,0.0,465.466,0.4819999933242798,-2.547820050075463
465.98275900000004,,0.0,465.932,0.47999998927116394,-2.552054062512902
466.448276,,0.0,466.394,0.4690000116825104,-2.575963754186536
466.913793,,0.0,466.86,0.4339999854564667,-2.652232100154964
467.37931,,0.0,467.326,0.4000000059604645,-2.726394543833357
467.844828,,0.0,467.792,0.4880000054836273,-2.5348323279945837
468.31034500000004,,0.0,468.259,0.4490000009536743,-2.620022224873122
468.77586199999996,,0.0,468.725,0.47999998927116394,-2.5527626126558856
469.241379,,0.0,469.184,0.4779999852180481,-2.5574452056581767
469.706897,,0.0,469.651,0.46399998664855957,-2.588307927287902
470.172414,,0.0,470.114,0.46700000762939453,-2.582159080476159
470.63793100000004,,0.0,470.584,0.4860000014305115,-2.541165056695035
471.10344799999996,,0.0,471.047,0.4659999907016754,-2.5851385496145505
471.568966,,0.0,471.51,0.4860000014305115,-2.5419536572416592
472.034483,,0.0,471.974,0.4779999852180481,-2.559746227573449
472.5,,0.0,472.443,0.46399998664855957,-2.590574672645186
472.965517,,0.0,472.909,0.4790000021457672,-2.5581764075829456
473.43103399999995,,0.0,473.373,0.4690000116825104,-2.58018959245975
473.89655200000004,,0.0,473.838,0.49000000953674316,-2.534602467396338
474.362069,,0.0,474.303,0.5059999823570251,-2.499840377581411
474.827586,,0.0,474.769,0.46399998664855957,-2.5913684145859035
475.293103,,0.0,475.232,0.46299999952316284,-2.5935009273501626
475.758621,,0.0,475.698,0.47699999809265137,-2.562884911019125
476.22413800000004,,0.0,476.163,0.47699999809265137,-2.5627042969719294
476.689655,,0.0,476.629,0.4830000102519989,-2.5493913963819326
477.155172,,0.0,477.092,0.4860000014305115,-2.542561431937108
477.62069,,0.0,477.555,0.4620000123977661,-2.594511380735097
478.086207,,0.0,478.025,0.4819999933242798,-2.550568350679884
478.55172400000004,,0.0,478.488,0.4869999885559082,-2.539283793785913
479.01724099999996,,0.0,478.954,0.49000000953674316,-2.5323469297135226
479.482759,,0.0,479.418,0.48399999737739563,-2.5450209546232987
479.948276,,0.0,479.883,0.4650000035762787,-2.5860334175025166
480.413793,,0.0,480.348,0.47699999809265137,-2.5595364552846713
480.87931000000003,,0.0,480.814,0.47600001096725464,-2.5614016192515456
481.344828,,0.0,481.281,0.4749999940395355,-2.5633162695112057
481.810345,,0.0,481.739,0.4690000116825104,-2.576181981489094
482.275862,,0.0,482.204,0.4880000054836273,-2.534645762939523
482.74137900000005,,0.0,482.669,0.4819999933242798,-2.547643993469439
483.206897,,0.0,483.14,0.46399998664855957,-2.58685671734634
483.672414,,0.0,483.602,0.46700000762939453,-2.580389270990933
484.13793100000004,,0.0,484.07,0.460999995470047,-2.5935994134733047
484.603448,,0.0,484.532,0.47600001096725464,-2.5611230176493143
485.068966,,0.0,484.996,0.4880000054836273,-2.535240621677139
485.534483,,0.0,485.466,0.49799999594688416,-2.5137643220038104
486.0,,0.0,485.924,0.4729999899864197,-2.5685795861132377
486.46551700000003,,0.0,486.394,0.49000000953674316,-2.5319198049149167
486.931034,,0.0,486.86,0.46399998664855957,-2.588958760912844
487.396552,,0.0,487.326,0.4819999933242798,-2.5501417472294783
487.862069,,0.0,487.784,0.4569999873638153,-2.6049990892970443
488.327586,,0.0,488.252,0.5130000114440918,-2.4833654409497723
488.79310300000003,,0.0,488.717,0.4790000021457672,-2.5577773147738196
489.258621,,0.0,489.184,0.48100000619888306,-2.5537144040409743
489.724138,,0.0,489.65,0.48500001430511475,-2.5452420900336694
490.189655,,0.0,490.11,0.46799999475479126,-2.582461953942851
490.655172,,0.0,490.58,0.4729999899864197,-2.5716867751706567
491.12069,,0.0,491.04,0.45100000500679016,-2.619667240442336
491.586207,,0.0,491.51,0.49300000071525574,-2.5281447440195435
492.05172400000004,,0.0,491.973,0.4650000035762787,-2.5890581905774455
492.517241,,0.0,492.436,0.4830000102519989,-2.5496869726582676
492.982759,,0.0,492.901,0.45100000500679016,-2.619186761313502
493.448276,,0.0,493.366,0.4650000035762787,-2.588414566452344
493.913793,,0.0,493.831,0.47200000286102295,-2.5728471869841454
494.37931000000003,,0.0,494.297,0.46799999475479126,-2.581208633764453
494.844828,,0.0,494.762,0.47600001096725464,-2.5634007455704713
495.310345,,0.0,495.229,0.47999998927116394,-2.5542935131213746
495.775862,,0.0,495.695,0.4650000035762787,-2.586578708913724
496.241379,,0.0,496.159,0.49000000953674316,-2.531728426512668
496.70689699999997,,0.0,496.624,0.4359999895095825,-2.6490142877402034
497.172414,,0.0,497.085,0.4880000054836273,-2.5353978886941917
497.637931,,0.0,497.555,0.4399999976158142,-2.6396912336861407
498.103448,,0.0,498.018,0.46399998664855957,-2.5871757420362385
498.568966,,0.0,498.48,0.4339999854564667,-2.652368806739993
499.03448299999997,,0.0,498.946,0.47999998927116394,-2.5520509534838234
499.5,,0.0,499.41,0.43799999356269836,-2.6435232967158493
499.96551700000003,,0.0,499.875,0.46299999952316284,-2.589096279601322
500.431034,,0.0,500.341,0.46399998664855957,-2.5870254906431174
500.89655200000004,,0.0,500.807,0.4749999940395355,-2.5632325463130905
501.362069,,0.0,501.274,0.4650000035762787,-2.585249864981879
501.827586,,0.0,501.739,0.46399998664855957,-2.5877109143182215
502.293103,,0.0,502.204,0.4869999885559082,-2.5379267684312534
502.758621,,0.0,502.67,0.4880000054836273,-2.536104271465258
503.224138,,0.0,503.133,0.46799999475479126,-2.5800536851342546
503.68965499999996,,0.0,503.595,0.4869999885559082,-2.539044702342103
504.15517200000005,,0.0,504.066,0.45899999141693115,-2.6004294493649818
504.62068999999997,,0.0,504.528,0.4659999907016754,-2.5855475163713657
505.08620699999994,,0.0,504.989,0.4860000014305115,-2.5423177351220168
505.55172400000004,,0.0,505.459,0.47699999809265137,-2.562232219462372
506.017241,,0.0,505.925,0.4690000116825104,-2.5799222052732333
506.48275899999993,,0.0,506.388,0.4620000123977661,-2.5953804694559692
506.948276,,0.0,506.853,0.4880000054836273,-2.538883913996129
507.413793,,0.0,507.318,0.48399999737739563,-2.547682265742141
507.87931,,0.0,507.784,0.46399998664855957,-2.591272095595678
508.344828,,0.0,508.244,0.4650000035762787,-2.5890438186671756
508.810345,,0.0,508.71,0.46000000834465027,-2.5998232158284247
509.27586199999996,,0.0,509.181,0.4650000035762787,-2.588755652642152
509.74137900000005,,0.0,509.639,0.5009999871253967,-2.5100942451500816
510.20689699999997,,0.0,510.107,0.48100000619888306,-2.5533875195317832
510.67241399999995,,0.0,510.569,0.47999998927116394,-2.5552457780021025
511.13793100000004,,0.0,511.037,0.48399999737739563,-2.5461803176427398
511.603448,,0.0,511.499,0.4729999899864197,-2.569775217853562
512.0689659999999,,0.0,511.967,0.4749999940395355,-2.5650400531775506
512.534483,,0.0,512.429,0.38600000739097595,-2.7585678581421536
513.0,,0.0,512.895,0.4790000021457672,-2.555600451470242
513.465517,,0.0,513.362,0.4860000014305115,-2.5400245779106294
513.931034,,0.0,513.828,0.4399999976158142,-2.639953508878019
514.396552,,0.0,514.293,0.4699999988079071,-2.5743511697369144
514.862069,,0.0,514.758,0.47600001096725464,-2.561089297742023
515.327586,,0.0,515.225,0.46399998664855957,-2.587101080879468
515.793103,,0.0,515.69,0.4519999921321869,-2.6131750004472
516.258621,,0.0,516.156,0.46700000762939453,-2.580489787618788
516.724138,,0.0,516.614,0.46299999952316284,-2.589262948606348
517.189655,,0.0,517.084,0.47600001096725464,-2.561060507741521
517.655172,,0.0,517.547,0.4740000069141388,-2.5655949414045485
518.1206900000001,,0.0,518.015,0.5120000243186951,-2.4830338710731605
518.5862070000001,,0.0,518.477,0.46399998664855957,-2.5878795953976876
519.051724,,0.0,518.942,0.47999998927116394,-2.5533268993629465
519.517241,,0.0,519.405,0.48100000619888306,-2.5514799999036284
519.982759,,0.0,519.871,0.49000000953674316,-2.532219380549312
520.448276,,0.0,520.336,0.48399999737739563,-2.545643202276331
520.9137929999999,,0.0,520.802,0.46399998664855957,-2.589562616586467
521.37931,,0.0,521.266,0.4690000116825104,-2.579000635679502
521.844828,,0.0,521.732,0.4410000145435333,-2.640309889108085
522.310345,,0.0,522.199,0.46700000762939453,-2.5839392169763933
522.7758620000001,,0.0,522.665,0.47600001096725464,-2.564563927939992
523.241379,,0.0,523.125,0.4830000102519989,-2.5494965004979924
523.7068969999999,,0.0,523.595,0.47600001096725464,-2.5648750772913993
524.172414,,0.0,524.058,0.4880000054836273,-2.5388005175777
524.637931,,0.0,524.521,0.515999972820282,-2.477806143631563
525.103448,,0.0,524.989,0.5009999871253967,-2.510431184391975
525.568966,,0.0,525.451,0.47999998927116394,-2.556068203744314
526.034483,,0.0,525.916,0.46000000834465027,-2.5994719124924583
526.5,,0.0,526.383,0.4869999885559082,-2.5404307213750457
526.9655170000001,,0.0,526.848,0.48399999737739563,-2.546706835758736
527.4310340000001,,0.0,527.314,0.4620000123977661,-2.5943433539887644
527.8965519999999,,0.0,527.78,0.49300000071525574,-2.526487049126969
528.362069,,0.0,528.245,0.47600001096725464,-2.5631907804973153
528.827586,,0.0,528.71,0.47200000286102295,-2.571567380353739
529.293103,,0.0,529.17,0.4950000047683716,-2.5211260278079584
529.7586210000001,,0.0,529.636,0.492000013589859,-2.527344465291121
530.224138,,0.0,530.099,0.49000000953674316,-2.531408481184856
530.689655,,0.0,530.569,0.4880000054836273,-2.535505650051522
531.155172,,0.0,531.03,0.5059999823570251,-2.4960705488828
531.62069,,0.0,531.5,0.49000000953674316,-2.530756235687889
532.086207,,0.0,531.962,0.515999972820282,-2.473990450869473
532.5517239999999,,0.0,532.425,0.48500001430511475,-2.541462561059985
533.017241,,0.0,532.89,0.5049999952316284,-2.4978808869595044
533.482759,,0.0,533.355,0.5049999952316284,-2.497929294846131
533.9482760000001,,0.0,533.821,0.49000000953674316,-2.53071285299175
534.413793,,0.0,534.289,0.4869999885559082,-2.5374054965349577
534.87931,,0.0,534.755,0.5009999871253967,-2.507109140016649
535.344828,,0.0,535.214,0.531000018119812,-2.441995079399464
535.810345,,0.0,535.68,0.5070000290870667,-2.494560450538339
536.275862,,0.0,536.148,0.4880000054836273,-2.536257269554097
536.7413789999999,,0.0,536.61,0.4830000102519989,-2.5474697088311453
537.206897,,0.0,537.081,0.5040000081062317,-2.5020446075938594
537.672414,,0.0,537.543,0.5170000195503235,-2.474045246481537
538.137931,,0.0,538.007,0.503000020980835,-2.5048557117235384
538.6034480000001,,0.0,538.469,0.5040000081062317,-2.50296377890714
539.0689659999999,,0.0,538.935,0.515999972820282,-2.477075553213422
539.5344829999999,,0.0,539.405,0.5149999856948853,-2.4794704750772043
540.0,,0.0,539.87,0.5460000038146973,-2.4121023365765875
540.465517,,0.0,540.329,0.5090000033378601,-2.492830794249664
540.931034,,0.0,540.794,0.5329999923706055,-2.440607177086214
541.396552,,0.0,541.259,0.5299999713897705,-2.4471508941571565
541.862069,,0.0,541.725,0.527999997138977,-2.4514594989647414
542.327586,,0.0,542.192,0.5199999809265137,-2.4687858923300534
542.7931030000001,,0.0,542.658,0.5519999861717224,-2.398915335824952
543.258621,,0.0,543.126,0.5540000200271606,-2.394357243838501
543.7241379999999,,0.0,543.588,0.5299999713897705,-2.446403541779117
544.189655,,0.0,544.051,0.550000011920929,-2.402556640933236
544.655172,,0.0,544.521,0.5339999794960022,-2.4371175462475043
545.12069,,0.0,544.981,0.5370000004768372,-2.430269843793519
545.5862070000001,,0.0,545.444,0.5339999794960022,-2.4364899983793724
546.051724,,0.0,545.91,0.5730000138282776,-2.3512118079361173
546.517241,,0.0,546.38,0.5450000166893005,-2.4119169919936287
546.982759,,0.0,546.839,0.5419999957084656,-2.4181793671953433
547.448276,,0.0,547.304,0.5659999847412109,-2.3656501815893134
547.9137929999999,,0.0,547.769,0.5669999718666077,-2.3632684718338792
548.3793099999999,,0.0,548.237,0.5630000233650208,-2.3718242018281175
548.844828,,0.0,548.702,0.5540000200271606,-2.391322768448102
549.310345,,0.0,549.167,0.550000011920929,-2.3999813623857396
549.775862,,0.0,549.633,0.5540000200271606,-2.39126587886238
550.241379,,0.0,550.096,0.5540000200271606,-2.3913200091741613
550.706897,,0.0,550.565,0.5540000200271606,-2.3914272720928
551.172414,,0.0,551.026,0.5759999752044678,-2.3436536293373047
551.637931,,0.0,551.496,0.5529999732971191,-2.3939630394164837
552.103448,,0.0,551.959,0.5699999928474426,-2.357164202171921
552.568966,,0.0,552.421,0.6449999809265137,-2.1940325059853714
553.034483,,0.0,552.887,0.5669999718666077,-2.36425295365617
553.5,,0.0,553.351,0.574999988079071,-2.347120978809972
553.965517,,0.0,553.817,0.5809999704360962,-2.3343498998372088
554.4310340000001,,0.0,554.284,0.5759999752044678,-2.3455381010142133
554.896552,,0.0,554.75,0.5690000057220459,-2.361069100402095
555.3620689999999,,0.0,555.215,0.5669999718666077,-2.3656845762934036
555.827586,,0.0,555.68,0.5920000076293945,-2.3114460242954595
556.293103,,0.0,556.141,0.5419999957084656,-2.4205692311337006
556.758621,,0.0,556.61,0.5440000295639038,-2.416361308389632
557.224138,,0.0,557.073,0.5630000233650208,-2.375071292916188
557.689655,,0.0,557.536,0.593999981880188,-2.30758803269167
558.155172,,0.0,558.004,0.5540000200271606,-2.3947368190184513
558.6206900000001,,0.0,558.467,0.5339999794960022,-2.438262197568181
559.0862070000001,,0.0,558.932,0.5540000200271606,-2.394593443585102
559.5517239999999,,0.0,559.395,0.550000011920929,-2.403166961342798
560.017241,,0.0,559.86,0.5640000104904175,-2.3724830581628678
560.482759,,0.0,560.325,0.5820000171661377,-2.333047435721586
560.948276,,0.0,560.791,0.5669999718666077,-2.3654760997119144
561.413793,,0.0,561.258,0.5460000038146973,-2.410953315025394
561.87931,,0.0,561.724,0.5709999799728394,-2.356198364667602
562.344828,,0.0,562.188,0.5460000038146973,-2.410369850121857
562.8103450000001,,0.0,562.654,0.5410000085830688,-2.4209717724108746
563.275862,,0.0,563.115,0.44699999690055847,-2.625487915600048
563.7413789999999,,0.0,563.584,0.5400000214576721,-2.4226209308320388
564.206897,,0.0,564.048,0.5419999957084656,-2.418040956853371
564.672414,,0.0,564.51,0.5299999713897705,-2.443996545740658
565.137931,,0.0,564.974,0.5419999957084656,-2.417704301088596
565.603448,,0.0,565.443,0.5339999794960022,-2.4350288979780133
566.068966,,0.0,565.909,0.5419999957084656,-2.417541416851095
566.534483,,0.0,566.373,0.4830000102519989,-2.5460720918563853
567.0,,0.0,566.839,0.515999972820282,-2.474217112994307
567.465517,,0.0,567.304,0.5270000100135803,-2.450340235695054
567.931034,,0.0,567.77,0.5210000276565552,-2.4635444228133077
568.396552,,0.0,568.23,0.5120000243186951,-2.4833244174744995
568.862069,,0.0,568.695,0.503000020980835,-2.5031393411803395
569.327586,,0.0,569.163,0.515999972820282,-2.475052763438151
569.793103,,0.0,569.628,0.5130000114440918,-2.481845484059716
570.2586210000001,,0.0,570.092,0.49300000071525574,-2.525688793362891
570.724138,,0.0,570.555,0.5009999871253967,-2.5085357823157417
571.189655,,0.0,571.022,0.49000000953674316,-2.5327747799674083
571.655172,,0.0,571.484,0.4959999918937683,-2.5199664497769207
572.12069,,0.0,571.95,0.527999997138977,-2.4504942594467156
572.586207,,0.0,572.415,0.49399998784065247,-2.524786030841868
573.051724,,0.0,572.88,0.4950000047683716,-2.5227923143814666
573.517241,,0.0,573.347,0.48899999260902405,-2.5360117948709857
573.982759,,0.0,573.813,0.49799999594688416,-2.5165098596157813
574.4482760000001,,0.0,574.278,0.49799999594688416,-2.516570901104062
574.913793,,0.0,574.744,0.4819999933242798,-2.55144394786143
575.37931,,0.0,575.21,0.4779999852180481,-2.5601272503734127
575.844828,,0.0,575.669,0.49900001287460327,-2.5142994434845556
576.310345,,0.0,576.14,0.49000000953674316,-2.5337882640453113
576.775862,,0.0,576.602,0.47200000286102295,-2.5728459926709446
577.241379,,0.0,577.07,0.4830000102519989,-2.548689388988502
577.706897,,0.0,577.533,0.4860000014305115,-2.5419341978073398
578.172414,,0.0,577.996,0.48899999260902405,-2.5351573907101
578.6379310000001,,0.0,578.466,0.4880000054836273,-2.5370805541318076
579.1034480000001,,0.0,578.924,0.49000000953674316,-2.532460747333461
579.5689659999999,,0.0,579.394,0.49399998784065247,-2.5234843050159843
580.034483,,0.0,579.86,0.48399999737739563,-2.545017233684952
580.5,,0.0,580.325,0.4909999966621399,-2.5295291434554965
580.965517,,0.0,580.784,0.5379999876022339,-2.42691713053567
581.431034,,0.0,581.256,0.47699999809265137,-2.5596268181475903
581.896552,,0.0,581.714,0.47699999809265137,-2.5594735099298758
582.362069,,0.0,582.181,0.47699999809265137,-2.559360453499821
582.827586,,0.0,582.646,0.4950000047683716,-2.520074907664814
583.2931030000001,,0.0,583.114,0.48500001430511475,-2.541836246441646
583.758621,,0.0,583.577,0.4749999940395355,-2.5636432355609657
584.2241379999999,,0.0,584.045,0.4729999899864197,-2.568066461073655
584.689655,,0.0,584.506,0.4620000123977661,-2.5921413095892185
585.155172,,0.0,584.97,0.4869999885559082,-2.5378252710344946
585.6206900000001,,0.0,585.44,0.4819999933242798,-2.5489037324024166
586.0862070000001,,0.0,585.905,0.5049999952316284,-2.499008684488385
586.551724,,0.0,586.369,0.49900001287460327,-2.5123158989456362
587.017241,,0.0,586.835,0.48899999260902405,-2.534352112795525
587.482759,,0.0,587.296,0.48500001430511475,-2.5433237171436636
587.948276,,0.0,587.762,0.4740000069141388,-2.5675461649071805
588.4137929999999,,0.0,588.226,0.4830000102519989,-2.5481884894273326
588.87931,,0.0,588.692,0.49000000953674316,-2.533173301449009
589.344828,,0.0,589.159,0.4880000054836273,-2.53774376962926
589.810345,,0.0,589.624,0.550000011920929,-2.402850966282081
590.2758620000001,,0.0,590.085,0.4830000102519989,-2.548967868992289
590.741379,,0.0,590.555,0.4970000088214874,-2.518575029264402
591.2068969999999,,0.0,591.018,0.4880000054836273,-2.5382499150722695
591.672414,,0.0,591.48,0.4819999933242798,-2.5513461391601235
592.137931,,0.0,591.946,0.48899999260902405,-2.5360769912615986
592.603448,,0.0,592.41,0.40299999713897705,-2.7233815849477074
593.068966,,0.0,592.876,0.49799999594688416,-2.5163133238551008
593.534483,,0.0,593.341,0.4790000021457672,-2.55757507990981
594.0,,0.0,593.807,0.4860000014305115,-2.542158758737638
594.4655170000001,,0.0,594.274,0.515999972820282,-2.4766048044456177
594.9310340000001,,0.0,594.739,0.49300000071525574,-2.5264953108038135
595.3965519999999,,0.0,595.204,0.47999998927116394,-2.5545826007345234
595.862069,,0.0,595.67,0.47600001096725464,-2.563053123914634
596.327586,,0.0,596.133,0.48399999737739563,-2.545378522505005
596.793103,,0.0,596.595,0.5,-2.510279959247256
597.2586210000001,,0.0,597.063,0.49000000953674316,-2.531837992240311
597.724138,,0.0,597.525,0.49799999594688416,-2.514198721741532
598.189655,,0.0,597.996,0.4830000102519989,-2.5466929619647987
598.655172,,0.0,598.458,0.49000000953674316,-2.531287283259267
599.12069,,0.0,598.924,0.48899999260902405,-2.533345715068228
599.586207,,0.0,599.387,0.4880000054836273,-2.535442367665166
600.0517239999999,,0.0,599.853,0.49300000071525574,-2.524507761685639
600.517241,,0.0,600.318,0.48500001430511475,-2.5419372918739565
600.982759,,0.0,600.783,0.5,-2.509299543706617
601.448276,,0.0,601.248,0.47600001096725464,-2.561669407115815
601.913793,,0.0,601.713,0.4830000102519989,-2.5465395373401587
602.37931,,0.0,602.178,0.4740000069141388,-2.566303184392343
602.844828,,0.0,602.644,0.503000020980835,-2.503308261737257
603.310345,,0.0,603.106,0.47600001096725464,-2.5623419385304107
603.775862,,0.0,603.576,0.4869999885559082,-2.5386051815176116
604.2413789999999,,0.0,604.037,0.49399998784065247,-2.523594374488602
604.706897,,0.0,604.499,0.5090000033378601,-2.4911578907740743
605.172414,,0.0,604.967,0.4909999966621399,-2.5306129026306343
605.637931,,0.0,605.429,0.47600001096725464,-2.563521597658676
606.1034480000001,,0.0,605.894,0.4950000047683716,-2.52233978635668
606.5689659999999,,0.0,606.366,0.46399998664855957,-2.590067925538379
607.0344829999999,,0.0,606.824,0.48399999737739563,-2.5466572287409095
607.5,,0.0,607.295,0.4790000021457672,-2.5576802774190504
607.965517,,0.0,607.754,0.47699999809265137,-2.5621309235196748
608.431034,,0.0,608.225,0.48399999737739563,-2.54693451288792
608.896552,,0.0,608.684,0.4819999933242798,-2.5513049270736645
609.362069,,0.0,609.156,0.4950000047683716,-2.5229538095234947
609.827586,,0.0,609.614,0.4650000035762787,-2.5882437835952357
610.293103,,0.0,610.084,0.49000000953674316,-2.5336695868443773
610.758621,,0.0,610.547,0.47200000286102295,-2.572741965431257
611.2241379999999,,0.0,611.015,0.48899999260902405,-2.535530294423229
611.689655,,0.0,611.478,0.4860000014305115,-2.541865056957291
612.155172,,0.0,611.944,0.5370000004768372,-2.4305309714586216
612.62069,,0.0,612.406,0.47600001096725464,-2.5631896011328674
613.0862070000001,,0.0,612.872,0.4880000054836273,-2.536799082574694
613.551724,,0.0,613.336,0.47699999809265137,-2.5605179570447016
614.017241,,0.0,613.802,0.4690000116825104,-2.57770897128548
614.4827590000001,,0.0,614.267,0.4620000123977661,-2.592737224522321
614.948276,,0.0,614.733,0.46700000762939453,-2.581644471325918
615.4137929999999,,0.0,615.199,0.45100000500679016,-2.6163322451545095
615.8793099999999,,0.0,615.665,0.4650000035762787,-2.585694661903893
616.344828,,0.0,616.125,0.4620000123977661,-2.5921319706698864
616.810345,,0.0,616.595,0.45899999141693115,-2.5986098890390554
617.275862,,0.0,617.055,0.46399998664855957,-2.5877007253962803
617.741379,,0.0,617.525,0.45500001311302185,-2.6073350192951854
618.206897,,0.0,617.988,0.46399998664855957,-2.5877952259178074
618.672414,,0.0,618.451,0.46000000834465027,-2.596616885599738
619.137931,,0.0,618.917,0.4830000102519989,-2.546650292575411
619.603448,,0.0,619.383,0.49799999594688416,-2.514142636004109
620.068966,,0.0,619.848,0.4740000069141388,-2.5666261256205223
620.534483,,0.0,620.315,0.45100000500679016,-2.6169500068809524
621.0,,0.0,620.781,0.4699999988079071,-2.575784168558856
621.465517,,0.0,621.24,0.45500001311302185,-2.6086990950041895
621.9310340000001,,0.0,621.706,0.4659999907016754,-2.5849689759538133
622.396552,,0.0,622.171,0.46700000762939453,-2.58301791811958
622.862069,,0.0,622.637,0.44999998807907104,-2.620268648054824
623.327586,,0.0,623.099,0.4569999873638153,-2.6052119912401115
623.793103,,0.0,623.569,0.46299999952316284,-2.592308454987899
624.258621,,0.0,624.03,0.4519999921321869,-2.6164114272440875
624.724138,,0.0,624.499,0.4560000002384186,-2.6078002701628415
625.189655,,0.0,624.962,0.46399998664855957,-2.5904371177759056
625.655172,,0.0,625.425,0.44600000977516174,-2.6296793934710285
626.1206900000001,,0.0,625.89,0.45899999141693115,-2.6013438137281413
626.5862070000001,,0.0,626.355,0.46399998664855957,-2.5903977740343502
627.0517239999999,,0.0,626.82,0.45399999618530273,-2.6120931776974996
627.5172409999999,,0.0,627.284,0.44999998807907104,-2.6206815483701824
627.982759,,0.0,627.75,0.4569999873638153,-2.6052735518428265
628.448276,,0.0,628.215,0.44699999690055847,-2.6268760251760948
628.913793,,0.0,628.681,0.4440000057220459,-2.633207138816016
629.37931,,0.0,629.155,0.4480000138282776,-2.624273133680896
629.844828,,0.0,629.614,0.4429999887943268,-2.634938882723293
630.3103450000001,,0.0,630.074,0.44699999690055847,-2.6259952175088404
630.7758620000001,,0.0,630.544,0.44999998807907104,-2.619235268693854
631.2413789999999,,0.0,631.007,0.4560000002384186,-2.605950530847326
631.706897,,0.0,631.469,0.44699999690055847,-2.62536279385609
632.172414,,0.0,631.935,0.45100000500679016,-2.6164756000367695
632.637931,,0.0,632.406,0.45899999141693115,-2.5989016889782532
633.103448,,0.0,632.864,0.46000000834465027,-2.5966098426510533
633.568966,,0.0,633.336,0.4410000145435333,-2.6379260012935863
634.034483,,0.0,633.794,0.45100000500679016,-2.6160991033239793
634.5,,0.0,634.259,0.43799999356269836,-2.644420239292161
634.9655170000001,,0.0,634.724,0.46299999952316284,-2.5899915869157755
635.431034,,0.0,635.196,0.4449999928474426,-2.6292823032705446
635.8965519999999,,0.0,635.654,0.4569999873638153,-2.60324872579592
636.362069,,0.0,636.125,0.46700000762939453,-2.5816040484646505
636.827586,,0.0,636.588,0.43799999356269836,-2.644954240424495
637.293103,,0.0,637.051,0.43799999356269836,-2.64514704053941
637.7586210000001,,0.0,637.514,0.4569999873638153,-2.603963580949713
638.224138,,0.0,637.985,0.43799999356269836,-2.64558034413034
638.689655,,0.0,638.447,0.4399999976158142,-2.641450904893071
639.155172,,0.0,638.913,0.46399998664855957,-2.589389833921128
639.62069,,0.0,639.376,0.45100000500679016,-2.617930040948713
640.086207,,0.0,639.842,0.4180000126361847,-2.6900288856172043
640.551724,,0.0,640.306,0.45100000500679016,-2.6183174676026786
641.017241,,0.0,640.772,0.4410000145435333,-2.640262650545661
641.482759,,0.0,641.237,0.44699999690055847,-2.627319181981568
641.9482760000001,,0.0,641.703,0.4129999876022339,-2.7014881223971203
642.413793,,0.0,642.17,0.45100000500679016,-2.6187582990977094
642.87931,,0.0,642.636,0.44699999690055847,-2.627493274447713
643.344828,,0.0,643.099,0.45500001311302185,-2.6100444279308173
643.810345,,0.0,643.562,0.4300000071525574,-2.6644517554694622
644.275862,,0.0,644.025,0.46000000834465027,-2.598995878757171
644.7413789999999,,0.0,644.495,0.43799999356269836,-2.646794771138147
645.206897,,0.0,644.954,0.43799999356269836,-2.64663232226952
645.672414,,0.0,645.425,0.4560000002384186,-2.6072278813310636
646.1379310000001,,0.0,645.884,0.45899999141693115,-2.6004816377704736
646.6034480000001,,0.0,646.351,0.44200000166893005,-2.6372927471388103
647.0689659999999,,0.0,646.816,0.4490000009536743,-2.621807773838334
647.534483,,0.0,647.282,0.44600000977516174,-2.6281077592867517
648.0,,0.0,647.747,0.4620000123977661,-2.593018565955661
648.465517,,0.0,648.215,0.4390000104904175,-2.6429085938819035
648.931034,,0.0,648.68,0.4560000002384186,-2.605671353923753
649.396552,,0.0,649.141,0.4390000104904175,-2.642532968334337
649.862069,,0.0,649.604,0.4480000138282776,-2.6227800129582515
650.327586,,0.0,650.074,0.4480000138282776,-2.6226696270581473
650.7931030000001,,0.0,650.536,0.45100000500679016,-2.6160612368690805
651.258621,,0.0,650.999,0.4560000002384186,-2.6051355811722035
651.7241379999999,,0.0,651.469,0.4399999976158142,-2.6400028073255064
652.189655,,0.0,651.935,0.4390000104904175,-2.6422319788848467
652.655172,,0.0,652.397,0.3970000147819519,-2.733827318840753
653.12069,,0.0,652.863,0.4620000123977661,-2.592346518710809
653.5862070000001,,0.0,653.329,0.4429999887943268,-2.6339065027493906
654.051724,,0.0,653.795,0.43799999356269836,-2.644994256416927
654.517241,,0.0,654.26,0.45100000500679016,-2.6168897796160437
654.982759,,0.0,654.726,0.45899999141693115,-2.5996950581435
655.448276,,0.0,655.185,0.45100000500679016,-2.617367751874533
655.9137929999999,,0.0,655.651,0.4429999887943268,-2.635042648739352
656.37931,,0.0,656.114,0.46700000762939453,-2.5829955118458336
656.844828,,0.0,656.584,0.43799999356269836,-2.6464042936730583
657.310345,,0.0,657.044,0.44699999690055847,-2.6270054649613876
657.7758620000001,,0.0,657.514,0.44699999690055847,-2.6271895297782044
658.241379,,0.0,657.977,0.4309999942779541,-2.6622016206955266
658.7068969999999,,0.0,658.44,0.44200000166893005,-2.6383555212745096
659.172414,,0.0,658.905,0.5460000038146973,-2.411854696437715
659.637931,,0.0,659.37,0.4339999854564667,-2.6558973650128506
660.103448,,0.0,659.836,0.4390000104904175,-2.6449943329967285
660.568966,,0.0,660.303,0.45500001311302185,-2.6100844931205236
661.034483,,0.0,660.769,0.43799999356269836,-2.6470295856608157
661.5,,0.0,661.232,0.4429999887943268,-2.63600680817723
661.965517,,0.0,661.698,0.45899999141693115,-2.600984994451016
662.4310340000001,,0.0,662.162,0.46399998664855957,-2.589898517374605
662.8965519999999,,0.0,662.628,0.4399999976158142,-2.6419687176174995
663.362069,,0.0,663.096,0.4560000002384186,-2.606875829353636
663.827586,,0.0,663.558,0.45100000500679016,-2.6175243633334997
664.293103,,0.0,664.026,0.45100000500679016,-2.6172766346616356
664.7586210000001,,0.0,664.489,0.43799999356269836,-2.6453560678167287
665.224138,,0.0,664.959,0.43299999833106995,-2.6560187901101617
665.689655,,0.0,665.414,0.4259999990463257,-2.6710587455889234
666.155172,,0.0,665.88,0.43799999356269836,-2.644730650984338
666.62069,,0.0,666.344,0.44699999690055847,-2.624969663997386
667.086207,,0.0,666.81,0.43799999356269836,-2.644459606310882
667.5517239999999,,0.0,667.277,0.4650000035762787,-2.585556425568813
668.017241,,0.0,667.742,0.4429999887943268,-2.6334472157560835
668.482759,,0.0,668.207,0.4359999895095825,-2.6486998715841645
668.948276,,0.0,668.672,0.43799999356269836,-2.6443868100427776
669.413793,,0.0,669.14,0.45399999618530273,-2.609613156813426
669.87931,,0.0,669.603,0.45899999141693115,-2.598841834042549
670.3448279999999,,0.0,670.066,0.4569999873638153,-2.6033541104076554
670.810345,,0.0,670.536,0.4620000123977661,-2.5926441167908956
671.275862,,0.0,670.996,0.4480000138282776,-2.623351560525432
671.7413789999999,,0.0,671.459,0.4519999921321869,-2.614860731839039
672.206897,,0.0,671.924,0.45500001311302185,-2.6085593504778752
672.672414,,0.0,672.395,0.45100000500679016,-2.6175125271583464
673.137931,,0.0,672.86,0.47200000286102295,-2.5719961863860465
673.6034480000001,,0.0,673.325,0.4449999928474426,-2.6310447446603122
674.068966,,0.0,673.79,0.4410000145435333,-2.63996823738181
674.5344829999999,,0.0,674.255,0.4429999887943268,-2.635798490337165
675.0,,0.0,674.72,0.4410000145435333,-2.6403164255232516
675.465517,,0.0,675.185,0.43799999356269836,-2.6469817689938284
675.931034,,0.0,675.65,0.44699999690055847,-2.6274681595788714
676.396552,,0.0,676.114,0.4300000071525574,-2.664561590850561
676.862069,,0.0,676.576,0.4429999887943268,-2.636256326751042
677.327586,,0.0,677.044,0.45500001311302185,-2.6100893759751767
677.793103,,0.0,677.506,0.43799999356269836,-2.6470633139086543
678.2586210000001,,0.0,677.974,0.45899999141693115,-2.601210268731648
678.7241379999999,,0.0,678.436,0.43799999356269836,-2.646824987791674
679.1896549999999,,0.0,678.902,0.4620000123977661,-2.594368796260379
679.655172,,0.0,679.366,0.44600000977516174,-2.629031580224603
680.12069,,0.0,679.832,0.4429999887943268,-2.6353507578659876
680.5862070000001,,0.0,680.296,0.4519999921321869,-2.6155113901853
681.051724,,0.0,680.762,0.3880000114440918,-2.75470629450926
681.517241,,0.0,681.229,0.47699999809265137,-2.5605682979630005
681.9827590000001,,0.0,681.695,0.45899999141693115,-2.5995511733970074
682.448276,,0.0,682.159,0.43700000643730164,-2.6472601563164506
682.9137929999999,,0.0,682.625,0.44699999690055847,-2.625271375771844
683.3793099999999,,0.0,683.088,0.45100000500679016,-2.6163792732652285
683.844828,,0.0,683.551,0.4440000057220459,-2.631482143341159
684.310345,,0.0,684.014,0.43799999356269836,-2.6444408642656922
684.775862,,0.0,684.484,0.45100000500679016,-2.616043154452986
685.241379,,0.0,684.951,0.44999998807907104,-2.6181864763857
685.706897,,0.0,685.416,0.4390000104904175,-2.642157223330585
686.172414,,0.0,685.874,0.46000000834465027,-2.596452264181653
686.637931,,0.0,686.34,0.45500001311302185,-2.6074314792905167
687.103448,,0.0,686.806,0.43700000643730164,-2.6467702551037062
687.5689659999999,,0.0,687.274,0.43799999356269836,-2.644749139302793
688.034483,,0.0,687.74,0.4410000145435333,-2.638400893546344
688.5,,0.0,688.199,0.4339999854564667,-2.6538641500996594
688.965517,,0.0,688.666,0.4429999887943268,-2.6344877847688615
689.4310340000001,,0.0,689.129,0.4519999921321869,-2.6151231931259664
689.896552,,0.0,689.598,0.46000000834465027,-2.5979412806524795
690.362069,,0.0,690.059,0.4390000104904175,-2.64393701789235
690.827586,,0.0,690.528,0.4440000057220459,-2.6332781134157894
691.293103,,0.0,690.992,0.4390000104904175,-2.644389350568405
691.758621,,0.0,691.454,0.48500001430511475,-2.5443659708137916
692.224138,,0.0,691.92,0.4259999990463257,-2.6730710321819307
692.689655,,0.0,692.384,0.46700000762939453,-2.583877058940774
693.155172,,0.0,692.85,0.45100000500679016,-2.618828042759254
693.6206900000001,,0.0,693.315,0.44699999690055847,-2.6275943012971434
694.0862070000001,,0.0,693.78,0.4429999887943268,-2.6363185503523567
694.551724,,0.0,694.247,0.4390000104904175,-2.645000648938211
695.0172409999999,,0.0,694.713,0.46299999952316284,-2.592639162795044
695.482759,,0.0,695.177,0.44600000977516174,-2.6295623001898
695.948276,,0.0,695.643,0.46399998664855957,-2.5901958960159113
696.4137929999999,,0.0,696.111,0.45100000500679016,-2.618334827340367
696.87931,,0.0,696.573,0.46000000834465027,-2.5985160715693323
697.344828,,0.0,697.036,0.43799999356269836,-2.6462144745748497
697.8103450000001,,0.0,697.499,0.4560000002384186,-2.6067529181244646
698.2758620000001,,0.0,697.967,0.4560000002384186,-2.6065000246629206
698.741379,,0.0,698.429,0.43700000643730164,-2.6476418277905687
699.206897,,0.0,698.894,0.45100000500679016,-2.616896449361479
699.672414,,0.0,699.359,0.40799999237060547,-2.710350134078684
700.137931,,0.0,699.825,0.44699999690055847,-2.625177881298495
700.603448,,0.0,700.291,0.4429999887943268,-2.633716307852729
701.068966,,0.0,700.757,0.46399998664855957,-2.5878213779050374
701.534483,,0.0,701.222,0.4560000002384186,-2.6051437502832013
702.0,,0.0,701.688,0.43799999356269836,-2.6442925620308304
702.4655170000001,,0.0,702.155,0.44699999690055847,-2.6246603932226864
702.931034,,0.0,702.614,0.43799999356269836,-2.6442874419398823
703.3965519999999,,0.0,703.081,0.46000000834465027,-2.5964191051880423
703.862069,,0.0,703.55,0.4440000057220459,-2.6313801644040122
704.327586,,0.0,704.014,0.39100000262260437,-2.7469901936425267
704.793103,,0.0,704.477,0.4580000042915344,-2.6011981970670544
705.2586210000001,,0.0,704.942,0.47200000286102295,-2.5709035482495994
705.724138,,0.0,705.406,0.4390000104904175,-2.6430271275052726
706.189655,,0.0,705.872,0.44200000166893005,-2.6367353710415764
706.6551720000001,,0.0,706.337,0.4480000138282776,-2.623916900079736
707.12069,,0.0,706.802,0.4480000138282776,-2.6241719516951387
707.586207,,0.0,707.269,0.44699999690055847,-2.6265997454500645
708.051724,,0.0,707.735,0.4429999887943268,-2.635550353934758
708.517241,,0.0,708.199,0.4440000057220459,-2.633587790395192
708.982759,,0.0,708.665,0.4560000002384186,-2.607633736897396
709.4482760000001,,0.0,709.126,0.45500001311302185,-2.609969663435215
709.913793,,0.0,709.595,0.45100000500679016,-2.6188044307789635
710.37931,,0.0,710.059,0.4429999887943268,-2.6363134532416037
710.844828,,0.0,710.521,0.4749999940395355,-2.566633532935648
711.310345,,0.0,710.989,0.4860000014305115,-2.542659985882902
711.775862,,0.0,711.451,0.453000009059906,-2.6145016477284435
712.2413789999999,,0.0,711.917,0.4390000104904175,-2.644906592483808
712.706897,,0.0,712.383,0.4429999887943268,-2.6360574985134497
713.172414,,0.0,712.848,0.4569999873638153,-2.6053873452933254
713.637931,,0.0,713.31,0.46299999952316284,-2.5921161427884094
714.1034480000001,,0.0,713.775,0.4429999887943268,-2.6354654456611684
714.5689659999999,,0.0,714.24,0.4429999887943268,-2.635224566159339
715.034483,,0.0,714.705,0.4410000145435333,-2.639331263215628
715.5,,0.0,715.17,0.4830000102519989,-2.547574431365071
715.965517,,0.0,715.636,0.45100000500679016,-2.6170411082970237
716.431034,,0.0,716.099,0.4390000104904175,-2.642946214724297
716.896552,,0.0,716.569,0.44999998807907104,-2.6187617305264257
717.362069,,0.0,717.03,0.43799999356269836,-2.6447118484323267
717.827586,,0.0,717.499,0.4390000104904175,-2.6423710860174303
718.2931030000001,,0.0,717.962,0.44999998807907104,-2.6182801553645625
718.758621,,0.0,718.425,0.4560000002384186,-2.605121674757809
719.2241379999999,,0.0,718.891,0.46000000834465027,-2.596361699682789
719.689655,,0.0,719.358,0.4359999895095825,-2.6486465738449994
720.155172,,0.0,719.824,0.45399999618530273,-2.609471209153463
720.62069,,0.0,720.288,0.47200000286102295,-2.5703370924653677
721.0862070000001,,0.0,720.754,0.43799999356269836,-2.6445311778062743
721.551724,,0.0,721.214,0.4779999852180481,-2.5575402491276775
722.017241,,0.0,721.68,0.43700000643730164,-2.647050221680774
722.482759,,0.0,722.144,0.4429999887943268,-2.634189392374135
722.948276,,0.0,722.614,0.47699999809265137,-2.5603456961150206
723.4137929999999,,0.0,723.077,0.45100000500679016,-2.6172327127744692
723.87931,,0.0,723.54,0.44999998807907104,-2.6196586282065786
724.344828,,0.0,724.011,0.44600000977516174,-2.6286189252172796
724.810345,,0.0,724.473,0.4490000009536743,-2.622320260730392
725.2758620000001,,0.0,724.939,0.4350000023841858,-2.653043479239973
725.741379,,0.0,725.402,0.43799999356269836,-2.646708514815749
726.2068969999999,,0.0,725.868,0.4729999899864197,-2.570629231644666
726.672414,,0.0,726.333,0.4429999887943268,-2.636128737825466
727.137931,,0.0,726.798,0.4399999976158142,-2.642767720905528
727.603448,,0.0,727.262,0.4690000116825104,-2.57965005907658
728.068966,,0.0,727.728,0.4580000042915344,-2.603635870289333
728.534483,,0.0,728.195,0.44999998807907104,-2.621042620027153
729.0,,0.0,728.661,0.4699999988079071,-2.5774047949099637
729.465517,,0.0,729.122,0.44600000977516174,-2.629586959820783
729.9310340000001,,0.0,729.584,0.4429999887943268,-2.635980671841539
730.3965519999999,,0.0,730.052,0.43799999356269836,-2.646699571483777
730.8620689999999,,0.0,730.514,0.4519999921321869,-2.615997166254009
731.327586,,0.0,730.985,0.4390000104904175,-2.6440969308922817
731.793103,,0.0,731.447,0.45500001311302185,-2.6090009681387367
732.2586210000001,,0.0,731.913,0.45500001311302185,-2.60875499066552
732.724138,,0.0,732.376,0.45500001311302185,-2.6085074324715314
733.189655,,0.0,732.842,0.4390000104904175,-2.6431241700370207
733.655172,,0.0,733.309,0.4390000104904175,-2.642896030617312
734.12069,,0.0,733.774,0.45100000500679016,-2.6165443146772858
734.586207,,0.0,734.24,0.3700000047683716,-2.79283424092909
735.0517239999999,,0.0,734.706,0.4580000042915344,-2.600966046706575
735.517241,,0.0,735.171,0.45100000500679016,-2.6161055992433875
735.982759,,0.0,735.629,0.47999998927116394,-2.5528510082314972
736.448276,,0.0,736.099,0.45100000500679016,-2.6159967941606057
736.913793,,0.0,736.562,0.43799999356269836,-2.6443247677218604
737.37931,,0.0,737.029,0.4560000002384186,-2.6051555887980475
737.844828,,0.0,737.491,0.43799999356269836,-2.6444573671808578
738.310345,,0.0,737.959,0.44999998807907104,-2.6184368426231006
738.775862,,0.0,738.421,0.4429999887943268,-2.63384428333548
739.2413789999999,,0.0,738.887,0.4519999921321869,-2.6144223303861955
739.706897,,0.0,739.355,0.43799999356269836,-2.645133033214822
740.172414,,0.0,739.82,0.45100000500679016,-2.6170380043420307
740.637931,,0.0,740.284,0.4429999887943268,-2.6347058927674993
741.1034480000001,,0.0,740.75,0.44200000166893005,-2.6371276288878094
741.568966,,0.0,741.214,0.4490000009536743,-2.622117740800584
742.034483,,0.0,741.68,0.45500001311302185,-2.6092767537807546
742.5,,0.0,742.141,0.4519999921321869,-2.616027041961101
742.965517,,0.0,742.61,0.45500001311302185,-2.609682516738632
743.431034,,0.0,743.073,0.46299999952316284,-2.5924163274353136
743.896552,,0.0,743.536,0.4440000057220459,-2.6339405057999468
744.362069,,0.0,744.004,0.45100000500679016,-2.618783470157908
744.827586,,0.0,744.466,0.453000009059906,-2.614480760521132
745.293103,,0.0,744.933,0.4390000104904175,-2.644996084914424
745.7586210000001,,0.0,745.395,0.46700000762939453,-2.5839673970032586
746.2241379999999,,0.0,745.861,0.45500001311302185,-2.610044150036659
746.6896549999999,,0.0,746.326,0.45100000500679016,-2.6186532005167935
747.155172,,0.0,746.791,0.43299999833106995,-2.657728591152629
747.62069,,0.0,747.258,0.4560000002384186,-2.6074489774995677
748.086207,,0.0,747.724,0.46399998664855957,-2.5898230024785946
748.551724,,0.0,748.188,0.45500001311302185,-2.609212931654004
749.017241,,0.0,748.654,0.44699999690055847,-2.6264098583176003
749.4827590000001,,0.0,749.117,0.4490000009536743,-2.6218129115004922
749.9482760000001,,0.0,749.58,0.5630000233650208,-2.3732047025320924
750.4137929999999,,0.0,750.048,0.44699999690055847,-2.6256883009961056
750.8793099999999,,0.0,750.511,0.45100000500679016,-2.616745483864474
751.344828,,0.0,750.974,0.4339999854564667,-2.6535750456611336
751.810345,,0.0,751.444,0.3869999945163727,-2.7557923036640797
752.275862,,0.0,751.909,0.4429999887943268,-2.6336432948359656
752.741379,,0.0,752.373,0.45100000500679016,-2.616106766156497
753.206897,,0.0,752.838,0.43799999356269836,-2.644361201672507
753.672414,,0.0,753.304,0.45100000500679016,-2.6160119121755145
754.1379310000001,,0.0,753.769,0.4429999887943268,-2.633456052566613
754.603448,,0.0,754.229,0.45399999618530273,-2.6095467910641257
755.0689659999999,,0.0,754.695,0.46000000834465027,-2.5965695828179505
755.534483,,0.0,755.159,0.4410000145435333,-2.6380944537110405
756.0,,0.0,755.624,0.43799999356269836,-2.6447935568436294
756.465517,,0.0,756.092,0.4269999861717224,-2.6689501880248425
756.931034,,0.0,756.554,0.453000009059906,-2.6125193708698746
757.396552,,0.0,757.025,0.4429999887943268,-2.634535709391849
757.862069,,0.0,757.488,0.43700000643730164,-2.647846243084077
758.3275860000001,,0.0,757.959,0.4410000145435333,-2.6393724606250495
758.793103,,0.0,758.414,0.44699999690055847,-2.6265363342324854
759.258621,,0.0,758.88,0.4580000042915344,-2.6027943596490326
759.724138,,0.0,759.344,0.4690000116825104,-2.5790325680456183
760.189655,,0.0,759.81,0.44999998807907104,-2.620604336383619
760.655172,,0.0,760.277,0.4429999887943268,-2.6360018259316003
761.1206900000001,,0.0,760.742,0.44699999690055847,-2.627400107852274
761.5862070000001,,0.0,761.207,0.44200000166893005,-2.6383691210734543
762.051724,,0.0,761.673,0.43799999356269836,-2.647120530373709
762.517241,,0.0,762.136,0.4560000002384186,-2.60790163490675
762.982759,,0.0,762.599,0.43799999356269836,-2.6470741410883005
763.448276,,0.0,763.066,0.453000009059906,-2.614312647794968
763.9137929999999,,0.0,763.529,0.43799999356269836,-2.646874764148524
764.37931,,0.0,764.0,0.44999998807907104,-2.6205810212678937
764.844828,,0.0,764.462,0.46399998664855957,-2.589901729372267
765.310345,,0.0,764.927,0.46000000834465027,-2.598414471426855
765.7758620000001,,0.0,765.39,0.47200000286102295,-2.5720509573662116
766.241379,,0.0,765.856,0.527999997138977,-2.4498140841383993
766.706897,,0.0,766.325,0.44699999690055847,-2.626045533933122
767.172414,,0.0,766.791,0.453000009059906,-2.612736983925156
767.637931,,0.0,767.256,0.4819999933242798,-2.54933001458379
768.103448,,0.0,767.714,0.43799999356269836,-2.6449813543235687
768.568966,,0.0,768.181,0.46299999952316284,-2.5903298262885346
769.034483,,0.0,768.646,0.45100000500679016,-2.6163179904684806
769.5,,0.0,769.114,0.44699999690055847,-2.624911411047574
769.9655170000001,,0.0,769.577,0.44699999690055847,-2.6248286409301844
770.4310340000001,,0.0,770.04,0.46000000834465027,-2.5964640958820153
770.8965519999999,,0.0,770.51,0.45100000500679016,-2.6160714159113825
771.362069,,0.0,770.973,0.4390000104904175,-2.6422564369101202
771.827586,,0.0,771.436,0.4490000009536743,-2.620552030829191
772.293103,,0.0,771.902,0.43799999356269836,-2.6446374912139547
772.7586210000001,,0.0,772.365,0.44999998807907104,-2.618648426930669
773.224138,,0.0,772.831,0.44699999690055847,-2.6253684087188365
773.689655,,0.0,773.296,0.4440000057220459,-2.6321118902718186
774.155172,,0.0,773.762,0.45100000500679016,-2.617085943013996
774.62069,,0.0,774.229,0.4259999990463257,-2.671787081642296
775.086207,,0.0,774.694,0.4429999887943268,-2.634988431791061
775.551724,,0.0,775.161,0.45100000500679016,-2.617793296416519
776.017241,,0.0,775.619,0.4490000009536743,-2.6223725639981925
776.482759,,0.0,776.089,0.46700000762939453,-2.5833593965565145
776.9482760000001,,0.0,776.551,0.44999998807907104,-2.620573022395861
777.413793,,0.0,777.014,0.45899999141693115,-2.6011104697203984
777.87931,,0.0,777.484,0.5099999904632568,-2.490108056805303
778.344828,,0.0,777.95,0.4440000057220459,-2.6339669447164056
778.810345,,0.0,778.409,0.44699999690055847,-2.6274580770637996
779.275862,,0.0,778.874,0.46299999952316284,-2.592586017472172
779.7413789999999,,0.0,779.341,0.4429999887943268,-2.63610507703378
780.206897,,0.0,779.806,0.44999998807907104,-2.620762590029976
780.672414,,0.0,780.27,0.4620000123977661,-2.594491821988499
781.137931,,0.0,780.736,0.453000009059906,-2.613941542904668
781.6034480000001,,0.0,781.203,0.4620000123977661,-2.5941494331770163
782.0689659999999,,0.0,781.669,0.4399999976158142,-2.641875516990799
782.5344829999999,,0.0,782.132,0.4350000023841858,-2.6525517893092254
783.0,,0.0,782.595,0.44200000166893005,-2.637078839367782
783.465517,,0.0,783.066,0.4519999921321869,-2.6150710707405245
783.931034,,0.0,783.528,0.45500001311302185,-2.6083211305804626
784.396552,,0.0,783.989,0.47200000286102295,-2.5710834220134084
784.862069,,0.0,784.459,0.45500001311302185,-2.6079386981221124
785.327586,,0.0,784.925,0.45100000500679016,-2.616496392840322
785.7931030000001,,0.0,785.388,0.4390000104904175,-2.642513440422539
786.258621,,0.0,785.854,0.44200000166893005,-2.6358851418694798
786.7241379999999,,0.0,786.314,0.43799999356269836,-2.644544530631826
787.189655,,0.0,786.779,0.45899999141693115,-2.598775924117934
787.655172,,0.0,787.244,0.45399999618530273,-2.6096900093588307
788.12069,,0.0,787.71,0.4399999976158142,-2.640248853164689
788.5862070000001,,0.0,788.177,0.44200000166893005,-2.6359846842326857
789.051724,,0.0,788.643,0.453000009059906,-2.6121448301761174
789.517241,,0.0,789.11,0.48399999737739563,-2.544758994048816
789.982759,,0.0,789.573,0.4519999921321869,-2.6146492831122203
790.448276,,0.0,790.036,0.45899999141693115,-2.5995884315220703
790.9137929999999,,0.0,790.499,0.46399998664855957,-2.5888953599201883
791.3793099999999,,0.0,790.967,0.4819999933242798,-2.5498834297420383
791.844828,,0.0,791.429,0.45399999618530273,-2.611086501209506
792.310345,,0.0,791.894,0.4429999887943268,-2.635244547717795
792.7758620000001,,0.0,792.366,0.4560000002384186,-2.6071019083906486
793.241379,,0.0,792.824,0.42800000309944153,-2.66826578091471
793.7068969999999,,0.0,793.289,0.44699999690055847,-2.6270107549246084
794.172414,,0.0,793.755,0.45100000500679016,-2.618408734389317
794.637931,,0.0,794.222,0.44200000166893005,-2.6380989260128023
795.103448,,0.0,794.688,0.43799999356269836,-2.6468636824460505
795.568966,,0.0,795.155,0.45399999618530273,-2.6120219430313005
796.034483,,0.0,795.614,0.4560000002384186,-2.60764694277118
796.5,,0.0,796.084,0.4690000116825104,-2.5792725664380205
796.965517,,0.0,796.547,0.4399999976158142,-2.6423691105585028
797.4310340000001,,0.0,797.011,0.46399998664855957,-2.5899680136017977
797.8965519999999,,0.0,797.48,0.4650000035762787,-2.5876498523084703
798.3620689999999,,0.0,797.939,0.46399998664855957,-2.589667102593565
798.827586,,0.0,798.409,0.4620000123977661,-2.593846113199547
799.293103,,0.0,798.875,0.48500001430511475,-2.543547424699371
799.758621,,0.0,799.34,0.4480000138282776,-2.6239620032332915
800.224138,,0.0,799.805,0.43799999356269836,-2.645554666432884
800.689655,,0.0,800.27,0.4569999873638153,-2.603974783133826
801.155172,,0.0,800.735,0.453000009059906,-2.612517344310701
801.62069,,0.0,801.2,0.43799999356269836,-2.6450440111837192
802.086207,,0.0,801.666,0.45100000500679016,-2.616592314711235
802.5517239999999,,0.0,802.129,0.45100000500679016,-2.6164905534554754
803.017241,,0.0,802.592,0.45100000500679016,-2.6164189242280913
803.482759,,0.0,803.055,0.4690000116825104,-2.577163330336408
803.948276,,0.0,803.525,0.453000009059906,-2.612014138375803
804.413793,,0.0,803.988,0.4429999887943268,-2.633825795871788
804.87931,,0.0,804.451,0.4399999976158142,-2.640419220079456
805.344828,,0.0,804.916,0.45100000500679016,-2.6165419537960406
805.810345,,0.0,805.383,0.4699999988079071,-2.5752621920730547
806.275862,,0.0,805.849,0.45100000500679016,-2.6167933651565707
806.7413789999999,,0.0,806.314,0.4410000145435333,-2.638735060826663
807.206897,,0.0,806.78,0.4659999907016754,-2.584437753309421
807.672414,,0.0,807.245,0.4480000138282776,-2.6238301269096853
808.137931,,0.0,807.71,0.4429999887943268,-2.6349027699529244
808.603448,,0.0,808.17,0.45100000500679016,-2.6176502680525955
809.068966,,0.0,808.635,0.43799999356269836,-2.6461414089737203
809.534483,,0.0,809.103,0.46299999952316284,-2.5918304711078246
810.0,,0.0,809.566,0.44600000977516174,-2.6290043144306026
810.465517,,0.0,810.029,0.44699999690055847,-2.6269400790547666
810.931034,,0.0,810.499,0.45399999618530273,-2.611778248200416
811.396552,,0.0,810.963,0.531000018119812,-2.444080977950003
811.862069,,0.0,811.425,0.453000009059906,-2.614041365062323
812.327586,,0.0,811.89,0.4779999852180481,-2.559568464677149
812.793103,,0.0,812.355,0.46399998664855957,-2.5900318288963313
813.2586210000001,,0.0,812.821,0.4440000057220459,-2.6335381380113434
813.724138,,0.0,813.288,0.45399999618530273,-2.6116595026214697
814.1896549999999,,0.0,813.754,0.4490000009536743,-2.6224384578421276
814.655172,,0.0,814.219,0.44200000166893005,-2.6375566887621145
815.12069,,0.0,814.685,0.44999998807907104,-2.6199818323854505
815.586207,,0.0,815.147,0.4399999976158142,-2.6416140284638976
816.051724,,0.0,815.61,0.44600000977516174,-2.628384311402146
816.517241,,0.0,816.077,0.4390000104904175,-2.6434785936749576
816.982759,,0.0,816.54,0.44699999690055847,-2.625899510946052
817.4482760000001,,0.0,817.011,0.45500001311302185,-2.608330896421423
817.913793,,0.0,817.473,0.46299999952316284,-2.5907763747864365
818.3793099999999,,0.0,817.939,0.4480000138282776,-2.6233481770448948
818.844828,,0.0,818.402,0.44999998807907104,-2.618903855282582
819.310345,,0.0,818.868,0.46299999952316284,-2.590517403429341
819.775862,,0.0,819.333,0.45500001311302185,-2.6079068510468115
820.241379,,0.0,819.798,0.46700000762939453,-2.581748242728489
820.706897,,0.0,820.266,0.4480000138282776,-2.6231526974090973
821.172414,,0.0,820.724,0.44600000977516174,-2.6275448837815225
821.6379310000001,,0.0,821.189,0.44699999690055847,-2.6254248076220743
822.1034480000001,,0.0,821.655,0.45100000500679016,-2.6167901194301093
822.5689659999999,,0.0,822.125,0.4440000057220459,-2.6321390886370786
823.034483,,0.0,822.588,0.45899999141693115,-2.5995728365111783
823.5,,0.0,823.051,0.4429999887943268,-2.634555794003586
823.965517,,0.0,823.514,0.4659999907016754,-2.5845783492716814
824.431034,,0.0,823.984,0.44699999690055847,-2.6261066772499198
824.896552,,0.0,824.447,0.45100000500679016,-2.6175245861309437
825.362069,,0.0,824.913,0.42800000309944153,-2.667761122038663
825.827586,,0.0,825.377,0.4560000002384186,-2.606878022516344
826.293103,,0.0,825.842,0.4429999887943268,-2.6353071111563096
826.758621,,0.0,826.307,0.45100000500679016,-2.6179687614753804
827.224138,,0.0,826.773,0.4339999854564667,-2.6550786725116433
827.689655,,0.0,827.24,0.4390000104904175,-2.6442385805598705
828.155172,,0.0,827.699,0.36000001430511475,-2.8163857123788794
828.6206900000001,,0.0,828.171,0.4390000104904175,-2.64428752397403
829.0862070000001,,0.0,828.629,0.44600000977516174,-2.6290314266935653
829.551724,,0.0,829.099,0.4519999921321869,-2.615931829579346
830.017241,,0.0,829.562,0.4390000104904175,-2.644205191788193
830.482759,,0.0,830.025,0.45100000500679016,-2.617992891315812
830.948276,,0.0,830.495,0.4490000009536743,-2.6222642902929203
831.4137929999999,,0.0,830.959,0.46000000834465027,-2.5981982836747046
831.87931,,0.0,831.421,0.4440000057220459,-2.632944080051622
832.344828,,0.0,831.887,0.44999998807907104,-2.6197517899085536
832.810345,,0.0,832.352,0.45100000500679016,-2.6174487548296925
833.2758620000001,,0.0,832.818,0.45500001311302185,-2.6086096206689127
833.741379,,0.0,833.284,0.4390000104904175,-2.643347415453606
834.2068969999999,,0.0,833.75,0.453000009059906,-2.612733731514007
834.672414,,0.0,834.215,0.4560000002384186,-2.606096467387236
835.137931,,0.0,834.681,0.4569999873638153,-2.603830549460326
835.603448,,0.0,835.144,0.45100000500679016,-2.616831888183681
836.068966,,0.0,835.607,0.4230000078678131,-2.6777832355981777
836.534483,,0.0,836.07,0.4169999957084656,-2.69082683555165
837.0,,0.0,836.539,0.46299999952316284,-2.5906038034869283
837.4655170000001,,0.0,837.0,0.44699999690055847,-2.6254788843230465
837.9310340000001,,0.0,837.469,0.4519999921321869,-2.614623117491339
838.3965519999999,,0.0,837.935,0.4429999887943268,-2.634288139189504
838.862069,,0.0,838.397,0.4429999887943268,-2.6343632784801025
839.327586,,0.0,838.863,0.4490000009536743,-2.6213819779490937
839.793103,,0.0,839.329,0.45500001311302185,-2.6084127986997645
840.2586210000001,,0.0,839.795,0.4390000104904175,-2.643382631043828
840.724138,,0.0,840.255,0.5139999985694885,-2.480099548718506
841.189655,,0.0,840.72,0.45100000500679016,-2.617469131316366
841.655172,,0.0,841.185,0.4519999921321869,-2.6154016602529095
842.12069,,0.0,841.65,0.4410000145435333,-2.6394722940332387
842.586207,,0.0,842.118,0.453000009059906,-2.6134254098244907
843.0517239999999,,0.0,842.581,0.4620000123977661,-2.593902481492966
843.517241,,0.0,843.044,0.4429999887943268,-2.635367098196915
843.982759,,0.0,843.513,0.44699999690055847,-2.626706460879908
844.4482760000001,,0.0,843.977,0.45500001311302185,-2.6093135041436413
844.913793,,0.0,844.44,0.4410000145435333,-2.639832094108189
845.37931,,0.0,844.905,0.4429999887943268,-2.6354735575308914
845.844828,,0.0,845.37,0.44699999690055847,-2.626739170395341
846.310345,,0.0,845.835,0.45100000500679016,-2.6179868058879086
846.775862,,0.0,846.3,0.46399998664855957,-2.5896095164742405
847.2413789999999,,0.0,846.765,0.45399999618530273,-2.611325416703524
847.706897,,0.0,847.232,0.43799999356269836,-2.6461003043098272
848.172414,,0.0,847.698,0.46399998664855957,-2.589362002184872
848.637931,,0.0,848.162,0.4560000002384186,-2.6066902623442267
849.1034480000001,,0.0,848.628,0.4620000123977661,-2.593512874532425
849.5689659999999,,0.0,849.096,0.48100000619888306,-2.552011434218734
850.0344829999999,,0.0,849.558,0.3869999945163727,-2.756700042839373
850.5,,0.0,850.021,0.44699999690055847,-2.625884627652654
850.965517,,0.0,850.484,0.45500001311302185,-2.608369245528842
851.431034,,0.0,850.95,0.4390000104904175,-2.643153229635588
851.896552,,0.0,851.416,0.43799999356269836,-2.6452718797958577
852.362069,,0.0,851.881,0.4519999921321869,-2.614726883040141
852.827586,,0.0,852.349,0.4429999887943268,-2.634307752710241
853.2931030000001,,0.0,852.814,0.44999998807907104,-2.619047697305446
853.758621,,0.0,853.274,0.46399998664855957,-2.588554254593575
854.2241379999999,,0.0,853.74,0.45100000500679016,-2.616900560586225
854.689655,,0.0,854.207,0.46399998664855957,-2.588617349713051
855.155172,,0.0,854.673,0.47099998593330383,-2.5734195062536105
855.62069,,0.0,855.136,0.4580000042915344,-2.6018060876543045
