Trial: ,46
Threshold: ,0.0
Maximum EMG: ,0.12168406864775472
Success: ,True

EMG Time,Raw EMG,Filtered EMG,Force Time,Raw Force (V),Filtered Force (N)
0.0,samples,3.493393810656122e-05,0.464,0.492000013589859,-2.5278835925600713
0.46551699999999996,time,3.5983315987635374e-05,0.931,0.5080000162124634,-2.4926351782623404
0.9310339999999999,value,3.6949789359181793e-05,1.394,0.4620000123977661,-2.5924813743881225
1.396552,,3.7826333749349094e-05,1.861,0.43799999356269836,-2.6444289509014287
1.862069,,3.8605941807020366e-05,2.331,0.46399998664855957,-2.5874873461429755
2.327586,,3.9281649010114286e-05,2.789,0.4620000123977661,-2.591599667759715
2.793103,,3.984656033088033e-05,3.26,0.47200000286102295,-2.569626841036578
3.258621,,4.0293877804431765e-05,3.719,0.47600001096725464,-2.560789533231908
3.724138,,4.0616928941216225e-05,4.19,0.46299999952316284,-2.5890564062579333
4.189654999999999,,4.080919591855178e-05,4.656,0.46700000762939453,-2.580355099542719
4.655172,,4.08643454807748e-05,5.121,0.46000000834465027,-2.5956874099432845
5.12069,,4.0776259471974536e-05,5.579,0.5059999823570251,-2.495616380211476
5.586207,,4.053906591974794e-05,6.046,0.4569999873638153,-2.6025765454096366
6.051723999999999,,4.014717058291802e-05,6.512,0.4690000116825104,-2.5766928567725174
6.517241,,3.959528887074209e-05,6.98,0.45399999618530273,-2.6096791602708267
6.982759,,3.8878478035814515e-05,7.442,0.4690000116825104,-2.577342776891045
7.448276,,3.7992169537665555e-05,7.905,0.47999998927116394,-2.5537467544849997
7.913793000000001,,3.693220146899723e-05,8.375,0.46000000834465027,-2.5977026856459537
8.379309999999998,,3.5694850931602735e-05,8.839,0.4569999873638153,-2.6046243530045383
8.844828000000001,,3.427686624431242e-05,9.302,0.46299999952316284,-2.591929282722163
9.310345,,3.26754988608223e-05,9.767,0.45100000500679016,-2.618429555523139
9.775862,,3.08885348710151e-05,10.235,0.46399998664855957,-2.5904324358987525
10.241379,,2.8914325955404765e-05,10.7,0.4659999907016754,-2.586358921084961
10.706897,,2.6751819658649224e-05,11.165,0.46399998664855957,-2.590949573579808
11.172414,,2.440058884470818e-05,11.631,0.4580000042915344,-2.604197376799455
11.637931,,2.1860860193199162e-05,12.091,0.46799999475479126,-2.582524211829416
12.103447999999998,,1.9133541593851104e-05,12.557,0.4580000042915344,-2.6043579020037924
12.568966000000001,,1.62202482936961e-05,13.024,0.4350000023841858,-2.6544472566050348
13.034483,,1.3123327649801826e-05,13.49,0.45899999141693115,-2.602074630355354
13.5,,9.845882338954004e-06,13.95,0.4569999873638153,-2.606283654787099
13.965517,,6.391791874774472e-06,14.42,0.49000000953674316,-2.534180320982732
14.431034,,2.765732282329461e-06,14.883,0.46299999952316284,-2.5927422091981267
14.896552,,1.0268062196325617e-06,15.346,0.46799999475479126,-2.5815419535271924
15.362069,,4.979503678051659e-06,15.811,0.46399998664855957,-2.589914140482831
15.827586000000002,,9.085197154592863e-06,16.274,0.45100000500679016,-2.617869650183295
16.293103,,1.3335869910645576e-05,16.74,0.4569999873638153,-2.6044182744888302
16.758621,,1.7722643172226084e-05,17.205,0.46299999952316284,-2.5909658591296663
17.224138,,2.223577061575141e-05,17.671,0.46000000834465027,-2.597131788936853
17.689655,,2.6864635712050047e-05,18.136,0.46799999475479126,-2.5793543778133126
18.155172,,3.1597752061727194e-05,18.601,0.46700000762939453,-2.5812170015920044
18.62069,,3.642276685009625e-05,19.068,0.46399998664855957,-2.587478911438034
19.086207,,4.1326467544313646e-05,19.534,0.4620000123977661,-2.5916125760123174
19.551724,,4.629479194910121e-05,19.994,0.46299999952316284,-2.5892678537001435
20.017241000000002,,5.1312841730502674e-05,20.464,0.4790000021457672,-2.5543056143556364
20.482758999999998,,5.636489950949319e-05,20.927,0.4659999907016754,-2.582589274031581
20.948276,,6.143444961894042e-05,21.39,0.45899999141693115,-2.5978675353384926
21.413793000000002,,6.650420260840291e-05,21.858,0.4819999933242798,-2.5478520348616644
21.87931,,7.155612357154735e-05,22.321,0.46000000834465027,-2.5959382193393834
22.344828,,7.657146436057663e-05,22.787,0.46700000762939453,-2.5809015523836165
22.810344999999998,,8.153079974099181e-05,23.252,0.45100000500679016,-2.6160256140956686
23.275862,,8.641406752827413e-05,23.718,0.46700000762939453,-2.5814766460275393
23.741379,,9.12006127356795e-05,24.183,0.46000000834465027,-2.5970706390783476
24.206897,,9.58692357493059e-05,24.649,0.4650000035762787,-2.5865441255166797
24.672414,,0.00010039824453293846,25.114,0.4699999988079071,-2.5760293927749625
25.137931,,0.00010476551085092394,25.58,0.45399999618530273,-2.6112663854173666
25.603448,,0.00010894853048249689,26.039,0.5009999871253967,-2.5092365092345212
26.068966,,0.00011292448738560413,26.505,0.47600001096725464,-2.5640450170154665
26.534483,,0.00011667032175238238,26.976,0.47600001096725464,-2.5643525851358326
27.0,,0.00012016280188207096,27.438,0.45500001311302185,-2.6103684656299326
27.465517,,0.0001233785997803237,27.899,0.4869999885559082,-2.540864798897466
27.931034,,0.00012629437037666274,28.368,0.46700000762939453,-2.58459269051006
28.396552,,0.00012888683423423542,28.832,0.4959999918937683,-2.521503670773533
28.862069,,0.000131132863608142,29.294,0.4699999988079071,-2.5781742065776916
29.327586,,0.0001330095716904439,29.759,0.4869999885559082,-2.541096230750401
29.793103000000002,,0.00013449440486159496,30.224,0.4819999933242798,-2.5518832498482844
30.258620999999998,,0.00013556523774951743,30.69,0.46700000762939453,-2.5843950930792925
30.724138,,0.00013620047087892892,31.157,0.4480000138282776,-2.6255662745680635
31.189655000000002,,0.0001363791306748784,31.623,0.47699999809265137,-2.562114548621617
31.655172000000004,,0.0001360809715658328,32.087,0.46399998664855957,-2.5901262655691664
32.12069,,0.0001352865799131394,32.553,0.46399998664855957,-2.589785296173281
32.586207,,0.00013397747947534156,33.016,0.4659999907016754,-2.585067547195655
33.051724,,0.00013213623809772,33.486,0.47200000286102295,-2.5716266242810595
33.517241000000006,,0.00012974657529964267,33.946,0.4690000116825104,-2.5777961121714843
33.982759,,0.00012679347041490965,34.409,0.45100000500679016,-2.616659483944349
34.448276,,0.00012326327092335442,34.879,0.4569999873638153,-2.6032607675906143
34.913793,,0.00011914380059558975,35.342,0.47200000286102295,-2.5702893431213134
35.37931,,0.00011442446705704626,35.808,0.49000000953674316,-2.5308249689424627
35.844828,,0.00010909636836242783,36.27,0.4749999940395355,-2.563305824722987
36.310345,,0.0001031523981574839,36.736,0.4480000138282776,-2.621986816843272
36.775862,,9.658734899165964e-05,37.202,0.45100000500679016,-2.6153702532160668
37.241378999999995,,8.939801333281556e-05,37.668,0.4690000116825104,-2.576138106988514
37.706897000000005,,8.158328182389303e-05,38.135,0.46700000762939453,-2.580542745028242
38.172414,,7.31442383112277e-05,38.594,0.453000009059906,-2.6111532566039313
38.637931,,6.408425116526345e-05,39.061,0.47200000286102295,-2.569927079065465
39.103448,,5.440906040677841e-05,39.527,0.46799999475479126,-2.578862808751848
39.568965999999996,,4.4126860145484905e-05,39.994,0.4749999940395355,-2.5638790393682758
40.034483,,3.324837583308884e-05,40.457,0.46700000762939453,-2.581612261908191
40.5,,2.1786935829670373e-05,40.92,0.46299999952316284,-2.5906590268439755
40.965517,,9.758536780654184e-06,41.39,0.46399998664855957,-2.588830672461239
41.431034,,2.8180976982512864e-06,41.854,0.45399999618530273,-2.6109749744942166
41.896552,,1.5921465528877317e-05,42.316,0.47099998593330383,-2.574292410716519
42.362069000000005,,2.952724236817852e-05,42.782,0.47200000286102295,-2.5724534799539627
42.827586000000004,,4.360824598692832e-05,43.246,0.45899999141693115,-2.601090533677708
43.293103,,5.813440931326065e-05,43.711,0.4399999976158142,-2.6427655518796604
43.758621,,7.307276261514594e-05,44.175,0.4650000035762787,-2.5885381023039997
44.224138,,8.838742528416316e-05,44.641,0.46000000834465027,-2.599620530882445
44.689655,,0.00010403960766907616,45.106,0.47999998927116394,-2.5561808378514046
45.155172,,0.000119987623391702,45.572,0.4300000071525574,-2.6651868966343675
45.620689999999996,,0.00013618691255933563,46.039,0.453000009059906,-2.6150909298465352
46.086206999999995,,0.0001525900762675418,46.504,0.4860000014305115,-2.5431470025753633
46.551724,,0.0001691469227644193,46.965,0.48500001430511475,-2.5452155634804625
47.017241,,0.00018580452562247008,47.434,0.4740000069141388,-2.569012254358127
47.482759,,0.00020250729423696,47.898,0.45899999141693115,-2.6014711999438083
47.948276,,0.00021919705694014186,48.36,0.46000000834465027,-2.5990270295577216
48.413793,,0.00023581315698892964,48.828,0.4490000009536743,-2.6226908034357317
48.879310000000004,,0.0002522925616495887,49.29,0.46799999475479126,-2.5809686124729314
49.344828,,0.00026856998456676397,49.756,0.45899999141693115,-2.6002319233401963
49.810345,,0.00028457802156574324,50.22,0.46299999952316284,-2.591166635141343
50.275862,,0.00030024729999629133,50.685,0.4659999907016754,-2.5842846492842306
50.741379,,0.0003155066416837489,51.15,0.46799999475479126,-2.5795962933068717
51.206897,,0.0003302832395084307,51.616,0.4779999852180481,-2.55750359802215
51.672414,,0.00034450284758775736,52.084,0.4790000021457672,-2.555052444320726
52.137931,,0.00035808998498709966,52.55,0.46399998664855957,-2.5875018882084855
52.603448,,0.00037096815283509804,53.013,0.46000000834465027,-2.5960359005003935
53.068966,,0.0003830600646673504,53.476,0.45899999141693115,-2.5980897814941852
53.534483,,0.0003942878897689531,53.939,0.4650000035762787,-2.5849525431811617
54.0,,0.00040457350923156553,54.409,0.47200000286102295,-2.569697743067648
54.465517,,0.0004138387843845816,54.872,0.46399998664855957,-2.5871835721270937
54.931034,,0.00042200583720278223,55.334,0.46299999952316284,-2.5894779889842354
55.396552,,0.00042899734223466717,55.8,0.46000000834465027,-2.5961854838711864
55.862069,,0.00043473682953670074,56.27,0.4729999899864197,-2.568084922630394
56.327586,,0.00043914899803912475,56.729,0.4620000123977661,-2.5923149733537008
56.793102999999995,,0.0004421600387089884,57.194,0.45899999141693115,-2.5991510244888447
57.258621000000005,,0.00044369796681581746,57.66,0.45500001311302185,-2.6081918091666876
57.724138,,0.0004436929625451019,58.124,0.4620000123977661,-2.593283632708855
58.189655,,0.0004420777191447418,58.59,0.4519999921321869,-2.6154180500881425
58.655172,,0.00043878779772998184,59.054,0.46700000762939453,-2.583080849731137
59.120689999999996,,0.0004337619878134259,59.52,0.4650000035762787,-2.587764466697807
59.586207,,0.00042694267256868584,59.99,0.460999995470047,-2.5967788975552932
60.051724,,0.00041827619777934594,60.453,0.46399998664855957,-2.5905071593349587
60.517241,,0.0004077132433694666,60.921,0.4659999907016754,-2.586370194127352
60.982758999999994,,0.0003952091963580728,61.383,0.4749999940395355,-2.566931762726693
61.448276,,0.00038072452402824634,61.846,0.45100000500679016,-2.619332711863888
61.913793,,0.000364225146051832,62.316,0.5389999747276306,-2.427664667053462
62.379310000000004,,0.0003456828042636546,62.774,0.4749999940395355,-2.5670876711802797
62.84482800000001,,0.000325075428734804,63.239,0.5,-2.5125482118726925
63.310345000000005,,0.0003023874987532753,63.704,0.46700000762939453,-2.5843111218789887
63.775862000000004,,0.0002776103972823319,64.176,0.4620000123977661,-2.5950178584813446
64.241379,,0.0002507427574326508,64.634,0.4690000116825104,-2.579533584219663
64.706897,,0.00022179079945388146,65.105,0.46700000762939453,-2.5836173297836758
65.172414,,0.00019076865672500187,65.564,0.47600001096725464,-2.5637045952466075
65.637931,,0.00015769868920113492,66.029,0.39899998903274536,-2.7311352325814404
66.103448,,0.00012261178275754168,66.495,0.46399998664855957,-2.5891888369312275
66.56896599999999,,8.554763285947743e-05,66.965,0.44699999690055847,-2.625892556490609
67.03448300000001,,4.65550109796582e-05,67.427,0.47200000286102295,-2.5711031207422805
67.5,,5.692012183704416e-06,67.89,0.4659999907016754,-2.583871309483267
67.965517,,3.697371769133003e-05,68.36,0.46299999952316284,-2.590131982905227
68.431034,,8.136477682931031e-05,68.819,0.4650000035762787,-2.5855363709184647
68.896552,,0.00012739382574570635,69.284,0.4620000123977661,-2.591878087788719
69.362069,,0.0001749634306420439,69.749,0.4569999873638153,-2.6026271489178754
69.827586,,0.00022396593330041112,70.216,0.4620000123977661,-2.5916438690258143
70.293103,,0.00027428334897613207,70.682,0.45500001311302185,-2.606861170830024
70.75862099999999,,0.0003257872937008987,71.148,0.46700000762939453,-2.580741506375362
71.22413800000001,,0.00037833894235987875,71.614,0.46399998664855957,-2.5873576099123
71.689655,,0.0004317890188551282,72.08,0.4650000035762787,-2.5853120878445552
72.15517200000001,,0.00048597781960455064,72.539,0.46700000762939453,-2.581136561541064
72.62069,,0.000540735271541767,73.009,0.4729999899864197,-2.5682890188013325
73.086207,,0.0005958810256897998,73.471,0.4690000116825104,-2.5772630926328324
73.551724,,0.0006512245873083627,73.939,0.4650000035762787,-2.586264395952528
74.017241,,0.0007065654835578807,74.401,0.41999998688697815,-2.68460963549899
74.482759,,0.0007616934695234059,74.865,0.47200000286102295,-2.5716364225398762
74.94827599999999,,0.0008163887732567155,75.335,0.4560000002384186,-2.6068113912998694
75.41379300000001,,0.0008704223803148722,75.801,0.421999990940094,-2.6811925541263304
75.87931,,0.0009235563582557774,76.263,0.4659999907016754,-2.5856208586547473
76.344828,,0.0009755442216370102,76.729,0.46700000762939453,-2.58370295045929
76.810345,,0.0010261313378833235,77.195,0.46299999952316284,-2.5926415010192465
77.275862,,0.0010750553737665723,77.66,0.45899999141693115,-2.6015366420755663
77.741379,,0.0011220467818024455,78.125,0.4580000042915344,-2.603847235804467
78.206897,,0.0011668293264664746,78.59,0.46000000834465027,-2.5995695663320824
78.67241399999999,,0.0012091206511695388,79.05,0.44200000166893005,-2.638810633522813
79.137931,,0.0012486328861756534,79.515,0.45500001311302185,-2.610459121271427
79.603448,,0.0012850732945397206,79.984,0.5009999871253967,-2.5101579794066717
80.068966,,0.0013181449518457897,80.446,0.47200000286102295,-2.5732025574320825
80.53448300000001,,0.0013475474604892404,80.909,0.45399999618530273,-2.612234220542682
81.0,,0.0013729777054766207,81.379,0.47600001096725464,-2.564078844910193
81.465517,,0.0013941306530789175,81.839,0.46299999952316284,-2.5921422364647606
81.931034,,0.0014107001759568604,82.309,0.46299999952316284,-2.59185751139641
82.396552,,0.0014223798854240458,82.774,0.4620000123977661,-2.5937350705375484
82.86206899999999,,0.0014288639851733585,83.239,0.4230000078678131,-2.6783952828618194
83.327586,,0.0014298481932969054,83.704,0.46399998664855957,-2.5887678781350933
83.79310299999999,,0.001425030735729197,84.169,0.4729999899864197,-2.5688699155442714
84.258621,,0.0014141133121321164,84.635,0.45399999618530273,-2.60999504228256
84.72413800000001,,0.0013968019432370191,85.094,0.46299999952316284,-2.5901475380688965
85.189655,,0.0013728078246018167,85.56,0.47200000286102295,-2.570336711522724
85.65517200000001,,0.001341848467158402,86.025,0.4659999907016754,-2.583248050411672
86.12069,,0.0013036490844851776,86.491,0.453000009059906,-2.6114573279445223
86.586207,,0.001257943611179794,86.954,0.4690000116825104,-2.5765368422519566
87.051724,,0.0012044749361418174,87.424,0.4959999918937683,-2.5177030983730786
87.517241,,0.00114299527682202,87.887,0.45500001311302185,-2.6070687683448424
87.98275899999999,,0.0010732682807884952,88.349,0.4729999899864197,-2.5679447742093933
88.448276,,0.000995072207379098,88.815,0.46299999952316284,-2.589870660426989
88.913793,,0.000908200402510429,89.279,0.46700000762939453,-2.5813386781150225
89.37931,,0.0008124573677780701,89.746,0.4620000123977661,-2.592452057773331
89.844828,,0.000707656846420717,90.212,0.4729999899864197,-2.5687375499240743
90.310345,,0.0005936305333514007,90.678,0.46299999952316284,-2.5907970255199753
90.775862,,0.0004702410592594534,91.142,0.46700000762939453,-2.5823693775271996
91.241379,,0.00033737647534374084,91.608,0.4569999873638153,-2.6044481208511674
91.706897,,0.00019492112016135938,92.072,0.46399998664855957,-2.5894861146663963
92.17241399999999,,4.274560397327611e-05,92.537,0.4729999899864197,-2.5701539507980544
92.63793100000001,,0.00011923948440020497,93.005,0.460999995470047,-2.596551816481468
93.103448,,0.00029101845139869613,93.468,0.47200000286102295,-2.572811421528602
93.568966,,0.0004725274033289233,93.931,0.4519999921321869,-2.616573198730972
94.03448300000001,,0.0006638320939910573,94.394,0.45899999141693115,-2.601470125245812
94.5,,0.0008651514492251272,94.865,0.46299999952316284,-2.592857290029327
94.965517,,0.0010765094365604883,95.327,0.47600001096725464,-2.5645873824565286
95.431034,,0.0012974079411486425,95.792,0.47200000286102295,-2.573303377243027
95.896552,,0.0015272807662167413,96.256,0.48500001430511475,-2.544930918524693
96.36206899999999,,0.0017665276927920305,96.722,0.46399998664855957,-2.5905829858560954
96.827586,,0.0020164052222466384,97.187,0.4699999988079071,-2.577365552533149
97.293103,,0.002276812728515874,97.653,0.4690000116825104,-2.5793577086570743
97.758621,,0.002544750923973464,98.12,0.4490000009536743,-2.6227095997539447
98.224138,,0.002817644370284467,98.586,0.4790000021457672,-2.5571016075377226
98.689655,,0.003099161721836391,99.05,0.46700000762939453,-2.582976819031041
99.155172,,0.00339702686282054,99.516,0.5339999794960022,-2.4367258556254794
99.62069,,0.003709305477552251,99.976,0.4359999895095825,-2.649947397443343
100.086207,,0.004017967518730092,100.446,0.4779999852180481,-2.5581641941199837
100.551724,,0.004311951177476251,100.909,0.47999998927116394,-2.5535420905577495
101.017241,,0.004618798983710266,101.372,0.4449999928474426,-2.629553247442984
101.482759,,0.004982469479289462,101.84,0.45899999141693115,-2.5988423807142285
101.948276,,0.0053805876292804065,102.301,0.45100000500679016,-2.616100299187109
102.413793,,0.005704063426038623,102.767,0.46700000762939453,-2.581114136730568
102.87931,,0.00591098963306978,103.235,0.4659999907016754,-2.583211889507992
103.344828,,0.006191305092461199,103.701,0.46299999952316284,-2.589715801357168
103.810345,,0.006781644736199902,104.165,0.46000000834465027,-2.5962695497214856
104.275862,,0.007478973533578365,104.624,0.4690000116825104,-2.5767285100875537
104.741379,,0.007633616924086623,105.091,0.47699999809265137,-2.5594123292045103
105.206897,,0.007146308559167657,105.557,0.4779999852180481,-2.557388555976803
105.672414,,0.007285658876034227,106.024,0.4569999873638153,-2.603332003496935
106.13793100000001,,0.009291587097913586,106.49,0.47699999809265137,-2.5599819543861493
106.603448,,0.01147943533055448,106.953,0.46700000762939453,-2.582015192493859
107.068966,,0.009310233906518122,107.416,0.48500001430511475,-2.543061859888025
107.534483,,0.0005099548403808753,107.879,0.4659999907016754,-2.584725782303927
108.0,,0.010631090739546573,108.35,0.4650000035762787,-2.587173030399522
108.46551699999999,,0.016648291384978937,108.815,0.47999998927116394,-2.5547527640372882
108.931034,,0.014501175036927752,109.279,0.46299999952316284,-2.5920317539826634
109.396552,,0.007764484233204816,109.745,0.46299999952316284,-2.5922491579447
109.862069,,0.0018264494891827338,110.209,0.46000000834465027,-2.598971636762881
110.32758600000001,,0.0007887574012896034,110.674,0.46299999952316284,-2.5925857907908694
110.793103,,0.0006379978473760265,111.139,0.4620000123977661,-2.594873473112771
111.258621,,0.0006415299423849867,111.604,0.47999998927116394,-2.5557222982471455
111.724138,,0.0017022482498871261,112.068,0.46000000834465027,-2.59931300680682
112.189655,,0.002140812933341995,112.534,0.46299999952316284,-2.5927481627371223
112.655172,,0.0027976331296502713,112.994,0.46799999475479126,-2.5817806175017566
113.12069,,0.004969525963518073,113.464,0.4560000002384186,-2.607807200800127
113.586207,,0.008631948924232394,113.927,0.46399998664855957,-2.590222009294631
114.051724,,0.011737297100285125,114.39,0.47699999809265137,-2.5617094028330185
114.51724100000001,,0.01199908473584865,114.858,0.47099998593330383,-2.5745626237589585
114.982759,,0.009306707061142274,115.32,0.4560000002384186,-2.6070022889578035
115.448276,,0.005738679195603154,115.786,0.46399998664855957,-2.589319864432738
115.913793,,0.003218656028346317,116.252,0.4690000116825104,-2.5781679463549243
116.37931,,0.00192569382528436,116.718,0.4580000042915344,-2.6018770997381893
116.84482799999999,,0.001176002514110273,117.183,0.45899999141693115,-2.5994533686406127
117.310345,,0.0008902962528128652,117.649,0.45899999141693115,-2.5992269196371174
117.77586199999999,,0.001397789326330701,118.113,0.4779999852180481,-2.5576314053838716
118.241379,,0.0023469480914586737,118.579,0.4429999887943268,-2.6337142768316792
118.70689700000001,,0.002849657930409847,119.042,0.48899999260902405,-2.5333631427267624
119.172414,,0.0027281321252753824,119.509,0.46399998664855957,-2.5877360875674396
119.63793100000001,,0.002764900668254854,119.972,0.46799999475479126,-2.578970862384418
120.103448,,0.003325139639076381,120.435,0.4650000035762787,-2.585500640582173
120.568966,,0.00332424076318883,120.905,0.47200000286102295,-2.5702883243612837
121.034483,,0.0013335412031817682,121.368,0.4690000116825104,-2.5769053399796698
121.5,,0.002292513443340648,121.831,0.46399998664855957,-2.5879199739993957
121.96551699999999,,0.005156700630061314,122.294,0.47600001096725464,-2.561933802787676
122.431034,,0.0052447646817567065,122.76,0.4560000002384186,-2.6056958045792538
122.896552,,0.003206579668199594,123.225,0.46299999952316284,-2.5906599786604727
123.362069,,0.0014490712562546118,123.69,0.4729999899864197,-2.5691070974736268
123.827586,,0.0011494473169990176,124.157,0.46399998664855957,-2.5889597315420283
124.293103,,0.0011746348668276035,124.623,0.49000000953674316,-2.532562780888435
124.758621,,5.3847071365761e-05,125.088,0.4699999988079071,-2.5763788159440706
125.22413800000001,,0.00207876616320237,125.553,0.46299999952316284,-2.591860314456836
125.68965500000002,,0.003854383276771495,126.016,0.46799999475479126,-2.5811794092889127
126.15517200000001,,0.004034261782746231,126.486,0.47699999809265137,-2.5617585482976537
126.62069000000001,,0.002216055570192527,126.946,0.45399999618530273,-2.612023453564482
127.086207,,0.0008747846141842822,127.409,0.46799999475479126,-2.581643049912487
127.55172400000001,,0.0034835279612786822,127.876,0.4650000035762787,-2.5882607436960905
128.017241,,0.0041125074071656715,128.346,0.45100000500679016,-2.618802405168061
128.48275900000002,,0.0031286894501928167,128.804,0.4569999873638153,-2.605729286525588
128.948276,,0.002456776685700912,129.274,0.4749999940395355,-2.566470349032443
129.413793,,0.0033365795781076127,129.74,0.47600001096725464,-2.5642070925700953
129.87931,,0.004842190137515002,130.201,0.46399998664855957,-2.5902276103922475
130.344828,,0.00496575225857019,130.666,0.4790000021457672,-2.5573898383731386
130.81034499999998,,0.0029847615482705052,131.131,0.4519999921321869,-2.616025888273297
131.275862,,0.00041448462458562607,131.596,0.47200000286102295,-2.572242138595006
131.741379,,0.000581529098870619,132.061,0.4880000054836273,-2.5371558253027864
132.206897,,0.0004378813402136527,132.527,0.46299999952316284,-2.591383592543835
132.67241399999997,,0.0017748307835915977,132.994,0.46399998664855957,-2.5889640081360397
133.13793099999998,,0.001439594197586194,133.457,0.46399998664855957,-2.588728502348299
133.60344800000001,,0.001107374689867431,133.924,0.46700000762939453,-2.581969700825196
134.06896600000002,,0.004891885239304262,134.387,0.47200000286102295,-2.570873041642154
134.53448300000002,,0.008175176884535451,134.85,0.46399998664855957,-2.5881244079878996
135.0,,0.009133266134258036,135.32,0.4690000116825104,-2.5770843754011037
135.465517,,0.006929779406531636,135.786,0.46399998664855957,-2.5878666053122097
135.931034,,0.0028419044723561842,136.245,0.4620000123977661,-2.592151918255883
136.396552,,0.00039607252402522005,136.71,0.460999995470047,-2.5943001194419733
136.862069,,0.001182959854552958,137.176,0.46700000762939453,-2.581239929822798
137.327586,,0.0005908942052726184,137.642,0.46399998664855957,-2.5878292082733054
137.793103,,0.000686880963410178,138.109,0.4560000002384186,-2.6053515484586685
138.258621,,0.001835949269113362,138.574,0.4729999899864197,-2.568444582923656
138.724138,,0.0026157236551792007,139.039,0.45100000500679016,-2.6165374799153502
139.189655,,0.0021307256871698254,139.505,0.46399998664855957,-2.5884053765770756
139.655172,,0.0011463619329033826,139.965,0.46799999475479126,-2.5799024954221634
140.12069,,0.0005843087796091316,140.434,0.4620000123977661,-2.5932005241050535
140.586207,,0.0001390298374750685,140.895,0.46399998664855957,-2.5890768602003758
141.05172399999998,,0.0006031265553613717,141.365,0.48399999737739563,-2.545737152316511
141.51724099999998,,0.0006160110964713845,141.828,0.4699999988079071,-2.5764634344417323
141.982759,,0.0013478432136990388,142.29,0.45899999141693115,-2.6006390395565697
142.44827600000002,,0.004151318390301453,142.756,0.47999998927116394,-2.5550768915761197
142.913793,,0.004600463971949452,143.221,0.46299999952316284,-2.592276347778853
143.37931,,0.0010695169507677702,143.687,0.46399998664855957,-2.590228417732235
143.844828,,0.004150568562414459,144.153,0.47200000286102295,-2.5728943400586712
144.310345,,0.006760441680900443,144.619,0.46000000834465027,-2.599094841827114
144.77586200000002,,0.0042867232797750305,145.084,0.45100000500679016,-2.618719868040632
145.241379,,0.002039990811929555,145.55,0.4699999988079071,-2.5773030220120505
145.706897,,0.008398125256649578,146.013,0.4690000116825104,-2.5794197593290074
146.172414,,0.010971278703604545,146.476,0.47999998927116394,-2.5553549829478794
146.637931,,0.00828787945038197,146.939,0.3630000054836273,-2.8101244795349367
147.103448,,0.0021337300956245386,147.409,0.48100000619888306,-2.552884882451003
147.568966,,0.0035976388969963737,147.869,0.4650000035762787,-2.587560756390845
148.034483,,0.005560710542017186,148.338,0.46299999952316284,-2.5917160626250833
148.5,,0.0031651381727735624,148.804,0.48899999260902405,-2.534855820797145
148.965517,,0.0013474797423531236,149.267,0.4390000104904175,-2.6435661239776347
149.43103399999998,,0.004692705932081348,149.733,0.46399998664855957,-2.5888788391958286
149.89655199999999,,0.004669240759269642,150.197,0.4860000014305115,-2.5407348095191047
150.362069,,0.0013901011670106177,150.663,0.45500001311302185,-2.608072428272966
150.82758600000003,,0.0029611905430409046,151.127,0.4790000021457672,-2.5556040718781277
151.293103,,0.005730259724409789,151.593,0.382999986410141,-2.764600341145382
151.758621,,0.005660877196623785,152.057,0.47699999809265137,-2.559685968990305
152.224138,,0.0035863116867671397,152.523,0.4650000035762787,-2.5857433083145933
152.68965500000002,,0.0013650332566445627,152.987,0.4620000123977661,-2.5922289184965623
153.155172,,9.823412783506948e-05,153.449,0.46299999952316284,-2.59003780867406
153.62069,,0.0004707866639129016,153.917,0.4560000002384186,-2.6053140760802584
154.086207,,0.0010259237449360234,154.38,0.453000009059906,-2.6119133050793915
154.551724,,0.0020236948510840153,154.85,0.46299999952316284,-2.5902256768123415
155.017241,,0.004045292343136745,155.313,0.4690000116825104,-2.577284533810852
155.482759,,0.007454762897317207,155.778,0.4699999988079071,-2.5752640589314915
155.948276,,0.011012689591542836,156.242,0.4519999921321869,-2.6146605165918055
156.413793,,0.01204989864488063,156.708,0.46399998664855957,-2.5887149295496754
156.87931,,0.009197684983937237,157.172,0.46799999475479126,-2.5802096373562606
157.34482799999998,,0.004386531579903337,157.638,0.4659999907016754,-2.584780630362529
157.81034499999998,,0.0010893251453195074,158.103,0.4650000035762787,-2.5871707917908564
158.275862,,0.0007059355198695893,158.568,0.4749999940395355,-2.565587178088982
158.741379,,0.001463034153867931,159.035,0.4779999852180481,-2.559238894119879
159.20689700000003,,0.0009584964980905258,159.501,0.45500001311302185,-2.609514720271871
159.672414,,0.0008899850233827158,159.961,0.453000009059906,-2.614014196617466
160.137931,,0.0018916416078334779,160.424,0.4519999921321869,-2.616306620940133
160.60344800000001,,0.000416126396548363,160.894,0.45500001311302185,-2.609852642687568
161.06896600000002,,0.0022667150492049768,161.357,0.46399998664855957,-2.590292528871898
161.534483,,0.002969560600619315,161.823,0.4560000002384186,-2.607733454368632
162.0,,7.960754005570309e-05,162.287,0.48899999260902405,-2.535813173705148
162.465517,,0.004473047368421449,162.752,0.45500001311302185,-2.6098261305130106
162.931034,,0.007295765969123084,163.22,0.4659999907016754,-2.585766209564227
163.396552,,0.007154358965912828,163.686,0.453000009059906,-2.613963512935692
163.862069,,0.005799500074541631,164.15,0.45399999618530273,-2.6116337075777816
164.327586,,0.005428412660304805,164.609,0.4729999899864197,-2.570066645402667
164.793103,,0.006101701366812747,165.076,0.46799999475479126,-2.5807702566820683
165.258621,,0.00592324979718032,165.541,0.4790000021457672,-2.5566040237627643
165.72413799999998,,0.00343505392819321,166.01,0.4690000116825104,-2.578183991807887
166.189655,,0.0006062593244476829,166.472,0.46399998664855957,-2.588871940731312
166.655172,,0.003864045230269337,166.935,0.4729999899864197,-2.5690663715419957
167.12069,,0.004433873693189184,167.405,0.47099998593330383,-2.573239417157891
167.58620699999997,,0.0022415819500532577,167.865,0.46399998664855957,-2.588324803938786
168.051724,,0.0009685023912273468,168.335,0.45399999618530273,-2.6099707291754926
168.517241,,0.0029659893653860626,168.8,0.4650000035762787,-2.585894180004288
168.98275900000002,,0.0029387125628689012,169.263,0.44699999690055847,-2.625031083105879
169.44827600000002,,0.0021633441171584385,169.729,0.4790000021457672,-2.555270262863201
169.913793,,0.002378135351928652,170.194,0.4699999988079071,-2.574869371402602
170.37931,,0.003591750070130876,170.66,0.46399998664855957,-2.5879678347930146
170.844828,,0.004029367808359174,171.125,0.45399999618530273,-2.609815783520957
171.310345,,0.002309113734459996,171.59,0.47600001096725464,-2.5619799594503143
171.775862,,0.0008858252456906906,172.05,0.45100000500679016,-2.6165705347467267
172.241379,,0.003708194057008051,172.515,0.4819999933242798,-2.549182638166403
172.706897,,0.005202918119732973,172.983,0.47999998927116394,-2.5537106807342704
173.172414,,0.005539295818702743,173.446,0.4749999940395355,-2.564789490906898
173.637931,,0.004459439742936433,173.909,0.49000000953674316,-2.532304390684452
174.103448,,0.0010199141539103717,174.379,0.4729999899864197,-2.569539179229967
174.568966,,0.004517854934685708,174.839,0.4860000014305115,-2.541411622141959
175.034483,,0.009697530546096147,175.309,0.46299999952316284,-2.591707111073633
175.5,,0.011723939290128013,175.774,0.46399998664855957,-2.589701758673389
175.96551699999998,,0.009964955309833833,176.238,0.4860000014305115,-2.5419263031410084
176.43103399999998,,0.006312912924936388,176.704,0.45500001311302185,-2.609596056277253
176.896552,,0.0035002715494739526,177.168,0.45899999141693115,-2.600986801915645
177.36206900000002,,0.003081866188053996,177.634,0.46000000834465027,-2.5988844305836447
177.827586,,0.004380017302235831,178.098,0.4519999921321869,-2.616358845915787
178.293103,,0.005208104220409106,178.563,0.46399998664855957,-2.5902279031637803
178.758621,,0.004169875142761884,179.028,0.45899999141693115,-2.601101083443829
179.224138,,0.002306426756164835,179.493,0.46299999952316284,-2.5923340348558948
179.68965500000002,,0.0018445470627681385,179.954,0.46700000762939453,-2.5835360515036734
180.155172,,0.0033414965510428977,180.424,0.46299999952316284,-2.5921386976195953
180.62069,,0.004960925497391469,180.887,0.46700000762939453,-2.5832868441596486
181.086207,,0.004736824995649694,181.349,0.47200000286102295,-2.5722350072553257
181.551724,,0.0025765964878291577,181.815,0.46000000834465027,-2.5982034973988624
182.01724099999998,,0.0003294263897928951,182.279,0.4790000021457672,-2.5566224095048558
182.482759,,0.0030433663160792587,182.745,0.46299999952316284,-2.591287928218943
182.948276,,0.00510934519795322,183.209,0.46399998664855957,-2.588916292375782
183.413793,,0.006091786398013586,183.674,0.4440000057220459,-2.632302466439207
183.87931,,0.0059361409342400485,184.139,0.45899999141693115,-2.5994482306500037
184.34482799999998,,0.0054746323857915455,184.604,0.4819999933242798,-2.549181543385361
184.81034499999998,,0.005663483462385905,185.069,0.4429999887943268,-2.6340121331588047
185.27586200000002,,0.006364202717650929,185.534,0.45899999141693115,-2.5990427587170486
185.74137900000002,,0.006476340426160882,186.002,0.4650000035762787,-2.5858888729232037
186.206897,,0.005157454601060314,186.465,0.46799999475479126,-2.5793017802554563
186.672414,,0.002564666720841084,186.935,0.46000000834465027,-2.59671195551216
187.137931,,0.00010555444428152466,187.398,0.45399999618530273,-2.6097979210069546
187.60344800000001,,0.000867529634967857,187.861,0.5419999957084656,-2.418122119539506
188.06896600000002,,0.001781013576801369,188.331,0.4620000123977661,-2.5924875959686635
188.534483,,0.00664521806021876,188.789,0.45399999618530273,-2.6100180246776135
189.0,,0.00961228118941107,189.26,0.45899999141693115,-2.5992524265281007
189.465517,,0.007420980289104548,189.726,0.4729999899864197,-2.5689014364491336
189.931034,,0.0017577314217537363,190.19,0.47200000286102295,-2.5712476607320163
190.39655199999999,,0.0020502526018422395,190.649,0.45500001311302185,-2.608465012562343
190.862069,,0.0010410327555758188,191.12,0.46399998664855957,-2.5890455405441264
191.327586,,0.0021457719251640785,191.586,0.45500001311302185,-2.6088442682828963
191.793103,,0.003062401363441409,192.05,0.44699999690055847,-2.6264617851606804
192.25862099999998,,0.0011022115040499295,192.516,0.4650000035762787,-2.587426288180442
192.72413799999998,,0.00034778773787285733,192.979,0.4749999940395355,-2.5658058648017574
193.189655,,0.0013302291968612283,193.442,0.4519999921321869,-2.616061450054096
193.655172,,0.0048590206396471715,193.905,0.46799999475479126,-2.5813262784738717
194.12069000000002,,0.006680181979068543,194.375,0.4390000104904175,-2.644603513468911
194.586207,,0.004612630822818881,194.836,0.46299999952316284,-2.592382988321905
195.051724,,5.632943303677461e-05,195.306,0.49000000953674316,-2.5335940730686923
195.517241,,0.0035593306146749085,195.764,0.46700000762939453,-2.583703046780415
195.98275900000002,,0.002909090003630424,196.232,0.46399998664855957,-2.590204767710679
196.448276,,0.0015426835723205605,196.697,0.4830000102519989,-2.5487429025702086
196.913793,,0.006833072608762445,197.164,0.4620000123977661,-2.5943955072756375
197.37931,,0.010226415509558303,197.63,0.4659999907016754,-2.5855536257024885
197.844828,,0.010817077359863541,198.094,0.5130000114440918,-2.48300453746268
198.310345,,0.009021256949025053,198.56,0.4699999988079071,-2.576512263492173
198.775862,,0.005775815100494166,199.024,0.4880000054836273,-2.537106295031423
199.241379,,0.0023156978295395952,199.49,0.46000000834465027,-2.597908587730297
199.706897,,0.0002831404586032426,199.95,0.453000009059906,-2.6129565815857037
200.172414,,0.0018102206506444333,200.419,0.46299999952316284,-2.590971672991431
200.63793099999998,,0.002766998691047216,200.88,0.48100000619888306,-2.5515671110697626
201.103448,,0.0034070367811764313,201.35,0.47600001096725464,-2.562286046940507
201.568966,,0.0034751743737447298,201.815,0.4699999988079071,-2.575203522578653
202.034483,,0.0030773414585445013,202.279,0.47600001096725464,-2.5620019625221757
202.5,,0.003047993238417409,202.744,0.46299999952316284,-2.590223738644152
202.965517,,0.0036806837610853993,203.209,0.47600001096725464,-2.5618328043130543
203.431034,,0.0034872334410774885,203.675,0.4869999885559082,-2.5378331776942966
203.896552,,0.0004602917556504835,204.14,0.45399999618530273,-2.609729096255311
204.36206900000002,,0.00496957274724054,204.605,0.4560000002384186,-2.6054084246687093
204.827586,,0.009300192670228703,205.065,0.46000000834465027,-2.5967660106940564
205.293103,,0.009390444145751794,205.53,0.45100000500679016,-2.616479461673397
205.758621,,0.0060161296051231645,205.998,0.47200000286102295,-2.5708635009937977
206.224138,,0.002826563070106751,206.461,0.4699999988079071,-2.5753818156238477
206.689655,,0.0021334129881431774,206.924,0.4699999988079071,-2.5755629055392437
207.155172,,0.0031219261206124663,207.394,0.46700000762939453,-2.582294543651821
207.62069,,0.003969139587591118,207.857,0.45899999141693115,-2.599928354737742
208.086207,,0.0038449760374422506,208.32,0.49000000953674316,-2.5325971267545513
208.551724,,0.0024134081114106816,208.785,0.47200000286102295,-2.5720150807201083
209.01724099999998,,0.0006373400755420935,209.252,0.46399998664855957,-2.5896359111368383
209.482759,,0.00427618781422992,209.717,0.4790000021457672,-2.5571315682292113
209.948276,,0.005937393093569124,210.183,0.47200000286102295,-2.572535709024252
210.413793,,0.004542492943300675,210.648,0.4569999873638153,-2.6053428036716046
210.87930999999998,,0.002763834940620298,211.113,0.46399998664855957,-2.5901899657545733
211.344828,,0.004237976104577769,211.579,0.4740000069141388,-2.5684683371398034
211.810345,,0.009041573638564835,212.043,0.4749999940395355,-2.5663192839825557
212.27586200000002,,0.01396660068187888,212.508,0.4620000123977661,-2.59463499683558
212.741379,,0.01701935626443242,212.972,0.46299999952316284,-2.592414061425082
213.206897,,0.019446663075972797,213.435,0.47600001096725464,-2.564014881441813
213.672414,,0.022897150838846546,213.905,0.4440000057220459,-2.6336229567746856
214.137931,,0.026450028556239708,214.368,0.4560000002384186,-2.6073424793279516
214.60344800000001,,0.02755481187884202,214.831,0.4569999873638153,-2.6050034145018466
215.068966,,0.025093620945313692,215.294,0.460999995470047,-2.596109083818355
215.534483,,0.02066424108721623,215.76,0.4620000123977661,-2.593736604698023
216.0,,0.017085572153516315,216.225,0.46799999475479126,-2.5804624602809225
216.465517,,0.016037156934384577,216.69,0.36500000953674316,-2.804660266004693
216.93103399999998,,0.016924913432132118,217.157,0.47999998927116394,-2.553919502799449
217.39655199999999,,0.017627584173708848,217.623,0.4300000071525574,-2.662666986039907
217.862069,,0.016370615862855157,218.087,0.48399999737739563,-2.544850302519198
218.327586,,0.013325330348766042,218.552,0.45899999141693115,-2.5991664993277133
218.793103,,0.01069918718969586,219.024,0.48100000619888306,-2.5511096128811954
219.25862099999998,,0.010943376359933475,219.483,0.46299999952316284,-2.5902259070883864
219.724138,,0.014250384067160738,219.946,0.4749999940395355,-2.5640128682310985
220.18965500000002,,0.01788130730676094,220.416,0.45500001311302185,-2.607549052779368
220.65517200000002,,0.01881071651202225,220.88,0.4650000035762787,-2.585759822530491
221.12069,,0.017244693502636167,221.342,0.4659999907016754,-2.5836125993116315
221.586207,,0.016262181923438163,221.808,0.4790000021457672,-2.5553544032212834
222.051724,,0.016948912535222304,222.271,0.4690000116825104,-2.577235932613123
222.517241,,0.01510173224787513,222.736,0.4749999940395355,-2.5642872973754725
222.98275900000002,,0.0049222157568687116,223.202,0.47699999809265137,-2.5600778507673065
223.448276,,0.01391613206320561,223.668,0.46399998664855957,-2.5885687141945968
223.913793,,0.03467895618827914,224.132,0.47200000286102295,-2.5713239677717215
224.37931,,0.049689207172307494,224.598,0.4569999873638153,-2.604199299509558
224.844828,,0.05675349967488896,225.065,0.45399999618530273,-2.6109367521088807
225.31034499999998,,0.05884858841241091,225.531,0.46299999952316284,-2.5915308190901682
225.775862,,0.05907327838351131,225.991,0.46399998664855957,-2.5895483499883123
226.241379,,0.057931664774106724,226.46,0.46399998664855957,-2.5897327937973023
226.706897,,0.05504793298816112,226.92,0.45100000500679016,-2.618222717432846
227.172414,,0.05091807549075508,227.39,0.45899999141693115,-2.600939504492288
227.63793099999998,,0.04597520981941578,227.854,0.46299999952316284,-2.5923447268373065
228.103448,,0.03984327628182889,228.316,0.4569999873638153,-2.6055064901328824
228.56896600000002,,0.032935918047014554,228.782,0.45500001311302185,-2.609920912152381
229.03448300000002,,0.02739638965527899,229.246,0.46399998664855957,-2.5903357317604985
229.5,,0.024749869636652776,229.711,0.3930000066757202,-2.7450078929723096
229.965517,,0.02329526847921613,230.175,0.45500001311302185,-2.609886574278109
230.431034,,0.019480967561623805,230.641,0.4699999988079071,-2.577128285676005
230.896552,,0.011958151842603456,231.106,0.47200000286102295,-2.5726589677274845
231.362069,,0.0030601431078228036,231.572,0.47200000286102295,-2.5725160464764865
231.827586,,0.004100365028372721,232.039,0.47699999809265137,-2.5614526932743336
232.293103,,0.008859637681235592,232.505,0.4690000116825104,-2.578689230393243
232.758621,,0.012529977685102575,232.965,0.47999998927116394,-2.554514475824265
233.224138,,0.015791253261499254,233.434,0.4830000102519989,-2.547757541336554
233.689655,,0.018096763295311256,233.898,0.46399998664855957,-2.5889262589751847
234.155172,,0.019261427784994557,234.36,0.46000000834465027,-2.5974178996860493
234.62069,,0.019900516850392996,234.831,0.46799999475479126,-2.5797757033596467
235.086207,,0.02001415372301621,235.294,0.45100000500679016,-2.616616192835634
235.55172399999998,,0.01864680179830109,235.76,0.45899999141693115,-2.599013450512225
236.01724099999998,,0.015700769127352996,236.225,0.4560000002384186,-2.605404285725932
236.482759,,0.012978180844623046,236.691,0.45500001311302185,-2.6074709246561163
236.94827600000002,,0.012372588334801874,237.15,0.47600001096725464,-2.5616438055198776
237.413793,,0.013566010313417457,237.616,0.47999998927116394,-2.5528920320606283
237.87931,,0.0144728500045795,238.084,0.45100000500679016,-2.6160753755653476
238.344828,,0.013751792335975392,238.55,0.45899999141693115,-2.598689737690185
238.810345,,0.012047998045583418,239.013,0.46399998664855957,-2.5878802606935154
239.27586200000002,,0.010703873211289435,239.476,0.46299999952316284,-2.5901804289206085
239.741379,,0.010016046190552642,239.939,0.46299999952316284,-2.590336418095575
240.206897,,0.009360057185444429,240.408,0.46299999952316284,-2.590522505698948
240.672414,,0.008754105540787597,240.872,0.45100000500679016,-2.6168773793266844
241.137931,,0.00931321699862098,241.335,0.46299999952316284,-2.5909637953235176
241.603448,,0.01152461483989412,241.801,0.4790000021457672,-2.556347392134331
242.068966,,0.013704725581992249,242.271,0.4779999852180481,-2.558771858806936
242.534483,,0.013358501051335485,242.729,0.46399998664855957,-2.5895151545837916
243.0,,0.010259773729431093,243.194,0.4650000035762787,-2.587568330253662
243.465517,,0.00722346428560091,243.66,0.47200000286102295,-2.5725323456105738
243.93103399999998,,0.007110811173171401,244.125,0.47600001096725464,-2.5640080414999287
244.39655199999999,,0.009537333469337212,244.59,0.44999998807907104,-2.620813330965263
244.862069,,0.011475534333128779,245.057,0.45899999141693115,-2.6013315606378233
245.327586,,0.010993101511643911,245.523,0.4729999899864197,-2.570918075341848
245.793103,,0.009119234940119214,245.991,0.47999998927116394,-2.5557128520029537
246.258621,,0.007590975363881415,246.453,0.4819999933242798,-2.551356299357398
246.724138,,0.006285776041542435,246.92,0.4880000054836273,-2.538239879901334
247.18965500000002,,0.00427044564720877,247.382,0.44699999690055847,-2.6274762967433762
247.655172,,0.0024169806104769745,247.85,0.47200000286102295,-2.5728814298208285
248.12069,,0.0028993001218907744,248.313,0.47600001096725464,-2.5640011408281067
248.586207,,0.00574499795838356,248.778,0.45399999618530273,-2.6117332578591057
249.051724,,0.0076204624707954735,249.242,0.46299999952316284,-2.59190101275864
249.517241,,0.005420358218544522,249.707,0.4690000116825104,-2.5785850282932024
249.982759,,0.00031029217478888355,250.173,0.45899999141693115,-2.600114821841337
250.44827600000002,,0.0033058628912109745,250.638,0.46399998664855957,-2.5889599509304033
250.913793,,0.002766574061998336,251.105,0.45899999141693115,-2.5995945652868757
251.37931000000003,,0.00012478090922634255,251.571,0.4830000102519989,-2.5470587467062304
251.844828,,0.0015827578232624154,252.036,0.46399998664855957,-2.588222424565721
252.31034499999998,,8.662787714289286e-05,252.494,0.5799999833106995,-2.3352910481996094
252.77586200000002,,0.002509158079272393,252.965,0.46299999952316284,-2.5900122451961507
253.241379,,0.0037487177628666287,253.427,0.48500001430511475,-2.5419361826990508
253.706897,,0.003414016965448107,253.89,0.4569999873638153,-2.6028344388259663
254.172414,,0.0028899903947390646,254.36,0.46399998664855957,-2.5875258597111435
254.63793099999998,,0.002581311639293779,254.819,0.45500001311302185,-2.607124275048336
255.10344800000001,,0.0017703305259566418,255.284,0.4620000123977661,-2.5919138977037437
255.56896600000002,,0.0011216981290008137,255.749,0.46799999475479126,-2.578930791769856
256.03448299999997,,0.003094475847911806,256.216,0.46799999475479126,-2.579065507820593
256.5,,0.008359577585735557,256.682,0.4560000002384186,-2.6053863701075084
256.965517,,0.013201311199677294,257.147,0.47999998927116394,-2.5533132038754305
257.431034,,0.012746143856480131,257.613,0.453000009059906,-2.612381956930449
257.896552,,0.0068203306553303806,258.079,0.46399998664855957,-2.5886860816541626
258.362069,,0.0007973648280897781,258.545,0.4560000002384186,-2.60640055827571
258.827586,,6.706649877656993e-05,259.009,0.43799999356269836,-2.6459094054041064
259.29310300000003,,0.004069389596128274,259.471,0.45100000500679016,-2.61787945565293
259.758621,,0.008697364100624154,259.939,0.46399998664855957,-2.589839395237169
260.224138,,0.010219290093513522,260.401,0.46399998664855957,-2.5901018790989068
260.689655,,0.009048693054880331,260.865,0.4860000014305115,-2.542405113929041
261.155172,,0.007826235731456122,261.335,0.47200000286102295,-2.5731026698059933
261.62068999999997,,0.007703349690261268,261.801,0.4129999876022339,-2.701797138580168
262.086207,,0.007225968526084818,262.263,0.46399998664855957,-2.5907941155846306
262.551724,,0.0047925488273388335,262.729,0.4880000054836273,-2.538563407130898
263.017241,,0.001157093987882685,263.195,0.46399998664855957,-2.590853045861987
263.482759,,0.0013233926033764452,263.66,0.4620000123977661,-2.595157287252054
263.94827599999996,,0.0014537713564669041,264.121,0.4729999899864197,-2.571085620428384
264.413793,,0.0003412650844378376,264.586,0.4779999852180481,-2.5600345902817647
264.87931,,0.00020210267023496953,265.054,0.5699999928474426,-2.359392189300201
265.34482799999995,,0.00020877808416357098,265.52,0.46399998664855957,-2.590078078573161
265.810345,,0.0002895429116830071,265.98,0.4569999873638153,-2.6050434416152055
266.27586199999996,,0.001145425163306393,266.449,0.47699999809265137,-2.56116175142578
266.741379,,0.0034737158570153285,266.913,0.47600001096725464,-2.5630172581837924
267.206897,,0.004710889821936504,267.375,0.46000000834465027,-2.5975482638583443
267.672414,,0.0038179601967442845,267.839,0.47600001096725464,-2.56236893341888
268.137931,,0.002130452620992782,268.309,0.46299999952316284,-2.5903871255045368
268.603448,,0.0018758640137273477,268.774,0.4519999921321869,-2.6140748720743154
269.06896600000005,,0.0033987463573550937,269.239,0.46700000762939453,-2.58115392780142
269.53448299999997,,0.004674672328243571,269.706,0.43799999356269836,-2.6441379287877447
270.0,,0.0038107360207601157,270.165,0.45399999618530273,-2.6091340001815775
270.465517,,0.0012645946430827916,270.631,0.46700000762939453,-2.5807219003572737
270.931034,,0.0008433282495684386,271.098,0.45899999141693115,-2.598119864956552
271.396552,,0.0009903501522974699,271.564,0.4690000116825104,-2.5763615677466096
271.86206899999996,,0.0005916594234527282,272.028,0.42100000381469727,-2.6810245473077856
272.327586,,0.002379231945459617,272.494,0.4410000145435333,-2.6375976032648105
272.793103,,0.002713992056584056,272.957,0.4699999988079071,-2.574616309298782
273.258621,,0.0011263470334520302,273.419,0.460999995470047,-2.594469616289886
273.724138,,0.0009392786277404341,273.887,0.4690000116825104,-2.5773237707228804
274.18965499999996,,0.0012225767814650563,274.35,0.46399998664855957,-2.5885294473179195
274.655172,,0.0009721220384714479,274.815,0.5460000038146973,-2.410210210945059
275.12069,,0.0038106600855249036,275.279,0.460999995470047,-2.5957313579589223
275.586207,,0.004713080973405981,275.745,0.4729999899864197,-2.569920337403724
276.051724,,0.002773745790745094,276.21,0.4729999899864197,-2.570240652317997
276.517241,,0.0008399370333714365,276.675,0.4650000035762787,-2.587967584660378
276.98275900000004,,0.004356323640381603,277.142,0.48100000619888306,-2.5533750680053977
277.448276,,0.006708322347475839,277.608,0.4699999988079071,-2.577565602044963
277.913793,,0.007729363795123617,278.072,0.46399998664855957,-2.590815511537123
278.37931,,0.007785902471387617,278.537,0.48100000619888306,-2.5539034960387057
278.844828,,0.007243973394913209,279.005,0.46000000834465027,-2.599723126263922
279.31034500000004,,0.005841961670951224,279.468,0.47600001096725464,-2.564873602385624
279.77586199999996,,0.0028032573560326833,279.931,0.49000000953674316,-2.5343213889244605
280.241379,,0.0017593291858221717,280.394,0.47099998593330383,-2.5756056671632557
280.706897,,0.0058625470338330215,280.865,0.4620000123977661,-2.595048326118055
281.172414,,0.007191529153134616,281.327,0.47600001096725464,-2.5643326002233833
281.637931,,0.005716463006439845,281.793,0.4650000035762787,-2.5880400771470278
282.10344799999996,,0.0036645282369980586,282.256,0.45399999618530273,-2.611712838766054
282.568966,,0.0025790260534302913,282.721,0.4790000021457672,-2.5569286865221157
283.034483,,0.0016932987738496252,283.187,0.460999995470047,-2.595810422414438
283.5,,1.1885248662960691e-05,283.653,0.44699999690055847,-2.6259723127659975
283.965517,,0.0014138417796889949,284.121,0.47600001096725464,-2.562457866926582
284.431034,,0.000889182675896471,284.579,0.45899999141693115,-2.599176804479649
284.89655200000004,,0.0011993252940741962,285.051,0.43799999356269836,-2.644636089847358
285.362069,,0.002952990855604123,285.509,0.43799999356269836,-2.6443797048316635
285.827586,,0.0036814262127850407,285.979,0.46399998664855957,-2.58752222602614
286.293103,,0.004003849723548059,286.442,0.45100000500679016,-2.615681569210041
286.758621,,0.0033803976904981056,286.905,0.4659999907016754,-2.5828930468428872
287.22413800000004,,0.00013409090169870823,287.375,0.4569999873638153,-2.602449458326609
287.689655,,0.006729145379209785,287.839,0.5049999952316284,-2.4978808879815486
288.155172,,0.013219596193788244,288.301,0.46399998664855957,-2.58726907509389
288.62069,,0.01625253544898952,288.767,0.4819999933242798,-2.5481722074140665
289.086207,,0.016072448662740935,289.232,0.46399998664855957,-2.587558838856137
289.55172400000004,,0.015197302182095702,289.698,0.47600001096725464,-2.561632943286196
290.01724099999996,,0.014185803273700788,290.165,0.45899999141693115,-2.5989285758388734
290.482759,,0.011331676451509426,290.63,0.4000000059604645,-2.7277616604594166
290.948276,,0.006616673260122139,291.094,0.4909999966621399,-2.52982354120313
291.413793,,0.0031873655817308386,291.56,0.43799999356269836,-2.645625904980514
291.87931,,0.003657814776163687,292.025,0.46000000834465027,-2.598034106630346
292.344828,,0.0067432199319707445,292.491,0.45899999141693115,-2.600545597728602
292.81034500000004,,0.008940003601533592,292.953,0.4880000054836273,-2.5376806004347676
293.275862,,0.008476981376728811,293.416,0.45100000500679016,-2.618579375297782
293.74137900000005,,0.006476836369840375,293.88,0.47600001096725464,-2.564366206135012
294.206897,,0.004919966789861325,294.35,0.46299999952316284,-2.5928982330730577
294.672414,,0.004408449286745211,294.815,0.46700000762939453,-2.5843431237162084
295.13793100000004,,0.0036409103818071426,295.279,0.4740000069141388,-2.5691970557489947
295.603448,,0.0007124224447131699,295.744,0.4560000002384186,-2.6084589720203937
296.068966,,0.004602918630702585,296.21,0.38100001215934753,-2.771846110116052
296.534483,,0.009783355072629186,296.675,0.46399998664855957,-2.5909508983789515
297.0,,0.011698412093822278,297.135,0.4659999907016754,-2.5864705584262127
297.46551700000003,,0.010155429827965553,297.601,0.4880000054836273,-2.5383631368991346
297.931034,,0.00825324824684353,298.066,0.4880000054836273,-2.5381364065946705
298.396552,,0.008571044458655003,298.531,0.4690000116825104,-2.5792612150913308
298.862069,,0.010068452452440084,298.994,0.46700000762939453,-2.583315252330228
299.327586,,0.009781678501153959,299.464,0.4659999907016754,-2.5851667243126113
299.79310300000003,,0.006830689967911375,299.927,0.46299999952316284,-2.591361757939044
300.258621,,0.003550027339268355,300.39,0.47200000286102295,-2.571409873812066
300.724138,,0.0028941362969087674,300.861,0.4620000123977661,-2.5928597794921187
301.189655,,0.005568214889228636,301.323,0.4659999907016754,-2.5838267560972232
301.65517200000005,,0.009545717583984375,301.79,0.46399998664855957,-2.587893709644617
302.12069,,0.011773481345468727,302.253,0.4650000035762787,-2.585461868321521
302.586207,,0.010566404797729433,302.719,0.4659999907016754,-2.5830752296594808
303.05172400000004,,0.006966863591891677,303.183,0.4950000047683716,-2.519737464650627
303.517241,,0.0036998300815190167,303.649,0.44699999690055847,-2.624211655949171
303.982759,,0.0023982804685794908,304.109,0.4690000116825104,-2.576240413121878
304.448276,,0.002044111824927832,304.575,0.47999998927116394,-2.5522957652555336
304.913793,,0.00045937072863610584,305.04,0.4569999873638153,-2.6024856619860084
305.37931000000003,,0.0030510330239875696,305.506,0.46700000762939453,-2.5808387278835623
305.844828,,0.006976660467155522,305.976,0.47600001096725464,-2.561424836755637
306.310345,,0.009148027706035839,306.438,0.46299999952316284,-2.589989461416187
306.775862,,0.008568014339938881,306.906,0.46299999952316284,-2.5902727531866145
307.241379,,0.006032585767020539,307.368,0.46399998664855957,-2.5884100916933916
307.70689699999997,,0.003443628613463807,307.836,0.45899999141693115,-2.599642272768038
308.172414,,0.0024454606631212944,308.298,0.46399998664855957,-2.5891005501374225
308.637931,,0.0033184335510674013,308.763,0.47200000286102295,-2.572024233233197
309.103448,,0.004931718587901318,309.227,0.4909999966621399,-2.530972470578908
309.568966,,0.005758743256917983,309.693,0.46799999475479126,-2.5814024869441887
310.034483,,0.005058742599066305,310.158,0.4580000042915344,-2.6034792190773355
310.5,,0.00320243236792713,310.623,0.4729999899864197,-2.5710503846490917
310.96551700000003,,0.0009789391365477582,311.084,0.4659999907016754,-2.5865042717395124
311.431034,,0.001179047274256677,311.55,0.4699999988079071,-2.5779389342841497
311.896552,,0.0030279695003253685,312.024,0.47200000286102295,-2.5736720007337652
312.362069,,0.0037905588284834813,312.482,0.47600001096725464,-2.564985672252504
312.827586,,0.0024754076802390185,312.946,0.4749999940395355,-2.5671293589387134
313.29310300000003,,0.0005319390943413191,313.409,0.45500001311302185,-2.6106052997679554
313.758621,,0.0029463206552998024,313.877,0.47999998927116394,-2.555983292316622
314.224138,,0.0027174175958123285,314.346,0.4620000123977661,-2.594988756498995
314.689655,,0.0004632658831492235,314.804,0.4790000021457672,-2.5576935212844085
315.155172,,0.001168704777917765,315.274,0.46399998664855957,-2.5900749235236105
315.62068999999997,,0.000551218022685605,315.739,0.4659999907016754,-2.585388489700037
316.086207,,0.0012310744382717708,316.205,0.46700000762939453,-2.582860270117081
316.551724,,0.0017086728126957179,316.671,0.4819999933242798,-2.5498210812504816
317.017241,,0.000608830835358141,317.136,0.47200000286102295,-2.5712488827217497
317.482759,,0.005213599302636701,317.594,0.47200000286102295,-2.5709022842221336
317.94827599999996,,0.010126909516850639,318.061,0.45100000500679016,-2.616330794910006
318.413793,,0.012858980212312918,318.527,0.46700000762939453,-2.5811833675213225
318.87931000000003,,0.011484246476451613,318.995,0.4690000116825104,-2.576579932494688
319.344828,,0.006225127527729606,319.457,0.48100000619888306,-2.5502400738746553
319.810345,,0.00034968336564278747,319.92,0.46299999952316284,-2.589315800592934
320.275862,,0.002004386586840777,320.39,0.492000013589859,-2.526055468546436
320.741379,,4.50802225621018e-05,320.853,0.46799999475479126,-2.5783264519156326
321.20689699999997,,0.0026346249525346197,321.316,0.46700000762939453,-2.5805523479051042
321.672414,,0.0022688876631373465,321.782,0.46399998664855957,-2.587198802823372
322.137931,,0.0009193953992607854,322.245,0.4650000035762787,-2.5851906334531307
322.603448,,0.0038772926075327425,322.711,0.4259999990463257,-2.6703841507825885
323.068966,,0.004751203485903207,323.175,0.44600000977516174,-2.6270871535740596
323.53448299999997,,0.0040881677586731835,323.641,0.4729999899864197,-2.5685804373437673
324.0,,0.0028016330299714515,324.105,0.460999995470047,-2.5950707099503982
324.465517,,0.0009402273883619202,324.571,0.4749999940395355,-2.5649346860151865
324.931034,,0.0011928872973387178,325.035,0.46399998664855957,-2.5892719427829602
325.396552,,0.0021291790182463525,325.501,0.46399998664855957,-2.5896395523557016
325.86206899999996,,0.0005853987099706542,325.968,0.46700000762939453,-2.5834552725760913
326.327586,,0.0024864666587119297,326.432,0.4620000123977661,-2.594673225180091
326.793103,,0.004160530139413812,326.894,0.4650000035762787,-2.5884248320201406
327.258621,,0.0024885505846077354,327.364,0.45500001311302185,-2.6104527080769104
327.724138,,0.0010826332856821517,327.824,0.46399998664855957,-2.591032648356237
328.189655,,0.0030178738227093424,328.294,0.4860000014305115,-2.543229779663408
328.655172,,0.0016012905038185871,328.76,0.460999995470047,-2.5977585122880713
329.12068999999997,,0.001103838012496529,329.225,0.46799999475479126,-2.5825037853654615
329.586207,,0.0016399724963336278,329.69,0.4690000116825104,-2.580254420753239
330.051724,,0.0008755449051231954,330.15,0.4699999988079071,-2.577940521820077
330.517241,,0.003806234019959587,330.616,0.45399999618530273,-2.612603403252939
330.982759,,0.004219382342381462,331.08,0.46299999952316284,-2.5927462394757868
331.44827599999996,,0.002465161984095989,331.546,0.4790000021457672,-2.5575921085238322
331.913793,,0.0015633647385774065,332.009,0.4729999899864197,-2.5703304013526336
332.37931,,0.003091416400302428,332.478,0.47099998593330383,-2.574326562789532
332.844828,,0.005177217445636733,332.939,0.46399998664855957,-2.5892000773428356
333.310345,,0.005246772020011477,333.409,0.4620000123977661,-2.5931765926782546
333.77586199999996,,0.003283940853005249,333.869,0.4650000035762787,-2.586268375501333
334.241379,,0.0012137779540417242,334.339,0.4860000014305115,-2.5401641706297706
334.706897,,0.0001614943665443829,334.805,0.4880000054836273,-2.5354842776298465
335.17241399999995,,0.00039291741129737615,335.268,0.46000000834465027,-2.5962041768136452
335.637931,,0.0011955712179385109,335.733,0.4690000116825104,-2.576364255512363
336.103448,,0.0018981059005825965,336.199,0.46299999952316284,-2.589262101554873
336.56896600000005,,0.001305249881225038,336.664,0.4690000116825104,-2.5760797211665167
337.034483,,0.0011851339315154506,337.131,0.4880000054836273,-2.5346417732761344
337.5,,0.004391410206100465,337.589,0.49399998784065247,-2.521593781876011
337.965517,,0.005722406997017694,338.061,0.47699999809265137,-2.5587213940678453
338.431034,,0.003046127612446624,338.519,0.4699999988079071,-2.5741273550107047
338.89655200000004,,0.0034550040446569286,338.987,0.46399998664855957,-2.58741560728872
339.36206899999996,,0.01108641391441901,339.449,0.46700000762939453,-2.5811506171844356
339.827586,,0.016510103238138008,339.92,0.4880000054836273,-2.5357159735576698
340.293103,,0.01830729967307062,340.382,0.4659999907016754,-2.583999045796036
340.758621,,0.017956952586221084,340.846,0.4620000123977661,-2.5930916887699866
341.224138,,0.018123088197153612,341.316,0.5,-2.510694539794083
341.68965499999996,,0.019749279636494775,341.774,0.46299999952316284,-2.5916965497567652
342.155172,,0.021055235554067426,342.246,0.4830000102519989,-2.548504013641797
342.62069,,0.019837158726252357,342.705,0.5289999842643738,-2.4486422623633914
343.086207,,0.016436517051305756,343.172,0.47200000286102295,-2.5731446108910045
343.551724,,0.013430889859073274,343.638,0.46799999475479126,-2.582133210407837
344.01724099999996,,0.012253747571446915,344.103,0.47999998927116394,-2.5562103447387763
344.48275900000004,,0.011143211351747033,344.568,0.46399998664855957,-2.5912294590311014
344.948276,,0.00701166521663453,345.035,0.4819999933242798,-2.552109122250473
345.413793,,0.0010702166014478335,345.5,0.4659999907016754,-2.5869942570151263
345.87931,,0.010613951949021126,345.961,0.45500001311302185,-2.6109168634801914
346.344828,,0.01788822328417022,346.424,0.48899999260902405,-2.5367322564755845
346.81034500000004,,0.021315825469349153,346.894,0.49799999594688416,-2.5169476714321
347.275862,,0.022661300298161033,347.357,0.46399998664855957,-2.5907837916101597
347.741379,,0.024786522592987668,347.828,0.4650000035762787,-2.5883141793906312
348.206897,,0.028367513535127318,348.29,0.45899999141693115,-2.6010518069499784
348.672414,,0.031083691605231,348.755,0.4690000116825104,-2.5788978567739296
349.13793100000004,,0.030191721808993825,349.22,0.49000000953674316,-2.5327563135187106
349.60344799999996,,0.025684401458458767,349.686,0.460999995470047,-2.595536336324811
350.068966,,0.020371074197542225,350.15,0.4659999907016754,-2.584244339608285
350.534483,,0.01682440283884782,350.609,0.46299999952316284,-2.59039636516159
351.0,,0.015106726794363952,351.076,0.4560000002384186,-2.605289949829668
351.465517,,0.013812677274749103,351.542,0.46299999952316284,-2.589720701054289
351.93103399999995,,0.012153671523997876,352.009,0.4650000035762787,-2.585092721831258
352.396552,,0.009932490877696735,352.472,0.45500001311302185,-2.606665012463586
352.862069,,0.00624381934742504,352.935,0.45100000500679016,-2.61522908620956
353.32758600000005,,8.241976676068362e-05,353.405,0.4690000116825104,-2.575931249970398
353.793103,,0.0083106567936662,353.868,0.4749999940395355,-2.562847595724854
354.258621,,0.015413891110099866,354.331,0.42500001192092896,-2.6718394080741725
354.72413800000004,,0.019189028832093342,354.797,0.4729999899864197,-2.5673939954194798
355.189655,,0.021376368588938655,355.259,0.46299999952316284,-2.5893758728946508
355.655172,,0.026316296794909166,355.725,0.46399998664855957,-2.5874518322979867
356.12069,,0.036124415241266236,356.19,0.48500001430511475,-2.54200583179215
356.586207,,0.04791303225908648,356.656,0.45899999141693115,-2.5989978557225033
357.05172400000004,,0.056162568431094156,357.12,0.4909999966621399,-2.5296588791213312
357.517241,,0.05750854913206177,357.586,0.46700000762939453,-2.5823430975036983
357.982759,,0.0529868747866856,358.05,0.46399998664855957,-2.5892827821483873
358.448276,,0.045947838858720925,358.515,0.46399998664855957,-2.5896816727222536
358.913793,,0.03853133435556799,358.983,0.46700000762939453,-2.5835275073706776
359.37931000000003,,0.030630440468525318,359.445,0.39500001072883606,-2.7407444849796736
359.844828,,0.021578175762419285,359.913,0.45899999141693115,-2.6016280962985556
360.310345,,0.0114743964737708,360.375,0.45899999141693115,-2.6018971306866496
360.775862,,0.00061050288631616,360.843,0.4729999899864197,-2.5716070317708275
361.241379,,0.011232486354643027,361.305,0.47600001096725464,-2.5652166677623094
361.706897,,0.024058810588798635,361.771,0.4729999899864197,-2.5718279068418575
362.172414,,0.036740792105565925,362.235,0.46399998664855957,-2.5914383289947507
362.63793100000004,,0.04771474931948481,362.701,0.5419999957084656,-2.4214322548619007
363.103448,,0.05653639216387404,363.166,0.47200000286102295,-2.5737929447398002
363.568966,,0.06380929071249389,363.631,0.4320000112056732,-2.6607271926306133
364.034483,,0.06918044420476537,364.098,0.515999972820282,-2.4774498841136956
364.5,,0.07044891156784724,364.564,0.5009999871253967,-2.509805890979705
364.96551700000003,,0.06581047001496979,365.028,0.4779999852180481,-2.5595478238369003
365.431034,,0.056456805038820126,365.494,0.46700000762939453,-2.5831154944808037
365.896552,,0.0455775346667613,365.957,0.4620000123977661,-2.5935943432691766
366.362069,,0.03488937475875094,366.419,0.46399998664855957,-2.588819152335262
366.827586,,0.023608985978379224,366.887,0.46700000762939453,-2.581874756368839
367.29310300000003,,0.011208306199734817,367.35,0.46399998664855957,-2.5880246301488357
367.758621,,0.0002911561924081069,367.815,0.47600001096725464,-2.5615289004454818
368.224138,,0.007934108536888534,368.279,0.4620000123977661,-2.591723241782838
368.689655,,0.011171776559180351,368.745,0.46399998664855957,-2.587114275632405
369.155172,,0.012493997145211537,369.212,0.4830000102519989,-2.545530901526391
369.62068999999997,,0.014561159440506694,369.678,0.4880000054836273,-2.534516487513729
370.086207,,0.01730975218800191,370.143,0.46399998664855957,-2.586754453841167
370.55172400000004,,0.01841091552161166,370.608,0.46399998664855957,-2.5867787080896436
371.017241,,0.0164956059280181,371.072,0.46299999952316284,-2.5890552288415236
371.482759,,0.013305226248951828,371.538,0.4790000021457672,-2.554365062603589
371.948276,,0.012185002901937117,372.002,0.4699999988079071,-2.574205787359599
372.413793,,0.014676432910279189,372.464,0.46399998664855957,-2.587568085470551
372.87931000000003,,0.01911740364547433,372.935,0.46700000762939453,-2.581371206444232
373.344828,,0.022600359077883103,373.398,0.47699999809265137,-2.5599617610938235
373.810345,,0.02368520478684435,373.861,0.45899999141693115,-2.5995804709128914
374.275862,,0.022762558202579723,374.324,0.574999988079071,-2.3472718255112714
374.741379,,0.020388191828523475,374.789,0.47600001096725464,-2.563369240551481
375.20689699999997,,0.016638804696740846,375.26,0.46299999952316284,-2.5920884415181167
375.672414,,0.01247907213210953,375.726,0.460999995470047,-2.5968181450565524
376.137931,,0.010149754459671912,376.19,0.46399998664855957,-2.5906190180715556
376.603448,,0.010641173153757745,376.649,0.46000000834465027,-2.5996243349904993
377.068966,,0.011699334046940431,377.12,0.44699999690055847,-2.62818282863364
377.53448299999997,,0.010204505897233663,377.579,0.5040000081062317,-2.5041732042259324
378.0,,0.00616771994854905,378.05,0.48100000619888306,-2.5543860122125945
378.465517,,0.0026068202780037348,378.515,0.44699999690055847,-2.628491594434144
378.931034,,0.00160531018169886,378.976,0.4659999907016754,-2.58705670082137
379.396552,,0.0022900192058786214,379.446,0.47999998927116394,-2.556443838974171
379.862069,,0.0028894065964349814,379.909,0.46399998664855957,-2.5911220609250387
380.327586,,0.0029628473167021855,380.372,0.45899999141693115,-2.6017726720420624
380.79310300000003,,0.002788604425190727,380.835,0.46399998664855957,-2.5905821971109533
381.258621,,0.0019484324008903426,381.305,0.45899999141693115,-2.6011327072931736
381.724138,,0.00020032846410046753,381.77,0.46799999475479126,-2.581147098953327
382.189655,,0.0031839810611661934,382.235,0.49399998784065247,-2.5241003275683296
382.655172,,0.005510334843765786,382.694,0.46399998664855957,-2.5890455561960093
383.12068999999997,,0.005896876158917329,383.16,0.46299999952316284,-2.5908110402482443
383.586207,,0.0038859568991453748,383.626,0.4779999852180481,-2.5577324222841615
384.051724,,0.0001834507427526382,384.091,0.46700000762939453,-2.5813248652941962
384.517241,,0.00490290151085449,384.557,0.45100000500679016,-2.615848879914427
384.982759,,0.007896054531180202,385.024,0.46799999475479126,-2.578526648956771
385.44827599999996,,0.007573682688866488,385.49,0.4729999899864197,-2.567405810325484
385.913793,,0.0051612765132542015,385.953,0.47200000286102295,-2.5694210596764364
386.37931,,0.003802650967627961,386.416,0.45100000500679016,-2.61507901709848
386.84482799999995,,0.004871980224135998,386.88,0.47699999809265137,-2.5584134798497447
387.310345,,0.006106807166948618,387.349,0.49000000953674316,-2.5301432403702133
387.775862,,0.004329576223755796,387.815,0.4650000035762787,-2.584732583390957
388.241379,,0.0006828376411683585,388.279,0.4690000116825104,-2.576208871872061
388.70689699999997,,0.005863715898362245,388.744,0.4650000035762787,-2.5851768086723017
389.172414,,0.007798406018896081,389.21,0.45899999141693115,-2.598556940793819
389.637931,,0.005549338686979691,389.675,0.4569999873638153,-2.603268246630565
390.103448,,0.0014821420646532692,390.135,0.47999998927116394,-2.553547969455655
390.56896600000005,,0.0002010280146137442,390.601,0.4560000002384186,-2.606246489092502
391.03448299999997,,0.0030500222456023582,391.066,0.46000000834465027,-2.5979528359792896
391.5,,0.009116206152569053,391.531,0.4699999988079071,-2.576584402315321
391.965517,,0.012574123821744545,391.994,0.4819999933242798,-2.550842087016181
392.431034,,0.010234127944801477,392.464,0.46799999475479126,-2.581715209147551
392.896552,,0.004749602466671271,392.924,0.46399998664855957,-2.5907612338752797
393.36206899999996,,0.0015991700707420438,393.394,0.46399998664855957,-2.5910421034354965
393.827586,,0.0030290723888498315,393.857,0.46299999952316284,-2.5934423641245035
394.293103,,0.006392518468946822,394.32,0.46700000762939453,-2.584883149644375
394.75862099999995,,0.008157479163846985,394.786,0.4690000116825104,-2.580609895230666
395.224138,,0.007634425065730349,395.252,0.46399998664855957,-2.5915131045301507
395.68965499999996,,0.0061439170306817,395.717,0.4779999852180481,-2.560947220943442
396.155172,,0.004300830168667994,396.183,0.3970000147819519,-2.737281189387625
396.62069,,0.0018436578035277318,396.648,0.4740000069141388,-2.569322288780469
397.086207,,0.00047050836495817427,397.113,0.45899999141693115,-2.601737740413297
397.551724,,0.0006655358399943439,397.578,0.4699999988079071,-2.57745372524082
398.017241,,0.0021121370507815184,398.042,0.47999998927116394,-2.5553031901674674
398.48275900000004,,0.00589218406972755,398.508,0.4560000002384186,-2.607192432571139
398.94827599999996,,0.007286787084792117,398.969,0.47200000286102295,-2.5719140742853965
399.413793,,0.004599049819457305,399.438,0.45899999141693115,-2.5998079206866747
399.87931,,0.0005227326226613007,399.902,0.47999998927116394,-2.553632024369532
400.344828,,0.004365713028828386,400.365,0.45500001311302185,-2.6076913380063536
400.810345,,0.004307036641798136,400.835,0.46700000762939453,-2.58117105002545
401.27586199999996,,0.0011339433153659518,401.298,0.4869999885559082,-2.5372633391543453
401.741379,,0.0019256534678235317,401.764,0.45500001311302185,-2.606697159256277
402.206897,,0.002713412648683222,402.224,0.45500001311302185,-2.6064758923167877
402.672414,,0.0020642614232048305,402.689,0.46299999952316284,-2.5888946117890868
403.137931,,0.0017831854823559925,403.161,0.47099998593330383,-2.571386969220129
403.60344799999996,,0.0018200861457245078,403.619,0.46399998664855957,-2.5866350241704312
404.068966,,0.0007814596806593861,404.084,0.46299999952316284,-2.5888876109340937
404.534483,,0.001483524041129091,404.549,0.4399999976158142,-2.639145534422682
405.0,,0.003583502376839809,405.024,0.4749999940395355,-2.5631126778731503
405.465517,,0.004733703918482879,405.482,0.4650000035762787,-2.5851825881526604
405.931034,,0.005478935416360057,405.95,0.46399998664855957,-2.58769943959998
406.39655200000004,,0.006093591944377291,406.412,0.49000000953674316,-2.531436835188582
406.862069,,0.005955361241494701,406.876,0.46299999952316284,-2.5906747359943467
407.327586,,0.005033164477723176,407.346,0.46000000834465027,-2.5976449278186555
407.793103,,0.004513112304172519,407.804,0.4729999899864197,-2.569763743021078
408.258621,,0.005160126670825651,408.274,0.46799999475479126,-2.581091215473654
408.72413800000004,,0.00608221614555712,408.74,0.45500001311302185,-2.6098276435569994
409.18965499999996,,0.005862008165453693,409.205,0.46299999952316284,-2.5927798921345424
409.655172,,0.004329480598254926,409.67,0.492000013589859,-2.529935351919096
410.12069,,0.0026569181013907576,410.135,0.48399999737739563,-2.547644199487954
410.586207,,0.0018967049909966915,410.601,0.46700000762939453,-2.5848954368916144
411.05172400000004,,0.001757525831506286,411.065,0.4659999907016754,-2.587217005459779
411.51724099999996,,0.0010085621719276114,411.524,0.46399998664855957,-2.5916416871523817
411.982759,,0.000880604537367878,411.994,0.46000000834465027,-2.6003460196395327
412.448276,,0.0029023787817441813,412.457,0.4729999899864197,-2.57193587590686
412.913793,,0.003760989223816195,412.92,0.46399998664855957,-2.5913807129441797
413.37931,,0.0036217141881579747,413.39,0.46399998664855957,-2.591147344339684
413.844828,,0.0038168450144420085,413.85,0.503000020980835,-2.5058826617722074
414.31034500000004,,0.004791906023244023,414.321,0.46399998664855957,-2.5904971182754175
414.775862,,0.005289769772265993,414.779,0.47600001096725464,-2.5639559552137317
415.241379,,0.004293355004321029,415.249,0.4690000116825104,-2.5787773887494194
415.706897,,0.0032125944703470057,415.715,0.4729999899864197,-2.5696150970988887
416.172414,,0.004783437379418411,416.18,0.4729999899864197,-2.5691625112936975
416.63793100000004,,0.009412052262586248,416.645,0.46799999475479126,-2.5796123311226364
417.103448,,0.013760506414859716,417.109,0.4659999907016754,-2.583549365436504
417.568966,,0.013890447998286776,417.575,0.4659999907016754,-2.583165467476678
418.034483,,0.00939628262587136,418.04,0.45500001311302185,-2.606795242877222
418.5,,0.003850547672486783,418.505,0.46000000834465027,-2.595626062094976
418.96551700000003,,0.0013145799123505772,418.968,0.4659999907016754,-2.582346179712989
419.43103399999995,,0.0026000274806170687,419.431,0.4659999907016754,-2.582212298434352
419.896552,,0.004770687239388505,419.894,0.47999998927116394,-2.5516553588021487
420.362069,,0.004154523381621348,420.364,0.4779999852180481,-2.5560362154243963
420.827586,,5.1161048028356276e-05,420.832,0.45899999141693115,-2.597533088119415
421.293103,,0.004974498631350098,421.295,0.45100000500679016,-2.615141703830801
421.758621,,0.0068530664363381415,421.761,0.45899999141693115,-2.5979640054827096
422.22413800000004,,0.004729997553704897,422.22,0.46000000834465027,-2.5961009791243574
422.689655,,0.0013276525094849752,422.685,0.45399999618530273,-2.6095430066327308
423.15517200000005,,0.0002746095004052099,423.15,0.4779999852180481,-2.557668364711533
423.62069,,0.0027396108093279935,423.616,0.47699999809265137,-2.560289199999456
424.086207,,0.006686363538329924,424.08,0.48500001430511475,-2.543317261560311
424.55172400000004,,0.008843167376144264,424.546,0.46799999475479126,-2.580812625108676
425.017241,,0.007376009896561203,425.009,0.47200000286102295,-2.5725435515552513
425.482759,,0.003330726232323473,425.478,0.46700000762939453,-2.5838560861138005
425.948276,,0.00018467423212488614,425.939,0.4580000042915344,-2.603844306364917
426.413793,,0.0004402384268632665,426.41,0.48100000619888306,-2.5540650219339263
426.87931000000003,,0.002952024494060619,426.872,0.46399998664855957,-2.591370416970894
427.344828,,0.007890086527424102,427.335,0.46299999952316284,-2.593747877625167
427.810345,,0.01105948295604212,427.8,0.46399998664855957,-2.591692722659628
428.275862,,0.009932668630494928,428.27,0.46399998664855957,-2.5917368686329136
428.741379,,0.004727225689871213,428.735,0.46399998664855957,-2.591700177692922
429.20689699999997,,0.0013229992394024846,429.195,0.4790000021457672,-2.5589035816813386
429.672414,,0.004364156472236182,429.661,0.47699999809265137,-2.5630668675823123
430.137931,,0.0031442105499211994,430.127,0.4569999873638153,-2.6063746845844684
430.603448,,0.00011545567037727809,430.593,0.47200000286102295,-2.5733671311457256
431.068966,,0.0020947892629661563,431.061,0.46399998664855957,-2.590415967968021
431.534483,,0.0015342388460877676,431.519,0.4790000021457672,-2.5573145831372126
432.0,,2.1336411978753982e-05,431.987,0.4880000054836273,-2.5372562700544044
432.46551700000003,,0.0003648054257292345,432.449,0.4519999921321869,-2.6152222965753396
432.931034,,0.0010061792003091708,432.92,0.46299999952316284,-2.590792205686891
433.396552,,0.0027904812516097136,433.382,0.46399998664855957,-2.5881637201670555
433.862069,,0.0035774657808538687,433.85,0.46299999952316284,-2.5899212468474766
434.327586,,0.0030054922420985845,434.313,0.4779999852180481,-2.5568620018118025
434.79310300000003,,0.0013097059483381404,434.778,0.4690000116825104,-2.5761432172563024
435.258621,,0.0014525936976294695,435.242,0.44699999690055847,-2.623810572893943
435.724138,,0.004967577705035588,435.707,0.4790000021457672,-2.5539030520892734
436.189655,,0.007738720832244947,436.172,0.4690000116825104,-2.575576410471949
436.655172,,0.00763134422523475,436.638,0.4749999940395355,-2.562472331900745
437.12068999999997,,0.0038272963969386087,437.101,0.46700000762939453,-2.579951406126747
437.586207,,0.0021032410942821204,437.567,0.45399999618530273,-2.608404945082882
438.051724,,0.0072996703628890915,438.032,0.453000009059906,-2.610792548389222
438.517241,,0.009614944668433411,438.498,0.46399998664855957,-2.5871080764096552
438.982759,,0.008670428066468004,438.961,0.4620000123977661,-2.591808632009972
439.448276,,0.00564554880641081,439.424,0.46700000762939453,-2.581310622585866
439.913793,,0.0026599194950250754,439.894,0.4729999899864197,-2.56867346300996
440.37931000000003,,0.001960410632963207,440.357,0.4690000116825104,-2.577848523143235
440.844828,,0.004367660826535915,440.823,0.47200000286102295,-2.5717846777755726
441.310345,,0.0078374814392641,441.286,0.46399998664855957,-2.589683086706189
441.775862,,0.008550509115184141,441.752,0.46399998664855957,-2.5901350945901958
442.241379,,0.004620254264936854,442.217,0.4569999873638153,-2.605806753207
442.70689699999997,,0.001605532644628627,442.682,0.453000009059906,-2.6148987879444543
443.172414,,0.005797714884281324,443.15,0.4050000011920929,-2.7197972351866597
443.637931,,0.0058706133458051426,443.615,0.46399998664855957,-2.5915166174252438
444.103448,,0.0032333039469900522,444.08,0.46399998664855957,-2.5917030767663993
444.568966,,0.00042918539459138626,444.546,0.4620000123977661,-2.5961664599944654
445.03448299999997,,0.0011389069266661096,445.006,0.4830000102519989,-2.55043675831835
445.5,,0.0011584656970877213,445.476,0.4749999940395355,-2.5678021484818143
445.965517,,0.0003024756859511457,445.939,0.46299999952316284,-2.593798190760372
446.431034,,0.0024386330943081086,446.401,0.4790000021457672,-2.5587128410080076
446.896552,,0.0035685145885626345,446.865,0.46399998664855957,-2.591093217172534
447.36206899999996,,0.0026460591537349797,447.335,0.48899999260902405,-2.536264096098448
447.827586,,0.0006265441940434288,447.8,0.46299999952316284,-2.5924936227822157
448.29310300000003,,0.0006772710028671392,448.263,0.4729999899864197,-2.5702525451606406
448.758621,,0.000774815699337835,448.728,0.47200000286102295,-2.5719515710571255
449.224138,,0.00035912668410320874,449.194,0.49000000953674316,-2.532245772142286
449.689655,,0.0006899007758018074,449.66,0.46700000762939453,-2.5818692416630458
450.155172,,0.00334366324586899,450.124,0.47600001096725464,-2.56179618641796
450.62068999999997,,0.007046576986037655,450.589,0.4569999873638153,-2.602760773097601
451.086207,,0.009249095454609323,451.054,0.4569999873638153,-2.6023805399840803
451.551724,,0.00855873799139649,451.52,0.4659999907016754,-2.5824542949444775
452.017241,,0.006915583398779811,451.983,0.460999995470047,-2.5931008854418804
452.482759,,0.0070858368170046435,452.445,0.46299999952316284,-2.58857657686179
452.94827599999996,,0.008830685833936543,452.913,0.46399998664855957,-2.5863160198956687
453.413793,,0.009144891670890245,453.375,0.4390000104904175,-2.640788474373409
453.87931,,0.006209553065708467,453.839,0.45100000500679016,-2.614739843217192
454.344828,,0.0018558991854416816,454.308,0.46399998664855957,-2.586598381145944
454.810345,,0.00045006540298605255,454.775,0.4180000126361847,-2.6870774785010227
455.27586199999996,,0.0006280703986375508,455.239,0.4650000035762787,-2.5850150654714628
455.741379,,0.003366768652886727,455.704,0.5009999871253967,-2.5069785321033358
456.206897,,0.005323824799525694,456.169,0.4819999933242798,-2.5488140873863196
456.672414,,0.005310048000068343,456.635,0.46000000834465027,-2.597218602356555
457.137931,,0.003175843100088884,457.094,0.45899999141693115,-2.5998909191269735
457.603448,,0.0005916853900076386,457.56,0.45899999141693115,-2.6003888848874985
458.06896600000005,,0.004455683708748074,458.024,0.4650000035762787,-2.5878035289038346
458.53448299999997,,0.006448111594837692,458.49,0.46700000762939453,-2.583905818024677
459.0,,0.006009612509863557,458.961,0.5009999871253967,-2.510249116544388
459.465517,,0.0043541228628806525,459.423,0.46799999475479126,-2.582505751334287
459.931034,,0.002719703645190312,459.884,0.47999998927116394,-2.5566561186384433
460.39655200000004,,0.0013190116956037995,460.354,0.46399998664855957,-2.591732816708651
460.86206899999996,,0.0002976733545609567,460.82,0.4749999940395355,-2.567903447284874
461.327586,,0.00037597644560281396,461.284,0.4659999907016754,-2.5875603720283125
461.793103,,0.0015624568525944185,461.75,0.4880000054836273,-2.5395906021299246
462.258621,,0.0020992365750982984,462.209,0.46399998664855957,-2.591751284837971
462.724138,,9.731302910081595e-05,462.675,0.47099998593330383,-2.576290675347783
463.18965499999996,,0.0037502777415902608,463.14,0.47999998927116394,-2.5563962646504748
463.655172,,0.006205711633489566,463.605,0.4650000035762787,-2.5887217450358575
464.12069,,0.004833626551647888,464.072,0.45899999141693115,-2.601383418308459
464.58620699999994,,0.0008415533537127896,464.538,0.46299999952316284,-2.5922158513219746
465.051724,,0.002050973175646167,465.006,0.46000000834465027,-2.5982703482183966
465.517241,,0.0014922817968831782,465.468,0.4020000100135803,-2.724138284622259
465.98275900000004,,0.0013910779115360056,465.931,0.46799999475479126,-2.5798578634792966
466.448276,,0.003834622560403932,466.394,0.4650000035762787,-2.5859221715902243
466.913793,,0.004304043767271778,466.865,0.47699999809265137,-2.559338011177815
467.37931,,0.002730673743381186,467.327,0.42500001192092896,-2.6722328044480137
467.844828,,0.0009423663151562189,467.793,0.45899999141693115,-2.5978225659897385
468.31034500000004,,0.00653005631319498,468.256,0.4790000021457672,-2.5539817390787833
468.77586199999996,,0.011952353659835796,468.722,0.4779999852180481,-2.555967824621415
469.241379,,0.013704144505345763,469.188,0.4659999907016754,-2.5819999868932806
469.706897,,0.010148132471506493,469.653,0.46700000762939453,-2.579794509574886
470.172414,,0.003668308815367745,470.12,0.47200000286102295,-2.5689601812449534
470.63793100000004,,0.0015367387749752512,470.586,0.46299999952316284,-2.588710738150125
471.10344799999996,,0.003660434162749323,471.044,0.47600001096725464,-2.560610334959148
471.568966,,0.00423921801097716,471.51,0.4519999921321869,-2.6131926185137626
472.034483,,0.004919583589116813,471.98,0.46700000762939453,-2.5808713541774733
472.5,,0.005034423756334842,472.442,0.4569999873638153,-2.6030692172836494
472.965517,,0.003515266313473894,472.905,0.46399998664855957,-2.5882700393263836
473.43103399999995,,0.0016716192178055959,473.375,0.4569999873638153,-2.6039980563263847
473.89655200000004,,0.001880840278829907,473.839,0.4659999907016754,-2.5848789519479873
474.362069,,0.0037951674601902894,474.301,0.46399998664855957,-2.5897209571833737
474.827586,,0.003942931337713399,474.767,0.460999995470047,-2.596722472151403
475.293103,,0.0001003964439069392,475.232,0.4569999873638153,-2.6058693533625443
475.758621,,0.00636467454148416,475.698,0.46299999952316284,-2.5931830663160143
476.22413800000004,,0.010244042953784132,476.165,0.4790000021457672,-2.5586512600179243
476.689655,,0.0089524027290438,476.631,0.4480000138282776,-2.6264466365039816
477.155172,,0.003679012771075816,477.091,0.4659999907016754,-2.5874115101222
477.62069,,0.0017631056921411411,477.557,0.4659999907016754,-2.5875095560012538
478.086207,,0.0037446596077322543,478.021,0.4620000123977661,-2.5962363741564753
478.55172400000004,,0.0013825933662184725,478.486,0.46399998664855957,-2.591805344424362
479.01724099999996,,0.0026108897438768945,478.949,0.4690000116825104,-2.580754385068653
479.482759,,0.004321692780032617,479.42,0.4580000042915344,-2.6044828755338596
479.948276,,0.0027325896853895417,479.883,0.45100000500679016,-2.619425525177795
480.413793,,0.0007522454087132983,480.346,0.46000000834465027,-2.5994483875484593
480.87931000000003,,0.0013611675107891251,480.811,0.46299999952316284,-2.592492937238902
481.344828,,0.003634898938361111,481.275,0.47999998927116394,-2.554998538967546
481.810345,,0.003974083393935184,481.74,0.4390000104904175,-2.6438420954682917
482.275862,,0.0008404105508654643,482.205,0.460999995470047,-2.5954228961161148
482.74137900000005,,0.003336775052436989,482.67,0.4880000054836273,-2.5361170350760083
483.206897,,0.005024761209943354,483.135,0.4620000123977661,-2.592300228233462
483.672414,,0.002845010685612222,483.601,0.46799999475479126,-2.5788020175733353
484.13793100000004,,0.002228600565754127,484.066,0.4620000123977661,-2.591496467775393
484.603448,,0.008289625333563736,484.531,0.503000020980835,-2.501854468777854
485.068966,,0.013438580420843296,484.994,0.46399998664855957,-2.586573778235483
485.534483,,0.01651483057742776,485.463,0.46399998664855957,-2.586403481180209
486.0,,0.017730869216445563,485.924,0.4790000021457672,-2.5536370843476472
486.46551700000003,,0.018103552114166848,486.394,0.47600001096725464,-2.5601724073075243
486.931034,,0.018069828089626847,486.857,0.46399998664855957,-2.586401921073845
487.396552,,0.017289682792784904,487.32,0.44699999690055847,-2.6236092376189357
487.862069,,0.01569475226696812,487.785,0.47999998927116394,-2.5519638974099386
488.327586,,0.013482079040249449,488.252,0.4560000002384186,-2.6045732090245224
488.79310300000003,,0.00975251104533829,488.718,0.4880000054836273,-2.535239684347636
489.258621,,0.0028188495540842494,489.179,0.45899999141693115,-2.5988533236250886
489.724138,,0.006824971976791251,489.644,0.4699999988079071,-2.5753574094308878
490.189655,,0.015052733378178829,490.109,0.4909999966621399,-2.5300967333003395
490.655172,,0.017475963717147602,490.574,0.46000000834465027,-2.5981319010158437
491.12069,,0.014025956643634572,491.039,0.460999995470047,-2.5964418205898676
491.586207,,0.008972686919762073,491.504,0.46399998664855957,-2.5903712366169924
492.05172400000004,,0.006669436206931069,491.974,0.4650000035762787,-2.5886200650080857
492.517241,,0.008171326599702041,492.436,0.46399998664855957,-2.591175006110544
492.982759,,0.011461323936441142,492.906,0.4819999933242798,-2.552272179799728
493.448276,,0.013697835034871127,493.368,0.46799999475479126,-2.5830125046383627
493.913793,,0.013237091514080831,493.831,0.4620000123977661,-2.596242673326075
494.37931000000003,,0.010539693080131855,494.294,0.45100000500679016,-2.6202808127796433
494.844828,,0.007659832064785884,494.76,0.453000009059906,-2.6159091666751446
495.310345,,0.00653233852827437,495.228,0.45899999141693115,-2.602735864603216
495.775862,,0.007469067228614149,495.693,0.46399998664855957,-2.5916565901009796
496.241379,,0.009393643052536994,496.158,0.47699999809265137,-2.5630684317045844
496.70689699999997,,0.01135866650809711,496.623,0.4690000116825104,-2.5801597837305468
497.172414,,0.01336339107812734,497.084,0.46299999952316284,-2.592832179798395
497.637931,,0.01578440422629597,497.549,0.460999995470047,-2.5967408481664656
498.103448,,0.01861822413602318,498.024,0.46799999475479126,-2.5810063554697202
498.568966,,0.021328122247129464,498.482,0.47200000286102295,-2.571787060821302
499.03448299999997,,0.02296032365448653,498.951,0.46700000762939453,-2.582170271567369
499.5,,0.022505606914617185,499.413,0.45899999141693115,-2.5991001884404827
499.96551700000003,,0.019682455401567354,499.876,0.4779999852180481,-2.5572328209754516
500.431034,,0.015319654268358834,500.346,0.4779999852180481,-2.55680023631082
500.89655200000004,,0.01059070332851544,500.804,0.4569999873638153,-2.602173343274057
501.362069,,0.00609585624409693,501.274,0.4749999940395355,-2.562645578166445
501.827586,,0.0020388054819740734,501.74,0.4650000035762787,-2.584196278814066
502.293103,,0.0012424546010981906,502.201,0.46399998664855957,-2.5862231424305677
502.758621,,0.0036588933106376864,502.667,0.46000000834465027,-2.594875138638292
503.224138,,0.005934801600496128,503.131,0.4690000116825104,-2.575296265773261
503.68965499999996,,0.008955372677475863,503.597,0.45899999141693115,-2.597202658099356
504.15517200000005,,0.012575094091331868,504.061,0.492000013589859,-2.5255141032455484
504.62068999999997,,0.015608154130661009,504.526,0.43799999356269836,-2.643449037297366
505.08620699999994,,0.016903715627026014,504.994,0.46000000834465027,-2.5958798189501215
505.55172400000004,,0.01607438142000661,505.456,0.460999995470047,-2.5941247663274503
506.017241,,0.013596828652691826,505.924,0.47999998927116394,-2.553202717093864
506.48275899999993,,0.010834930460430707,506.387,0.4620000123977661,-2.5929244145677224
506.948276,,0.009579183684325657,506.85,0.46700000762939453,-2.582555640910729
507.413793,,0.01070352472379664,507.32,0.46700000762939453,-2.5830824201106135
507.87931,,0.013202126621684048,507.786,0.4399999976158142,-2.642419117079869
508.344828,,0.014990595146997274,508.244,0.45899999141693115,-2.6015089535052094
508.810345,,0.01472953786980026,508.71,0.46700000762939453,-2.5845193477804758
509.27586199999996,,0.012690211449098139,509.175,0.4729999899864197,-2.5718279322996604
509.74137900000005,,0.009937032630598957,509.641,0.46399998664855957,-2.5917447496565615
510.20689699999997,,0.007027132168327048,510.106,0.4650000035762787,-2.589793864525297
510.67241399999995,,0.0038018609128754434,510.572,0.47099998593330383,-2.5768612593252067
511.13793100000004,,0.0004524813697904217,511.039,0.46700000762939453,-2.585621674923308
511.603448,,0.0015274531179578685,511.505,0.46799999475479126,-2.583393782098698
512.0689659999999,,9.883747431743445e-05,511.968,0.45500001311302185,-2.6115732451567104
512.534483,,0.0064416389350940035,512.431,0.46399998664855957,-2.591733266999542
513.0,,0.016006410240015784,512.894,0.4650000035762787,-2.58923991526013
513.465517,,0.025253929250385655,513.364,0.49000000953674316,-2.5343853419072953
513.931034,,0.031133588716075092,513.832,0.46399998664855957,-2.5905796346240253
514.396552,,0.033310066838279986,514.294,0.45500001311302185,-2.6096889788218163
514.862069,,0.03362280932204853,514.76,0.45500001311302185,-2.6091589321605335
515.327586,,0.03341732687317847,515.225,0.4749999940395355,-2.565040531421671
515.793103,,0.03215959405798105,515.691,0.4699999988079071,-2.5753891728725593
516.258621,,0.028875878152512472,516.15,0.4620000123977661,-2.592291537683089
516.724138,,0.023871558554557033,516.615,0.4659999907016754,-2.583084785900151
517.189655,,0.01805160919579385,517.079,0.45500001311302185,-2.6066079466518888
517.655172,,0.011108093379848676,517.545,0.4650000035762787,-2.5844439139689466
518.1206900000001,,0.0015713171823557633,518.013,0.46399998664855957,-2.5863212478601127
518.5862070000001,,0.01131754727935242,518.476,0.4740000069141388,-2.5643188841479434
519.051724,,0.02655625796923933,518.939,0.48399999737739563,-2.5424085985333997
519.517241,,0.04203254722041845,519.409,0.46799999475479126,-2.5772391412309092
519.982759,,0.055335758034628625,519.872,0.46700000762939453,-2.5794875711454814
520.448276,,0.06401574253672185,520.335,0.47600001096725464,-2.5600456030393137
520.9137929999999,,0.06616657949951348,520.8,0.46399998664855957,-2.586446565983646
521.37931,,0.06154437369884973,521.27,0.46399998664855957,-2.586787608612263
521.844828,,0.052136889348777256,521.736,0.47600001096725464,-2.5610584950723156
522.310345,,0.04132724718395989,522.194,0.4779999852180481,-2.5571766138736227
522.7758620000001,,0.03199185124828663,522.661,0.4860000014305115,-2.5402684313621666
523.241379,,0.024906813215140135,523.127,0.4659999907016754,-2.58439225432565
523.7068969999999,,0.018885775232165745,523.593,0.46399998664855957,-2.5893138527040347
524.172414,,0.012579618826570006,524.059,0.49000000953674316,-2.5332292365474576
524.637931,,0.006055406391016822,524.525,0.47999998927116394,-2.5555539967475167
525.103448,,0.0004828401381429966,524.987,0.4830000102519989,-2.549517233928042
525.568966,,0.0034341422454920558,525.45,0.47699999809265137,-2.5630340069805135
526.034483,,0.0061587518355098935,525.92,0.4790000021457672,-2.559053364985482
526.5,,0.008438691246628506,526.383,0.47699999809265137,-2.563707353429972
526.9655170000001,,0.010380797137674397,526.846,0.47699999809265137,-2.5639146477363064
527.4310340000001,,0.011795009738915105,527.309,0.5130000114440918,-2.485593810175801
527.8965519999999,,0.012965882988007028,527.774,0.4699999988079071,-2.579285324250119
528.362069,,0.014451126947078289,528.239,0.5,-2.5138342112544727
528.827586,,0.016247993248588905,528.704,0.48500001430511475,-2.5463236117282944
529.293103,,0.017737998816338932,529.176,0.5049999952316284,-2.5024669594972955
529.7586210000001,,0.01855895299038069,529.634,0.5009999871253967,-2.510812649874273
530.224138,,0.018944981867388803,530.106,0.503000020980835,-2.5060121546581926
530.689655,,0.01872608369399508,530.564,0.5040000081062317,-2.5033298412581684
531.155172,,0.016611584824092616,531.032,0.4950000047683716,-2.5223891235725926
531.62069,,0.01179349809283506,531.497,0.49000000953674316,-2.5327063893016417
532.086207,,0.0063374859459781885,531.965,0.49900001287460327,-2.512513325393568
532.5517239999999,,0.004148628725369676,532.427,0.49000000953674316,-2.5315449532807683
533.017241,,0.00628372697942617,532.89,0.5090000033378601,-2.4896012917000756
533.482759,,0.00872091769141821,533.361,0.515999972820282,-2.473844978718494
533.9482760000001,,0.006919444700592214,533.819,0.5360000133514404,-2.429824592812141
534.413793,,0.0019447870334803371,534.284,0.5270000100135803,-2.449057216627672
534.87931,,0.0006458112871158173,534.75,0.4880000054836273,-2.5337342255641224
535.344828,,0.0015515575199288607,535.216,0.5009999871253967,-2.505217342192843
535.810345,,0.004177491432926252,535.682,0.49000000953674316,-2.529090816317212
536.275862,,0.0019810740252856635,536.15,0.503000020980835,-2.5007828803130066
536.7413789999999,,0.003940833243707518,536.616,0.5370000004768372,-2.4268286349653327
537.206897,,0.0075011655172773205,537.076,0.5260000228881836,-2.45101418701984
537.672414,,0.005149634428456763,537.541,0.5260000228881836,-2.4513286953708464
538.137931,,0.0005692978858567987,538.009,0.5260000228881836,-2.4517281267422915
538.6034480000001,,0.00463413092782907,538.472,0.550000011920929,-2.399912479703696
539.0689659999999,,0.004461219587789638,538.935,0.550000011920929,-2.4004417009003753
539.5344829999999,,0.0010858394131410076,539.405,0.5669999718666077,-2.363974452460206
540.0,,0.0026528820709639214,539.865,0.5270000100135803,-2.4517133084132574
540.465517,,0.004372777863901605,540.335,0.5419999957084656,-2.4196326713589893
540.931034,,0.0036381371726125745,540.8,0.5529999732971191,-2.396254424887114
541.396552,,0.001954255210754728,541.263,0.5389999747276306,-2.4273117144426615
541.862069,,0.0010628007967101647,541.729,0.5669999718666077,-2.3668178003731364
542.327586,,0.0011821081399350862,542.194,0.5529999732971191,-2.3977630117396034
542.7931030000001,,0.0012556043215818115,542.66,0.546999990940094,-2.4112012514865544
543.258621,,0.0006013470808216652,543.124,0.5419999957084656,-2.4223723461965245
543.7241379999999,,0.0005448348017159726,543.589,0.5540000200271606,-2.396409230650872
544.189655,,0.002007296277623409,544.05,0.5419999957084656,-2.422630804595611
544.655172,,0.004085299607555792,544.515,0.550000011920929,-2.405173778862287
545.12069,,0.006588270112314061,544.983,0.5860000252723694,-2.32660892134492
545.5862070000001,,0.008129899509364978,545.446,0.5709999799728394,-2.3590522949023263
546.051724,,0.006983703855259307,545.913,0.5680000185966492,-2.3652557077610172
546.517241,,0.0028143765293722786,546.376,0.5509999990463257,-2.4018751402981966
546.982759,,0.002404367032116367,546.839,0.6060000061988831,-2.281558976497224
547.448276,,0.005430907193253535,547.308,0.5649999976158142,-2.370334439359109
547.9137929999999,,0.004108837746412662,547.774,0.6050000190734863,-2.2825971884919167
548.3793099999999,,0.001048909849293303,548.238,0.5669999718666077,-2.3647709488305697
548.844828,,0.007259933532367382,548.704,0.6029999852180481,-2.2857198729698123
549.310345,,0.011192734160996682,549.168,0.5419999957084656,-2.418012965102229
549.775862,,0.010848161384387944,549.634,0.6010000109672546,-2.288902761461307
550.241379,,0.006766592515944079,550.099,0.5789999961853027,-2.336315084078498
550.706897,,0.0017876593182787094,550.564,0.5839999914169312,-2.3249717035627895
551.172414,,0.0008448783786818465,551.024,0.49799999594688416,-2.5119693610084752
551.637931,,4.1237728160041065e-05,551.49,0.5830000042915344,-2.3265151880100094
552.103448,,0.0024806334712632037,551.961,0.6000000238418579,-2.2893130670423267
552.568966,,0.0031489603956760207,552.423,0.550000011920929,-2.3981885321130556
553.034483,,0.0007620157499444709,552.891,0.5540000200271606,-2.3895284300310906
553.5,,0.0027254980549561154,553.353,0.5860000252723694,-2.3199764266568073
553.965517,,0.004928073741368267,553.819,0.5540000200271606,-2.3899626782995593
554.4310340000001,,0.0061611243134592686,554.285,0.5830000042915344,-2.3271478864414865
554.896552,,0.008408979672541303,554.75,0.5630000233650208,-2.371172021985302
555.3620689999999,,0.011685446629503464,555.21,0.550000011920929,-2.4000173991032367
555.827586,,0.013293564097644912,555.676,0.5669999718666077,-2.363559421348855
556.293103,,0.011287690159358498,556.142,0.5809999704360962,-2.333674700122286
556.758621,,0.007382757317610088,556.608,0.6100000143051147,-2.271126926443543
557.224138,,0.005281269812832824,557.072,0.5809999704360962,-2.334937223846636
557.689655,,0.006475139821064992,557.538,0.5860000252723694,-2.324650279306605
558.155172,,0.00861185334624944,558.006,0.5709999799728394,-2.357895312583748
558.6206900000001,,0.008117870075876202,558.468,0.6079999804496765,-2.2777913989367757
559.0862070000001,,0.003943441197445204,558.931,0.6010000109672546,-2.2934721234963193
559.5517239999999,,0.0015069909786650348,559.394,0.5640000104904175,-2.3744233683111844
560.017241,,0.004958787254979053,559.865,0.5669999718666077,-2.368130519978021
560.482759,,0.0054011723948416985,560.327,0.5690000057220459,-2.3639108884073154
560.948276,,0.004373494150493203,560.793,0.5540000200271606,-2.396618835270886
561.413793,,0.0035135732615156597,561.256,0.5540000200271606,-2.3965370819580465
561.87931,,0.0027879669149998673,561.722,0.5419999957084656,-2.4224920352160906
562.344828,,0.0014225740686326723,562.187,0.5669999718666077,-2.3677354294890294
562.8103450000001,,0.0003916856171804159,562.653,0.5130000114440918,-2.484999459069296
563.275862,,0.0015395181158484278,563.12,0.6190000176429749,-2.253598282010403
563.7413789999999,,0.0013190536594105226,563.586,0.5299999713897705,-2.4469651775195893
564.206897,,0.00010676395580964391,564.05,0.527999997138977,-2.4507383693241196
564.672414,,0.0010761373205353337,564.516,0.5019999742507935,-2.5067681835264715
565.137931,,0.0011832838715982676,564.979,0.5669999718666077,-2.3645282840467066
565.603448,,0.0003086783398048786,565.442,0.5009999871253967,-2.5076971296541113
566.068966,,0.002724341842714375,565.909,0.49900001287460327,-2.51145826669042
566.534483,,0.0043118650085843795,566.372,0.4950000047683716,-2.519622033035453
567.0,,0.004037592593388453,566.835,0.49000000953674316,-2.5300265074825368
567.465517,,0.0031202832143392787,567.305,0.49799999594688416,-2.512185355313829
567.931034,,0.003517586247861401,567.764,0.49399998784065247,-2.5205767836522113
568.396552,,0.004945498429145726,568.236,0.492000013589859,-2.5247090713795255
568.862069,,0.005016067407157884,568.694,0.4830000102519989,-2.5441968684615293
569.327586,,0.0026003894381740555,569.161,0.46799999475479126,-2.5768652568228156
569.793103,,0.0005671228656413339,569.626,0.4860000014305115,-2.53774699317035
570.2586210000001,,0.00209390925933073,570.091,0.47600001096725464,-2.559735924429331
570.724138,,0.001274958823810194,570.557,0.49300000071525574,-2.5229993061289555
571.189655,,0.0011846862604698825,571.024,0.49300000071525574,-2.523387417235745
571.655172,,0.004188582521995423,571.49,0.4790000021457672,-2.55435187440654
572.12069,,0.006204896123205026,571.953,0.48500001430511475,-2.541804368750256
572.586207,,0.005737330868946182,572.416,0.5009999871253967,-2.507514825880312
573.051724,,0.0031726630432755342,572.883,0.4650000035762787,-2.5865416045348932
573.517241,,0.0011904569799594976,573.346,0.4690000116825104,-2.5784316713734183
573.982759,,0.001972062761692762,573.812,0.46000000834465027,-2.598635543781035
574.4482760000001,,0.004553398258789375,574.275,0.46399998664855957,-2.5904902802191914
574.913793,,0.006064389221971539,574.74,0.4269999861717224,-2.6716261721980077
575.37931,,0.0051673903715069155,575.205,0.46299999952316284,-2.5936618275322285
575.844828,,0.003258593113902507,575.671,0.46000000834465027,-2.6005911847685783
576.310345,,0.0023902464148217424,576.135,0.46299999952316284,-2.5943625006500324
576.775862,,0.0027295451354292055,576.6,0.45399999618530273,-2.6141822602416007
577.241379,,0.002339761652844069,577.065,0.4650000035762787,-2.5903274386589485
577.706897,,0.0005727669077805425,577.53,0.49000000953674316,-2.535866070317396
578.172414,,0.0053858898752109615,577.998,0.5019999742507935,-2.5096204993170734
578.6379310000001,,0.009374642404394503,578.461,0.45100000500679016,-2.620526421278342
579.1034480000001,,0.010295022922691608,578.924,0.46299999952316284,-2.5940823639896595
579.5689659999999,,0.008356891596068379,579.393,0.4650000035762787,-2.589339663168964
580.034483,,0.005814819896236405,579.854,0.460999995470047,-2.5975957075400005
580.5,,0.004952576904630612,580.323,0.45399999618530273,-2.6123291257730616
580.965517,,0.006084019458146413,580.789,0.4779999852180481,-2.5594819088835097
581.431034,,0.007179553341081867,581.253,0.46299999952316284,-2.5915763273537196
581.896552,,0.00612818299724892,581.719,0.45399999618530273,-2.6105916745924054
582.362069,,0.0038709318645450564,582.183,0.4490000009536743,-2.620904205765933
582.827586,,0.004344202376707616,582.649,0.46399998664855957,-2.5876735313468657
583.2931030000001,,0.010181118523558992,583.113,0.45100000500679016,-2.615491349345637
583.758621,,0.018886214378241756,583.578,0.4480000138282776,-2.621584716939608
584.2241379999999,,0.024549379195387865,584.043,0.4410000145435333,-2.6364686005716074
584.689655,,0.023730364007142932,584.508,0.44600000977516174,-2.6252958115734617
585.155172,,0.019052305137012584,584.976,0.46000000834465027,-2.5946101862475266
585.6206900000001,,0.016526079714564705,585.438,0.45500001311302185,-2.605418621570005
586.0862070000001,,0.019463753827698042,585.906,0.45899999141693115,-2.5967210133013423
586.551724,,0.025521050187218303,586.368,0.45399999618530273,-2.6077319849426193
587.017241,,0.029902482461840584,586.831,0.43799999356269836,-2.6428052391717842
587.482759,,0.0303982173530973,587.294,0.46000000834465027,-2.5951801285782556
587.948276,,0.027935962284165346,587.76,0.4659999907016754,-2.5824933592587764
588.4137929999999,,0.023215860685850475,588.227,0.45500001311302185,-2.6069107535899234
588.87931,,0.015451096238331232,588.693,0.45500001311302185,-2.6074163289018806
589.344828,,0.004646198915401672,589.158,0.4480000138282776,-2.6232102492367546
589.810345,,0.007188741850796308,589.624,0.4569999873638153,-2.6041668326415617
590.2758620000001,,0.017750181093421205,590.091,0.45399999618530273,-2.6112704924505135
590.741379,,0.025816656677369692,590.549,0.46000000834465027,-2.5987519897330316
591.2068969999999,,0.03076080508868802,591.021,0.45500001311302185,-2.610167274140106
591.672414,,0.03250982554039187,591.48,0.46799999475479126,-2.5823194484755385
592.137931,,0.03263892946726858,591.95,0.45899999141693115,-2.6023397838932385
592.603448,,0.03393395477264942,592.412,0.4650000035762787,-2.589605841269067
593.068966,,0.03755201202267035,592.876,0.46399998664855957,-2.592037933063463
593.534483,,0.04131063025815917,593.346,0.44999998807907104,-2.6227006734506464
594.0,,0.04201019804391431,593.804,0.46000000834465027,-2.6009798974255824
594.4655170000001,,0.039055201603656026,594.274,0.44699999690055847,-2.6292708331103296
594.9310340000001,,0.03453239117382172,594.74,0.4560000002384186,-2.609535760761434
595.3965519999999,,0.03001398195952821,595.205,0.45899999141693115,-2.6027811603903244
595.862069,,0.024941110702154233,595.671,0.44699999690055847,-2.628621937945302
596.327586,,0.018565659189457937,596.136,0.46000000834465027,-2.599922021347873
596.793103,,0.01197017367791317,596.594,0.453000009059906,-2.614732495272339
597.2586210000001,,0.00702757928694794,597.061,0.44699999690055847,-2.6273156866424086
597.724138,,0.004161113167118936,597.527,0.46700000762939453,-2.5832205146340264
598.189655,,0.002320269170829996,597.99,0.4519999921321869,-2.6153605292669977
598.655172,,0.0005894320252551901,598.46,0.46299999952316284,-2.5908546623227555
599.12069,,0.0015488481513595124,598.921,0.49000000953674316,-2.53150543205371
599.586207,,0.004985789627901601,599.39,0.4569999873638153,-2.602905758893697
600.0517239999999,,0.010143013956286808,599.853,0.45100000500679016,-2.6155289679601075
600.517241,,0.015303864421301243,600.316,0.47200000286102295,-2.5693892778538165
600.982759,,0.01743669968033408,600.782,0.48399999737739563,-2.5429288446606777
601.448276,,0.015287800964632343,601.245,0.46399998664855957,-2.5862656278227494
601.913793,,0.011016444706561922,601.711,0.4569999873638153,-2.6013680360891005
602.37931,,0.008424872258488321,602.175,0.45899999141693115,-2.596955560918533
602.844828,,0.009493335117263392,602.641,0.4699999988079071,-2.5730294457974394
603.310345,,0.012496977594678382,603.105,0.460999995470047,-2.5927687502679224
603.775862,,0.013758350404801651,603.571,0.47699999809265137,-2.5581296967857496
604.2413789999999,,0.011499527572828959,604.035,0.4300000071525574,-2.66082682237094
604.706897,,0.00761336202191061,604.501,0.4560000002384186,-2.6045553201322904
605.172414,,0.0053757749019377465,604.965,0.4129999876022339,-2.6986722943854367
605.637931,,0.0058904849497655835,605.434,0.4490000009536743,-2.6207243452902875
606.1034480000001,,0.007370309288666516,605.898,0.46399998664855957,-2.588560487357173
606.5689659999999,,0.007788367806571518,606.36,0.453000009059906,-2.613056608361204
607.0344829999999,,0.007456902036875498,606.831,0.45100000500679016,-2.617943681035459
607.5,,0.00849573803902356,607.294,0.46700000762939453,-2.58359725399008
607.965517,,0.012306051650338507,607.76,0.47600001096725464,-2.564466934148257
608.431034,,0.018440751639722763,608.22,0.4399999976158142,-2.6433267036644357
608.896552,,0.025709184370098292,608.685,0.46399998664855957,-2.5914059135665566
609.362069,,0.033127575898674634,609.15,0.4699999988079071,-2.5786276181636096
609.827586,,0.03931659003092481,609.616,0.4429999887943268,-2.6376626030605275
610.293103,,0.042226137272491915,610.08,0.4480000138282776,-2.6268930612010304
610.758621,,0.04087635843641507,610.546,0.46000000834465027,-2.6007819134328267
611.2241379999999,,0.03689879119911964,611.009,0.4519999921321869,-2.618151541082654
611.689655,,0.03275649856232878,611.479,0.4699999988079071,-2.578785901207976
612.155172,,0.028475429343749203,611.942,0.46299999952316284,-2.593800742069268
612.62069,,0.0217698954823041,612.405,0.45100000500679016,-2.6196308406295175
613.0862070000001,,0.011421796454997439,612.873,0.45100000500679016,-2.6192498105935442
613.551724,,0.0013998448263795188,613.335,0.4569999873638153,-2.605741794172818
614.017241,,0.015422572065027064,613.801,0.45100000500679016,-2.618336026035412
614.4827590000001,,0.030665751115170066,614.264,0.4729999899864197,-2.5699014016968844
614.948276,,0.04650724248965463,614.73,0.45100000500679016,-2.617316033340582
615.4137929999999,,0.059824870230922506,615.198,0.4429999887943268,-2.6342350705839004
615.8793099999999,,0.06653450969371151,615.664,0.45100000500679016,-2.616317521683087
616.344828,,0.06498742845536733,616.124,0.44699999690055847,-2.6245807456591983
616.810345,,0.057444340666804296,616.59,0.4429999887943268,-2.6328948859672847
617.275862,,0.04822651794640859,617.054,0.44600000977516174,-2.6260217635558347
617.741379,,0.04051662640922661,617.52,0.46000000834465027,-2.595256819816849
618.206897,,0.03458464129560484,617.99,0.45899999141693115,-2.597252256862432
618.672414,,0.028430927831608433,618.453,0.45100000500679016,-2.614584072544313
619.137931,,0.020045267607119888,618.921,0.45100000500679016,-2.6145756261650837
619.603448,,0.009731865958450076,619.383,0.4429999887943268,-2.6320855202035434
620.068966,,0.0005085815674740585,619.846,0.48899999260902405,-2.5320339954089226
620.534483,,0.004446800162953967,620.309,0.44600000977516174,-2.6259616299842303
621.0,,0.005103924538801766,620.774,0.43799999356269836,-2.6437089859206364
621.465517,,0.004697171474222536,621.246,0.45500001311302185,-2.6070530425841763
621.9310340000001,,0.006106456048967726,621.704,0.4650000035762787,-2.5856979589623625
622.396552,,0.008889370500143223,622.169,0.4699999988079071,-2.5752719753372615
622.862069,,0.010729134742438463,622.635,0.45100000500679016,-2.617154749181812
623.327586,,0.010996622786135097,623.101,0.5540000200271606,-2.3932469638711136
623.793103,,0.011247766834096756,623.567,0.4490000009536743,-2.6224861773756807
624.258621,,0.01232226048348654,624.035,0.46700000762939453,-2.5837263032636173
624.724138,,0.01283222856594578,624.501,0.4560000002384186,-2.6081097717884805
625.189655,,0.01138703934369454,624.965,0.44600000977516174,-2.6302646806025796
625.655172,,0.009172588454166193,625.427,0.44699999690055847,-2.628394140911613
626.1206900000001,,0.009111609159736973,625.891,0.46299999952316284,-2.5937741559306793
626.5862070000001,,0.012500065531763912,626.36,0.45100000500679016,-2.620079265468264
627.0517239999999,,0.017110369153174234,626.819,0.45100000500679016,-2.620159038253336
627.5172409999999,,0.01903528945325071,627.285,0.46399998664855957,-2.59183271258491
627.982759,,0.01641902777860958,627.751,0.44999998807907104,-2.622246392651045
628.448276,,0.011244828131319379,628.216,0.44699999690055847,-2.628614765183976
628.913793,,0.007534462375227199,628.682,0.45399999618530273,-2.6131221854896234
629.37931,,0.0077624139551141745,629.147,0.4429999887943268,-2.636778494482359
629.844828,,0.010504116032299683,629.612,0.4399999976158142,-2.642948765342011
630.3103450000001,,0.011439684437458207,630.079,0.45399999618530273,-2.612036612557194
630.7758620000001,,0.007535213524508332,630.545,0.44699999690055847,-2.6268430100600844
631.2413789999999,,0.00076806694096914,631.006,0.4569999873638153,-2.6045927451159034
631.706897,,0.0031553303276348407,631.476,0.43299999833106995,-2.6564112311981085
632.172414,,0.0006331251302712844,631.939,0.4440000057220459,-2.631986492957023
632.637931,,0.005772423980064983,632.401,0.46299999952316284,-2.5901556686268212
633.103448,,0.009849833211252984,632.865,0.4410000145435333,-2.6376851326576385
633.568966,,0.008053270973025443,633.335,0.45100000500679016,-2.615545884019912
634.034483,,0.0027083707435750374,633.801,0.45100000500679016,-2.61525166394759
634.5,,0.001008297576590761,634.263,0.47200000286102295,-2.5692724854416826
634.9655170000001,,0.0007142245222445978,634.729,0.44699999690055847,-2.6235841869150045
635.431034,,0.001043620491224429,635.194,0.46399998664855957,-2.5864702996431723
635.8965519999999,,0.00038738679144787423,635.66,0.45100000500679016,-2.614795657203924
636.362069,,0.0027971660394328435,636.121,0.367000013589859,-2.7978863672915733
636.827586,,0.004510574946850706,636.586,0.46299999952316284,-2.5889002525081546
637.293103,,0.0017340524385254866,637.053,0.4620000123977661,-2.5913157116113927
637.7586210000001,,0.0032857168978970503,637.519,0.46799999475479126,-2.5785439369638095
638.224138,,0.005109143527999247,637.98,0.453000009059906,-2.6115776415707597
638.689655,,0.0011893864198819215,638.45,0.4659999907016754,-2.583652388035636
639.155172,,0.005259663826194426,638.913,0.4440000057220459,-2.632010929439949
639.62069,,0.008708951765579337,639.375,0.4569999873638153,-2.604135213007921
640.086207,,0.006816780428624493,639.839,0.45899999141693115,-2.600229284871195
640.551724,,0.002126875178840242,640.309,0.43799999356269836,-2.646423399329769
641.017241,,0.0009154315428032377,640.774,0.4490000009536743,-2.6228790390487666
641.482759,,0.00019360119340691674,641.238,0.47200000286102295,-2.5731561282739923
641.9482760000001,,0.004561356767426505,641.704,0.45100000500679016,-2.6192468083970435
642.413793,,0.00885243641107849,642.169,0.44999998807907104,-2.621707899992108
642.87931,,0.009555456441506557,642.635,0.46700000762939453,-2.5848884122677385
643.344828,,0.005805485314859993,643.094,0.44699999690055847,-2.628607674403587
643.810345,,0.0008253553366164967,643.56,0.4519999921321869,-2.617785601688183
644.275862,,0.0004880302925420666,644.028,0.45100000500679016,-2.61995869733011
644.7413789999999,,0.003420686429419761,644.494,0.47999998927116394,-2.5566956070280957
645.206897,,0.008640145476031867,644.957,0.4659999907016754,-2.5870396648623837
645.672414,,0.009736769366902542,645.42,0.4729999899864197,-2.5715623331301054
646.1379310000001,,0.005640485905364166,645.89,0.45500001311302185,-2.610488998643186
646.6034480000001,,0.0005590427743183432,646.353,0.46299999952316284,-2.5927181877122174
647.0689659999999,,0.0010190954417775054,646.819,0.4449999928474426,-2.6315506125380974
647.534483,,0.0010057451076286928,647.285,0.4519999921321869,-2.615887433766858
648.0,,0.003184107165046234,647.75,0.4690000116825104,-2.5784208070542802
648.465517,,0.0027957507878693727,648.209,0.4569999873638153,-2.6041307797943625
648.931034,,0.00027191318616831805,648.675,0.4490000009536743,-2.6211352264722407
649.396552,,0.001981919216459624,649.142,0.46399998664855957,-2.588053046840404
649.862069,,0.0023179644640671563,649.608,0.4699999988079071,-2.574612474251447
650.327586,,0.0014398925522360537,650.073,0.43299999833106995,-2.654898870102537
650.7931030000001,,0.0011789375918725574,650.538,0.45100000500679016,-2.6154150914060557
651.258621,,0.001625504146007878,651.001,0.46399998664855957,-2.5868877688275664
651.7241379999999,,0.0006608102514580112,651.464,0.4490000009536743,-2.619431021115098
652.189655,,0.002664772675018267,651.931,0.45899999141693115,-2.597580434687119
652.655172,,0.0055934968217355475,652.394,0.45899999141693115,-2.597590090104571
653.12069,,0.0044159924512637925,652.865,0.4339999854564667,-2.652139315967803
653.5862070000001,,0.0006803053778759086,653.328,0.45399999618530273,-2.6087202238165466
654.051724,,0.005422955254837034,653.793,0.45100000500679016,-2.6154756670821047
654.517241,,0.006306410557476476,654.256,0.46000000834465027,-2.5961454125299936
654.982759,,0.00405819551708789,654.722,0.4410000145435333,-2.6378666741456747
655.448276,,0.0018185402795282582,655.188,0.45100000500679016,-2.616446579810977
655.9137929999999,,0.0013085927227640243,655.653,0.45100000500679016,-2.6168409671614272
656.37931,,0.0017396906677092185,656.12,0.45500001311302185,-2.6085362874113334
656.844828,,0.0016932435950108866,656.579,0.45100000500679016,-2.617663708651373
657.310345,,0.0009430429485766759,657.051,0.44699999690055847,-2.626781541544932
657.7758620000001,,0.00023602851938223508,657.509,0.45899999141693115,-2.6010191508062395
658.241379,,0.00014179556812160624,657.979,0.4699999988079071,-2.5774014701415573
658.7068969999999,,0.0007857504196652894,658.442,0.47999998927116394,-2.555917361737783
659.172414,,0.001977883618074889,658.905,0.4309999942779541,-2.6629198464400607
659.637931,,0.0029190979818774923,659.375,0.4830000102519989,-2.5498185445000705
660.103448,,0.002811715923725286,659.839,0.46299999952316284,-2.59351390926703
660.568966,,0.002085024620162104,660.301,0.4399999976158142,-2.643676050259151
661.034483,,0.0017700891489793313,660.767,0.42100000381469727,-2.685054931445748
661.5,,0.0019405020594753623,661.235,0.4569999873638153,-2.606540959221543
661.965517,,0.0014341696894113918,661.701,0.46799999475479126,-2.5824277501069077
662.4310340000001,,0.0006678793825428154,662.161,0.4729999899864197,-2.5713248006581226
662.8965519999999,,0.0034939332466758155,662.626,0.4659999907016754,-2.586310500348947
663.362069,,0.004818849487162937,663.091,0.46700000762939453,-2.583820445845467
663.827586,,0.0034134531839796513,663.557,0.4699999988079071,-2.5769365006664025
664.293103,,0.0006280001305058114,664.024,0.46299999952316284,-2.5918132892654757
664.7586210000001,,0.0008356262695233239,664.49,0.46700000762939453,-2.582710952849102
665.224138,,0.00042859353065578354,664.953,0.45100000500679016,-2.6171799363899635
665.689655,,0.0033575021063400393,665.416,0.45100000500679016,-2.616801331094024
666.155172,,0.005611923686116979,665.88,0.4650000035762787,-2.585944024146346
666.62069,,0.005652388872382695,666.35,0.45399999618530273,-2.609585789308385
667.086207,,0.0037965943717934007,666.815,0.45500001311302185,-2.6071263426734004
667.5517239999999,,0.0015968642316669366,667.279,0.45100000500679016,-2.615611360491635
668.017241,,0.0003977101105220297,667.745,0.4580000042915344,-2.6001890307271207
668.482759,,0.0003140651608090074,668.205,0.46299999952316284,-2.589186350786112
668.948276,,0.0002548022929059976,668.671,0.4259999990463257,-2.669752506245693
669.413793,,0.0009169850491671462,669.136,0.5210000276565552,-2.4628028066020193
669.87931,,0.002922736136906151,669.601,0.47699999809265137,-2.5587481440884026
670.3448279999999,,0.004163355447332567,670.068,0.46299999952316284,-2.5893936779464517
670.810345,,0.0036833156724810296,670.534,0.46799999475479126,-2.57870107709982
671.275862,,0.0023050171574528436,670.994,0.46399998664855957,-2.587666195419791
671.7413789999999,,0.0011271708149686122,671.464,0.45899999141693115,-2.598852018829126
672.206897,,0.0001982614641328656,671.927,0.45100000500679016,-2.616607106081179
672.672414,,0.0025000562765037306,672.39,0.4620000123977661,-2.5929912708364564
673.137931,,0.004847754426117472,672.858,0.45500001311302185,-2.6086036221264854
673.6034480000001,,0.004685324307485924,673.32,0.46399998664855957,-2.5893589148627245
674.068966,,0.0007047295931006301,673.786,0.4560000002384186,-2.607141294374677
