Trial: ,26
Threshold: ,0.0
Maximum EMG: ,0.0642067821796237
Success: ,True

EMG Time,Raw EMG,Filtered EMG,Force Time,Raw Force (V),Filtered Force (N)
0.0,samples,5.498223835436172e-07,0.466,0.5299999713897705,-2.4438981778318625
0.46551699999999996,time,3.7262796796392445e-07,0.931,0.5540000200271606,-2.3917018962392205
0.9310339999999999,value,1.8645285089176803e-07,1.399,0.5519999861717224,-2.3961893652237887
1.396552,,8.427258211157051e-09,1.862,0.546999990940094,-2.4072473564490187
1.862069,,2.116937163337488e-07,2.325,0.5630000233650208,-2.3725834858858064
2.327586,,4.229842284156929e-07,2.795,0.5540000200271606,-2.392409811015571
2.793103,,6.418922534010969e-07,3.259,0.527999997138977,-2.449291337581263
3.258621,,8.679665423416499e-07,3.721,0.5540000200271606,-2.3928949622080564
3.724138,,1.100710815898481e-06,4.187,0.546999990940094,-2.408398538807138
4.189654999999999,,1.3395835884124394e-06,4.65,0.5410000085830688,-2.4217203311321587
4.655172,,1.5839981454997706e-06,5.116,0.5460000038146973,-2.4110669964834672
5.12069,,1.8333226818834146e-06,5.581,0.5360000133514404,-2.4330764523120005
5.586207,,2.0868806058888575e-06,6.047,0.550000011920929,-2.4027749210769804
6.051723999999999,,2.343951016717071e-06,6.515,0.5669999718666077,-2.3659075666413365
6.517241,,2.6037693602552697e-06,6.98,0.5230000019073486,-2.461902616601425
6.982759,,2.8655282687986597e-06,7.44,0.5669999718666077,-2.3661381273817925
7.448276,,3.128378589632918e-06,7.906,0.5699999928474426,-2.3596558437018813
7.913793000000001,,3.3914306069677687e-06,8.374,0.5540000200271606,-2.3945233034791666
8.379309999999998,,3.653755461216821e-06,8.837,0.5519999861717224,-2.3988454986716037
8.844828000000001,,3.914386769087981e-06,9.299,0.5440000295639038,-2.4161966370470656
9.310345,,4.17232244738265e-06,9.769,0.5379999876022339,-2.4291505781688123
9.775862,,4.426526742801044e-06,10.233,0.5329999923706055,-2.4398895586768434
10.241379,,4.675932469415916e-06,10.695,0.5339999794960022,-2.437525192134731
10.706897,,4.9194434548086295e-06,11.161,0.5669999718666077,-2.3654173156541733
11.172414,,5.155937195160671e-06,11.628,0.5329999923706055,-2.4392576341947136
11.637931,,5.384267718861702e-06,12.094,0.5540000200271606,-2.3932579760502684
12.103447999999998,,5.603268657432998e-06,12.555,0.5400000214576721,-2.4235041101773636
12.568966000000001,,5.811756521774405e-06,13.02,0.5540000200271606,-2.3927483185801877
13.034483,,6.008534180925107e-06,13.485,0.5450000166893005,-2.4121089911347733
13.5,,6.192394539685319e-06,13.951,0.515999972820282,-2.475058055479772
13.965517,,6.362124410579541e-06,14.418,0.5669999718666077,-2.3637374371773086
14.431034,,6.516508574754109e-06,14.884,0.5419999957084656,-2.418021638664226
14.896552,,6.654334025494903e-06,15.345,0.5519999861717224,-2.3960858163765435
15.362069,,6.774394387127465e-06,15.815,0.5410000085830688,-2.419938865940569
15.827586000000002,,6.875494501124135e-06,16.277,0.5419999957084656,-2.417689032238753
16.293103,,6.956455170293755e-06,16.74,0.5669999718666077,-2.3631943165396656
16.758621,,7.016118050972015e-06,17.206,0.531000018119812,-2.4416403702553673
17.224138,,7.0533506821676114e-06,17.669,0.5370000004768372,-2.4286270671616936
17.689655,,7.067051639654228e-06,18.135,0.550000011920929,-2.4004055468150023
18.155172,,7.056155802034399e-06,18.599,0.5540000200271606,-2.391830764629236
18.62069,,7.019639714841873e-06,19.065,0.5339999794960022,-2.4355785814431754
19.086207,,6.956527037797951e-06,19.529,0.5379999876022339,-2.427069247056401
19.551724,,6.865894059398051e-06,19.994,0.5410000085830688,-2.4207633567783127
20.017241000000002,,6.746875262081454e-06,20.459,0.5299999713897705,-2.4449768900165427
20.482758999999998,,6.598668920333596e-06,20.924,0.5299999713897705,-2.4452365644227254
20.948276,,6.420542713190632e-06,21.392,0.5210000276565552,-2.465108120370969
21.413793000000002,,6.211839331764392e-06,21.854,0.5509999990463257,-2.4000087220188355
21.87931,,5.971982061586579e-06,22.325,0.5669999718666077,-2.365397646120853
22.344828,,5.700480318788343e-06,22.788,0.5170000195503235,-2.474556937863641
22.810344999999998,,5.396935118389721e-06,23.256,0.5460000038146973,-2.411577047820703
23.275862,,5.061044452277153e-06,23.718,0.5410000085830688,-2.422639095967123
23.741379,,4.69260855380079e-06,24.184,0.5260000228881836,-2.4554503588807557
24.206897,,4.291535025331265e-06,24.647,0.6069999933242798,-2.2790692571086675
24.672414,,3.857843804582134e-06,25.113,0.5260000228881836,-2.455583067302244
25.137931,,3.391671945034099e-06,25.577,0.550000011920929,-2.4032923595051368
25.603448,,2.8932781853944788e-06,26.043,0.5260000228881836,-2.455531416516681
26.068966,,2.3630472826948417e-06,26.508,0.5379999876022339,-2.429295420163458
26.534483,,1.8014940833752835e-06,26.973,0.5540000200271606,-2.3943032169529976
27.0,,1.209267306529948e-06,27.44,0.5410000085830688,-2.4224537310114886
27.465517,,5.871530133989712e-07,27.899,0.5370000004768372,-2.4309634264393263
27.931034,,6.392226280885691e-08,28.37,0.5370000004768372,-2.430731891029871
28.396552,,7.428887525869586e-07,28.832,0.5669999718666077,-2.3651205873031955
28.862069,,1.4485310769321801e-06,29.296,0.5440000295639038,-2.4149638300563074
29.327586,,2.1794862906262535e-06,29.766,0.5339999794960022,-2.436479493741839
29.793103000000002,,2.9342423669577515e-06,30.226,0.5400000214576721,-2.42313989103203
30.258620999999998,,3.711137148349327e-06,30.695,0.5400000214576721,-2.422883476731319
30.724138,,4.508357786750979e-06,31.154,0.5540000200271606,-2.392144401613595
31.189655000000002,,5.323940696944916e-06,31.621,0.5649999976158142,-2.367966093063612
31.655172000000004,,6.155772045079002e-06,32.087,0.5440000295639038,-2.4135353229126766
32.12069,,7.0015887938018695e-06,32.552,0.5490000247955322,-2.4024966452782524
32.586207,,7.858980324311967e-06,33.018,0.527999997138977,-2.448144855706272
33.051724,,8.72539065445371e-06,33.485,0.5440000295639038,-2.4132284999553164
33.517241000000006,,9.598121270695765e-06,33.95,0.5379999876022339,-2.426289962852414
33.982759,,1.0474334590408641e-05,34.411,0.5540000200271606,-2.3914684490315765
34.448276,,1.1351058069321226e-05,34.88,0.5440000295639038,-2.413338095654248
34.913793,,1.2225188967378897e-05,35.344,0.5299999713897705,-2.4439667460297545
35.37931,,1.3093499784450124e-05,35.807,0.546999990940094,-2.4070981205695388
35.844828,,1.3952644375435297e-05,36.27,0.5460000038146973,-2.409480985116338
36.310345,,1.4799164752322467e-05,36.74,0.5299999713897705,-2.4445735349093076
36.775862,,1.5629498578612063e-05,37.206,0.5419999957084656,-2.4186871507757806
37.241378999999995,,1.6439987359298928e-05,37.669,0.5389999747276306,-2.42549627359856
37.706897000000005,,1.7226885327258577e-05,38.135,0.5509999990463257,-2.3996327833393676
38.172414,,1.7986369024438835e-05,38.599,0.5389999747276306,-2.4260556834656226
38.637931,,1.8714547573712414e-05,39.065,0.5389999747276306,-2.426325327507164
39.103448,,1.940747363460531e-05,39.529,0.5540000200271606,-2.3938975773932545
39.568965999999996,,2.006115503338519e-05,39.995,0.5400000214576721,-2.424625302462452
40.034483,,2.067156705517939e-05,40.459,0.5669999718666077,-2.36599595987674
40.5,,2.1234665382899698e-05,40.924,0.6000000238418579,-2.2942546939765838
40.965517,,2.174639966478838e-05,41.385,0.5540000200271606,-2.394581497872869
41.431034,,2.220272768937362e-05,41.855,0.5540000200271606,-2.3946429493911108
41.896552,,2.259963014354148e-05,42.318,0.5419999957084656,-2.4208000590270484
42.362069000000005,,2.2933125926303834e-05,42.781,0.5379999876022339,-2.4294799229956436
42.827586000000004,,2.3199287987676606e-05,43.244,0.5540000200271606,-2.3945398315014583
43.293103,,2.3394259658890072e-05,43.714,0.5360000133514404,-2.4336292652365485
43.758621,,2.351427143694269e-05,44.18,0.5540000200271606,-2.3942464496860683
44.224138,,2.3555658183292984e-05,44.639,0.5400000214576721,-2.4245444490053694
44.689655,,2.3514876693271143e-05,45.105,0.546999990940094,-2.409060977053568
45.155172,,2.3388523589595583e-05,45.569,0.5440000295639038,-2.415340883722067
45.620689999999996,,2.3173353490211054e-05,46.035,0.5210000276565552,-2.4651788702745896
46.086206999999995,,2.2866297397536787e-05,46.5,0.5339999794960022,-2.436579246953922
46.551724,,2.2464481253138788e-05,46.965,0.5519999861717224,-2.3970876607482103
47.017241,,2.1965244598832495e-05,47.433,0.5370000004768372,-2.429500318766802
47.482759,,2.136615928229474e-05,47.898,0.5690000057220459,-2.3595327512295983
47.948276,,2.0665048142430715e-05,48.359,0.5379999876022339,-2.4268434098068066
48.413793,,1.9860003607017093e-05,48.829,0.550000011920929,-2.400502348247572
48.879310000000004,,1.8949406132540393e-05,49.292,0.5640000104904175,-2.369840008749051
49.344828,,1.7931942413685398e-05,49.754,0.5429999828338623,-2.4154708276506947
49.810345,,1.6806623287615925e-05,50.225,0.546999990940094,-2.4066797742342567
50.275862,,1.557280125604503e-05,50.688,0.5139999985694885,-2.478546357197828
50.741379,,1.423018754612788e-05,51.153,0.5490000247955322,-2.402313773246054
51.206897,,1.2778868629443791e-05,51.618,0.5360000133514404,-2.4307044400721485
51.672414,,1.121932211677828e-05,52.084,0.5400000214576721,-2.422103790647815
52.137931,,9.552431945086567e-06,52.548,0.5189999938011169,-2.4680123413079587
52.603448,,7.779502771931196e-06,53.014,0.5540000200271606,-2.3919547191740076
53.068966,,5.9022734918525055e-06,53.48,0.5460000038146973,-2.4096108443849698
53.534483,,3.9229297885656505e-06,53.939,0.5540000200271606,-2.392433009854942
54.0,,1.8441156365953356e-06,54.407,0.5540000200271606,-2.392701313121344
54.465517,,3.3105633402741786e-07,54.869,0.5360000133514404,-2.432194494695259
54.931034,,2.598995696060549e-06,55.34,0.5329999923706055,-2.4390097009021043
55.396552,,4.955626391750132e-06,55.803,0.546999990940094,-2.4087815137810935
55.862069,,7.3963802923709345e-06,56.266,0.5370000004768372,-2.4308262298936096
56.327586,,9.916192233728415e-06,56.729,0.5289999842643738,-2.4484916743254352
56.793102999999995,,1.250949660907163e-05,57.194,0.5389999747276306,-2.426912685858796
57.258621000000005,,1.5170225598833443e-05,57.664,0.515999972820282,-2.4771944008813747
57.724138,,1.7891809114210512e-05,58.13,0.550000011920929,-2.403253169164173
58.189655,,2.0667176528813208e-05,58.595,0.5690000057220459,-2.361946694586171
58.655172,,2.348876026944864e-05,59.054,0.6499999761581421,-2.1855133926198
59.120689999999996,,2.634850133354286e-05,59.525,0.5230000019073486,-2.4621862865917095
59.586207,,2.9237856796756822e-05,59.991,0.5299999713897705,-2.446871276512083
60.051724,,3.214780937000213e-05,60.455,0.5460000038146973,-2.4119031491916876
60.517241,,3.506887906031522e-05,60.914,0.5419999957084656,-2.42046569297748
60.982758999999994,,3.7991136984901886e-05,61.384,0.5540000200271606,-2.3941316304673106
61.448276,,4.0904221382119125e-05,61.847,0.550000011920929,-2.4026233289338266
61.913793,,4.379735585722125e-05,62.31,0.5460000038146973,-2.411089045149039
62.379310000000004,,4.665936989436544e-05,62.781,0.550000011920929,-2.402107178814574
62.84482800000001,,4.94787216596544e-05,63.244,0.5419999957084656,-2.4192588883421164
63.310345000000005,,5.224352311289764e-05,63.706,0.5070000290870667,-2.4952329249453724
63.775862000000004,,5.494156743830738e-05,64.172,0.550000011920929,-2.401280272125847
64.241379,,5.756035879652067e-05,64.636,0.5630000233650208,-2.3727016643815526
64.706897,,6.0087144392167835e-05,65.102,0.5540000200271606,-2.3920744044107694
65.172414,,6.250894884270419e-05,65.566,0.5210000276565552,-2.4637633503413316
65.637931,,6.481261082540182e-05,66.031,0.550000011920929,-2.4004116484618647
66.103448,,6.698482197027957e-05,66.495,0.5210000276565552,-2.463462122564634
66.56896599999999,,6.9012167957351e-05,66.961,0.5659999847412109,-2.365336695506776
67.03448300000001,,7.088117176691517e-05,67.426,0.550000011920929,-2.4001542956540893
67.5,,7.257833902172456e-05,67.892,0.5320000052452087,-2.439376000450409
67.965517,,7.409020534976549e-05,68.355,0.550000011920929,-2.400213362169492
68.431034,,7.540338568610394e-05,68.825,0.531000018119812,-2.4417061201002888
68.896552,,7.650462542181487e-05,69.288,0.5379999876022339,-2.426596647022846
69.362069,,7.738085329745396e-05,69.751,0.5419999957084656,-2.4180613153303865
69.827586,,7.801923592788218e-05,70.218,0.5529999732971191,-2.394307855608432
70.293103,,7.840723383454631e-05,70.681,0.5419999957084656,-2.4185102707969266
70.75862099999999,,7.853265885059191e-05,71.146,0.546999990940094,-2.407873048510527
71.22413800000001,,7.838373275347385e-05,71.611,0.5350000262260437,-2.4342840762367195
71.689655,,7.794914696907312e-05,72.077,0.5419999957084656,-2.419304491646399
72.15517200000001,,7.721812318076846e-05,72.544,0.5419999957084656,-2.4195708945850996
72.62069,,7.618047466648668e-05,73.009,0.5540000200271606,-2.3936807264957873
73.086207,,7.482666817651242e-05,73.473,0.5419999957084656,-2.420057818016303
73.551724,,7.314788615481872e-05,73.939,0.5519999861717224,-2.3984773648640063
74.017241,,7.113608909692975e-05,74.399,0.5230000019073486,-2.461831336863997
74.482759,,6.8784077827894e-05,74.87,0.5529999732971191,-2.396607579987451
74.94827599999999,,6.608555547487573e-05,75.333,0.5529999732971191,-2.3967012338232934
75.41379300000001,,6.303518890021334e-05,75.795,0.5350000262260437,-2.435965582700491
75.87931,,5.962866935259459e-05,76.259,0.5180000066757202,-2.4730062497310383
76.344828,,5.5862772086307934e-05,76.729,0.5540000200271606,-2.3945335594527015
76.810345,,5.1735414691397315e-05,77.195,0.5389999747276306,-2.4271277986784026
77.275862,,4.7245713871023424e-05,77.657,0.5410000085830688,-2.422642982503592
77.741379,,4.239404039646723e-05,78.123,0.546999990940094,-2.409405771274656
78.206897,,3.7182071965050934e-05,78.589,0.5370000004768372,-2.4309938545622387
78.67241399999999,,3.161284368184524e-05,79.055,0.5460000038146973,-2.4111605907996623
79.137931,,2.569079588243016e-05,79.515,0.5389999747276306,-2.4261654408601263
79.603448,,1.9421819011224843e-05,79.98,0.5379999876022339,-2.4280853561331797
80.068966,,1.2813295268048363e-05,80.448,0.5260000228881836,-2.4539654560357897
80.53448300000001,,5.874136734661713e-06,80.913,0.5320000052452087,-2.440633193264061
81.0,,1.3851803068831583e-06,81.374,0.527999997138977,-2.449098311514485
81.465517,,8.952585151157555e-06,81.844,0.5400000214576721,-2.42272295807691
81.931034,,1.6814386826430356e-05,82.307,0.5370000004768372,-2.429051813527771
82.396552,,2.495525291351853e-05,82.77,0.5540000200271606,-2.3918375050503076
82.86206899999999,,3.335819330360561e-05,83.24,0.5630000233650208,-2.372086675409784
83.327586,,4.2004549166618375e-05,83.703,0.550000011920929,-2.400304107497398
83.79310299999999,,5.0873987394942704e-05,84.168,0.5360000133514404,-2.4307417203450785
84.258621,,5.9944500779214145e-05,84.633,0.5460000038146973,-2.4089357540541454
84.72413800000001,,6.919241416361422e-05,85.099,0.5379999876022339,-2.426390062908127
85.189655,,7.85923968175164e-05,85.559,0.546999990940094,-2.4068510679020636
85.65517200000001,,8.811748124844062e-05,86.024,0.5379999876022339,-2.426569512572675
86.12069,,9.773908866807724e-05,86.489,0.5929999947547913,-2.30689203071978
86.586207,,0.00010742706130862147,86.955,0.5929999947547913,-2.3070717347475944
87.051724,,0.00011714970177081259,87.421,0.5370000004768372,-2.429282133257903
87.517241,,0.00012687381956789755,87.887,0.5410000085830688,-2.420796119654392
87.98275899999999,,0.0001365647850112401,88.355,0.5360000133514404,-2.431935030790431
88.448276,,0.00014618659056348302,88.817,0.5379999876022339,-2.42783362658382
88.913793,,0.00015570191976405648,89.281,0.5360000133514404,-2.4324496073193558
89.37931,,0.00016507222380943062,89.744,0.5460000038146973,-2.4109171785895804
89.844828,,0.00017425780584685597,90.209,0.5419999957084656,-2.4198735273095413
90.310345,,0.00018321791301545662,90.681,0.5630000233650208,-2.3743437993951164
90.775862,,0.00019191083624247015,91.139,0.5659999847412109,-2.3680028917168756
91.241379,,0.00020029401777520747,91.61,0.5540000200271606,-2.3943085803544975
91.706897,,0.00020832416640098532,92.069,0.5360000133514404,-2.4336492803292753
92.17241399999999,,0.00021595738027791248,92.537,0.531000018119812,-2.444627868730908
92.63793100000001,,0.00022314927726905414,93.002,0.546999990940094,-2.4098129191427793
93.103448,,0.00022985513264121572,93.467,0.5440000295639038,-2.416348360587795
93.568966,,0.00023603002395745579,93.932,0.5400000214576721,-2.42501850193262
94.03448300000001,,0.00024162898295953278,94.395,0.5680000185966492,-2.363928607701379
94.5,,0.00024660715420289506,94.865,0.5460000038146973,-2.411729763396806
94.965517,,0.00025091996017263124,95.325,0.5540000200271606,-2.394133677521177
95.431034,,0.0002545232725740998,95.795,0.5699999928474426,-2.359075314964753
95.896552,,0.0002573735894568635,96.259,0.5419999957084656,-2.419849752508151
96.36206899999999,,0.00025942821779516355,96.721,0.527999997138977,-2.450102956301173
96.827586,,0.00026064546111260204,97.187,0.5699999928474426,-2.3583390730944624
97.293103,,0.0002609848117030748,97.65,0.5299999713897705,-2.445218684615559
97.758621,,0.0002604071469644321,98.116,0.5180000066757202,-2.4710988624117802
98.224138,,0.00025887492932597997,98.581,0.5669999718666077,-2.3640923698790064
98.689655,,0.00025635240921589603,99.047,0.546999990940094,-2.4074294182348694
99.155172,,0.0002528058304800657,99.514,0.5490000247955322,-2.4028596614933604
99.62069,,0.0002482036376298869,99.98,0.5329999923706055,-2.437536054792965
100.086207,,0.0002425166842633948,100.444,0.5519999861717224,-2.395995544886167
100.551724,,0.00023571844197177208,100.91,0.5540000200271606,-2.3915317382622647
101.017241,,0.00022778520901208993,101.373,0.5540000200271606,-2.3914678230786057
101.482759,,0.00021869631799712762,101.836,0.5659999847412109,-2.3653044480051997
101.948276,,0.00020843434182450397,102.299,0.5009999871253967,-2.5069427515960068
102.413793,,0.00019698529704028337,102.769,0.531000018119812,-2.4416561569537567
102.87931,,0.00018433884380685624,103.233,0.5419999957084656,-2.4178087659202014
103.344828,,0.0001704884816214032,103.695,0.5540000200271606,-2.3918228541360684
103.810345,,0.00015543173990979634,104.161,0.5379999876022339,-2.4268746086027813
104.275862,,0.0001391703626015358,104.628,0.5410000085830688,-2.4205620459980706
104.741379,,0.00012171048577442963,105.094,0.5099999904632568,-2.4883481003768457
105.206897,,0.00010306280744335836,105.559,0.5289999842643738,-2.447219671376608
105.672414,,8.324274855578722e-05,106.024,0.5239999890327454,-2.4583889732186814
106.13793100000001,,6.227060424785028e-05,106.488,0.531000018119812,-2.4434161465953763
106.603448,,4.0171684408992064e-05,106.954,0.5669999718666077,-2.3652552668794766
107.068966,,1.697644260045695e-05,107.422,0.5540000200271606,-2.3938312990809822
107.534483,,7.279407626485312e-06,107.88,0.5460000038146973,-2.411489924471587
108.0,,3.2554789962662335e-05,108.344,0.5419999957084656,-2.4204034153871943
108.46551699999999,,5.880317706596332e-05,108.814,0.546999990940094,-2.4096728067020377
108.931034,,8.597251771035773e-05,109.277,0.6299999952316284,-2.2289647589825785
109.396552,,0.00011400518027509412,109.739,0.5540000200271606,-2.394613786551555
109.862069,,0.00014283791347120066,110.205,0.546999990940094,-2.409887408639747
110.32758600000001,,0.00017240182517938834,110.675,0.5540000200271606,-2.3946120987466166
110.793103,,0.00020262238024633018,111.141,0.5379999876022339,-2.429399181539716
111.258621,,0.00023341941805497617,111.602,0.5440000295639038,-2.416211745156581
111.724138,,0.0002647071906489995,112.068,0.5540000200271606,-2.3942691630492257
112.189655,,0.0002963944221515965,112.532,0.5540000200271606,-2.394076610093881
112.655172,,0.00032838439017464035,112.998,0.5370000004768372,-2.4308905947518586
113.12069,,0.0003605750298655893,113.463,0.5299999713897705,-2.445894986161871
113.586207,,0.00039285906118655963,113.929,0.5690000057220459,-2.360665400753227
114.051724,,0.0004251241399626019,114.392,0.5540000200271606,-2.3930736316326793
114.51724100000001,,0.0004572530331744738,114.855,0.5669999718666077,-2.3644781263875414
114.982759,,0.0004891238189051235,115.325,0.5400000214576721,-2.4230350462916976
115.448276,,0.000520610111278734,115.788,0.5669999718666077,-2.36395992247608
115.913793,,0.0005515813106566072,116.251,0.550000011920929,-2.4007672095798824
116.37931,,0.0005819028792754781,116.714,0.550000011920929,-2.400566495016723
116.84482799999999,,0.0006114366424311487,117.179,0.5440000295639038,-2.4134729353326723
117.310345,,0.0006400411152237345,117.646,0.531000018119812,-2.441670611336126
117.77586199999999,,0.0006675718547904506,118.112,0.5669999718666077,-2.3631587388679307
118.241379,,0.0006938818378579516,118.577,0.5659999847412109,-2.365302172357458
118.70689700000001,,0.0007188218633489791,119.042,0.5289999842643738,-2.445923453788294
119.172414,,0.0007422409796776464,119.507,0.5389999747276306,-2.4241955174650327
119.63793100000001,,0.0007639869362642209,119.973,0.5230000019073486,-2.459158471467148
120.103448,,0.0007839066586940107,120.44,0.5540000200271606,-2.3917676489707125
120.568966,,0.0008018467468363921,120.899,0.5540000200271606,-2.391952353872569
121.034483,,0.0008176539951295859,121.37,0.5329999923706055,-2.4379203247778163
121.5,,0.0008311759341245345,121.832,0.5410000085830688,-2.4207330511058602
121.96551699999999,,0.0008422613922669098,122.3,0.5419999957084656,-2.4188148466565855
122.431034,,0.0008507610767803835,122.762,0.5339999794960022,-2.436515073565739
122.896552,,0.0008565281723984636,123.23,0.5299999713897705,-2.445503465485358
123.362069,,0.0008594189565775969,123.692,0.5329999923706055,-2.439236026550043
123.827586,,0.0008592934297092475,124.157,0.5659999847412109,-2.3675951965184163
124.293103,,0.0008560159587305323,124.621,0.5329999923706055,-2.439722862332613
124.758621,,0.0008494559324138437,125.087,0.5699999928474426,-2.3593157287626125
125.22413800000001,,0.0008394884265039954,125.552,0.5419999957084656,-2.4204851201297926
125.68965500000002,,0.0008259948767701692,126.017,0.5669999718666077,-2.3661454273985116
126.15517200000001,,0.0008088637579359728,126.485,0.5630000233650208,-2.3749416417768967
126.62069000000001,,0.0007879912663278468,126.95,0.5460000038146973,-2.4120133958611127
127.086207,,0.0007632820039553333,127.418,0.5389999747276306,-2.427251617395217
127.55172400000001,,0.0007346496616535886,127.877,0.546999990940094,-2.4097639463264606
128.017241,,0.0007020176988861005,128.344,0.5429999828338623,-2.4183759188106615
128.48275900000002,,0.0006653200177336265,128.806,0.5540000200271606,-2.3942669096559936
128.948276,,0.0006245016283985067,129.27,0.5419999957084656,-2.420230193582933
129.413793,,0.0005795193033505154,129.739,0.5509999990463257,-2.400410656463827
129.87931,,0.000530342217302812,130.205,0.5529999732971191,-2.3958169363023494
130.344828,,0.00047695257050810023,130.668,0.5040000081062317,-2.5023172837672667
130.81034499999998,,0.00041934619282776365,131.134,0.5419999957084656,-2.4192670913874865
131.275862,,0.00035753312524476133,131.599,0.5370000004768372,-2.4298980455115946
131.741379,,0.0002915381748306655,132.065,0.5460000038146973,-2.4100342816053706
132.206897,,0.00022140144016500175,132.525,0.5460000038146973,-2.4097920520134672
132.67241399999997,,0.00014717880627894336,132.991,0.5440000295639038,-2.4139277354065314
133.13793099999998,,6.894240776920831e-05,133.456,0.5669999718666077,-2.363624161977142
133.60344800000001,,1.3218945901879431e-05,133.922,0.5289999842643738,-2.4462503875693207
134.06896600000002,,9.919939172137257e-05,134.385,0.5379999876022339,-2.4265179895308098
134.53448300000002,,0.00018887568255789654,134.855,0.5270000100135803,-2.450400534362642
135.0,,0.00028210689454446087,135.318,0.5329999923706055,-2.437290523259709
135.465517,,0.00037873416786360885,135.78,0.5440000295639038,-2.4133322238758845
135.931034,,0.00047858050475015773,136.248,0.5540000200271606,-2.391596589371102
136.396552,,0.0005814506594564739,136.71,0.5419999957084656,-2.4178330773057426
136.862069,,0.0006871311051464033,137.176,0.550000011920929,-2.4005354423446046
137.327586,,0.0007953900002942314,137.639,0.5669999718666077,-2.3636645487353385
137.793103,,0.0009059771295141028,138.105,0.5419999957084656,-2.4183258554565503
138.258621,,0.0010186239635171944,138.569,0.5299999713897705,-2.444688861661273
138.724138,,0.0011330440103656891,139.035,0.5210000276565552,-2.4645343074362946
139.189655,,0.0012489333026664002,139.5,0.5540000200271606,-2.3928880303022564
139.655172,,0.0013659705472111848,139.966,0.5519999861717224,-2.3974974801974276
140.12069,,0.0014838168828550133,140.433,0.5339999794960022,-2.4369605176438807
140.586207,,0.0016021161805918381,140.898,0.5019999742507935,-2.50691390822969
141.05172399999998,,0.0017204967453940696,141.36,0.5649999976158142,-2.3698782032151207
141.51724099999998,,0.0018385731875814914,141.83,0.5419999957084656,-2.4201812350823175
141.982759,,0.0019559457152836853,142.292,0.5329999923706055,-2.439952181050298
142.44827600000002,,0.002072197190764927,142.755,0.5440000295639038,-2.41611486681701
142.913793,,0.0021868938762536474,143.222,0.5239999890327454,-2.4597770993774573
143.37931,,0.0022995938913418705,143.684,0.5659999847412109,-2.3683214692362076
143.844828,,0.0024098544050452394,144.15,0.5339999794960022,-2.438042456567247
144.310345,,0.0025172221299510204,144.614,0.5730000138282776,-2.353035526817171
144.77586200000002,,0.0026212132646542667,145.079,0.5440000295639038,-2.416134069509109
145.241379,,0.002721319517499595,145.544,0.5669999718666077,-2.3659028570752803
145.706897,,0.002817056791408055,146.01,0.5540000200271606,-2.394066413938541
146.172414,,0.002907994423835129,146.481,0.5460000038146973,-2.4113056579425662
146.637931,,0.002993681342721148,146.939,0.5419999957084656,-2.4198055928217617
147.103448,,0.003073530119287031,147.407,0.5419999957084656,-2.41957313003852
147.568966,,0.0031468795370876517,147.87,0.5379999876022339,-2.4280447552978734
148.034483,,0.003213286262554625,148.34,0.550000011920929,-2.4016546962724643
148.5,,0.003272632309574183,148.803,0.5180000066757202,-2.4711296902020026
148.965517,,0.0033246145804339323,149.271,0.49799999594688416,-2.514473905440918
149.43103399999998,,0.0033681203638630825,149.733,0.5659999847412109,-2.366116812618559
149.89655199999999,,0.003401782550856329,150.199,0.5419999957084656,-2.4182195691301627
150.362069,,0.003425710467966429,150.662,0.5299999713897705,-2.444207929845611
150.82758600000003,,0.003441732743841554,151.127,0.5540000200271606,-2.391798922789971
151.293103,,0.0034500359108560006,151.592,0.5519999861717224,-2.3960718514986272
151.758621,,0.0034459875772091227,152.058,0.5519999861717224,-2.3960261527406126
152.224138,,0.0034245181090694333,152.525,0.5519999861717224,-2.3960203384749783
152.68965500000002,,0.0033901521165115725,152.984,0.5389999747276306,-2.4243770523551382
153.155172,,0.0033560044866846337,153.451,0.5830000042915344,-2.3285891625935418
153.62069,,0.003322356068752508,153.917,0.5460000038146973,-2.4093073675416643
154.086207,,0.003261631852186333,154.385,0.546999990940094,-2.4072695785206712
154.551724,,0.0031504756259564813,154.847,0.5989999771118164,-2.2941487625349173
155.017241,,0.0030262277310961383,155.314,0.5249999761581421,-2.455560203649816
155.482759,,0.0029660265523496587,155.776,0.5440000295639038,-2.414375453576137
155.948276,,0.0029540090167180463,156.244,0.5429999828338623,-2.41677678053712
156.413793,,0.002818354621019543,156.706,0.5419999957084656,-2.419184055584926
156.87931,,0.0024541386188298544,157.172,0.5910000205039978,-2.3126573966074093
157.34482799999998,,0.002130540423824338,157.636,0.5540000200271606,-2.3934854733749327
157.81034499999998,,0.0022775829489761466,158.102,0.5239999890327454,-2.4590486908940967
158.275862,,0.002684168978859738,158.567,0.527999997138977,-2.450519300752268
158.741379,,0.002297247229715554,159.032,0.5630000233650208,-2.3744277621817353
159.20689700000003,,0.000714449880035376,159.499,0.5630000233650208,-2.3745590243237675
159.672414,,0.00019962989458110786,159.965,0.5460000038146973,-2.411693323437281
160.137931,,0.0019129161426913268,160.43,0.5450000166893005,-2.413933062439134
160.60344800000001,,0.0050191791725633,160.896,0.527999997138977,-2.4509941684273384
161.06896600000002,,0.001679656914163189,161.358,0.5210000276565552,-2.4662317572445995
161.534483,,0.013271717017010536,161.821,0.5529999732971191,-2.3964656893537257
162.0,,0.03448184929433997,162.285,0.5460000038146973,-2.4116307245056317
162.465517,,0.049886069086661565,162.754,0.5210000276565552,-2.4659780045692328
162.931034,,0.053426950562395936,163.222,0.5830000042915344,-2.330752747794165
163.396552,,0.050035353377859165,163.684,0.5389999747276306,-2.4264373922349347
163.862069,,0.04734789626472115,164.15,0.550000011920929,-2.402274580627365
164.327586,,0.0466954727496571,164.614,0.5419999957084656,-2.419490865164361
164.793103,,0.043993586543201124,165.08,0.531000018119812,-2.443234084552582
165.258621,,0.03636747993309636,165.544,0.515999972820282,-2.4756903347774424
165.72413799999998,,0.025193077140006966,166.009,0.5540000200271606,-2.3926827061774087
166.189655,,0.013533102549991734,166.474,0.5210000276565552,-2.4643696889893865
166.655172,,0.002797296209763351,166.939,0.5400000214576721,-2.4227834433743918
167.12069,,0.007447400732254919,167.399,0.5540000200271606,-2.39211199536868
167.58620699999997,,0.017497149889367326,167.869,0.5419999957084656,-2.418111180888867
168.051724,,0.026525268707102177,168.329,0.546999990940094,-2.407103163992568
168.517241,,0.03357385422124009,168.799,0.5529999732971191,-2.393949575686145
168.98275900000002,,0.03890048289070484,169.259,0.5379999876022339,-2.4265828915093124
169.44827600000002,,0.04413632476337459,169.729,0.5419999957084656,-2.41785894179252
169.913793,,0.05118521614874425,170.194,0.5379999876022339,-2.426601781706655
170.37931,,0.060695949409499905,170.657,0.5789999961853027,-2.337341471988157
170.844828,,0.07122043872980689,171.123,0.5410000085830688,-2.420228027969726
171.310345,,0.07976007647720626,171.588,0.5299999713897705,-2.4443229215381677
171.775862,,0.08321345654905084,172.054,0.5400000214576721,-2.4226951085973787
172.241379,,0.07951741770311607,172.515,0.527999997138977,-2.449022490176176
172.706897,,0.0678586577933752,172.98,0.5460000038146973,-2.410009845048481
173.172414,,0.04837183058711895,173.448,0.5299999713897705,-2.4450849868497557
173.637931,,0.022198894957891138,173.913,0.5320000052452087,-2.440951993848489
174.103448,,0.00782189220960422,174.381,0.5400000214576721,-2.4237485042060687
174.568966,,0.03693232192458164,174.843,0.5400000214576721,-2.423968781171588
175.034483,,0.06003016401711674,175.304,0.5429999828338623,-2.417641168114764
175.5,,0.07431432766694827,175.773,0.5400000214576721,-2.4243671648183653
175.96551699999998,,0.08039555053678432,176.236,0.5460000038146973,-2.4114617339749143
176.43103399999998,,0.08061943048879783,176.699,0.546999990940094,-2.4094207769058174
176.896552,,0.0765625377286534,177.165,0.5659999847412109,-2.3681308034950996
177.36206900000002,,0.06864051860604028,177.629,0.5170000195503235,-2.474952677746033
177.827586,,0.05800901540184847,178.094,0.5630000233650208,-2.3747653114214784
178.293103,,0.047657827390915085,178.562,0.5540000200271606,-2.3943644401296704
178.758621,,0.04040771663557496,179.028,0.5410000085830688,-2.4226388506253853
179.224138,,0.03601369906949589,179.493,0.550000011920929,-2.402945427263944
179.68965500000002,,0.03144884147425059,179.959,0.5350000262260437,-2.435504647638343
180.155172,,0.024372875435300555,180.426,0.5419999957084656,-2.4201024563610485
180.62069,,0.015444148211577548,180.884,0.5249999761581421,-2.4569612556719185
181.086207,,0.006898274177309189,181.351,0.5519999861717224,-2.3979379336175692
181.551724,,0.00019724046408476587,181.814,0.531000018119812,-2.4434736250159657
182.01724099999998,,0.006597628408509816,182.281,0.5210000276565552,-2.4650347416895193
182.482759,,0.013395356821082978,182.751,0.5299999713897705,-2.4451991997525657
182.948276,,0.020620532565853885,183.209,0.5460000038146973,-2.4101164716529766
183.413793,,0.027117960400141965,183.68,0.574999988079071,-2.346720012888045
183.87931,,0.0312832515629301,184.146,0.5659999847412109,-2.36612574210078
184.34482799999998,,0.03207355200476756,184.61,0.5540000200271606,-2.392086742377258
184.81034499999998,,0.029894249678932526,185.069,0.5540000200271606,-2.391929420656162
185.27586200000002,,0.026590626474342263,185.54,0.5540000200271606,-2.391802413268671
185.74137900000002,,0.024085491902970498,186.005,0.5429999828338623,-2.41567502213348
186.206897,,0.022778389896132834,186.471,0.5289999842643738,-2.446121478413589
186.672414,,0.021561222905639974,186.929,0.5509999990463257,-2.398176664812836
187.137931,,0.019564287703734647,187.399,0.5540000200271606,-2.3916663523097887
187.60344800000001,,0.017453379435408187,187.862,0.550000011920929,-2.400445884332638
188.06896600000002,,0.016478858524739258,188.325,0.5370000004768372,-2.4288712195503335
188.534483,,0.016495740320277397,188.789,0.5429999828338623,-2.415937907187135
189.0,,0.015880328825789006,189.259,0.550000011920929,-2.4008576169080205
189.465517,,0.013786431258133666,189.721,0.5,-2.509988010567162
189.931034,,0.011605841985433466,190.186,0.5540000200271606,-2.392561526066128
190.39655199999999,,0.011351302683896529,190.65,0.5419999957084656,-2.418941493540807
190.862069,,0.013133293351599677,191.115,0.5339999794960022,-2.4366150813725356
191.327586,,0.01516011099157273,191.581,0.5540000200271606,-2.3932876023892575
191.793103,,0.01585808598565422,192.047,0.5289999842643738,-2.447993372798662
192.25862099999998,,0.015006859422658286,192.511,0.5669999718666077,-2.3654308030508346
192.72413799999998,,0.013009206641753677,192.976,0.5299999713897705,-2.4462464975507143
193.189655,,0.010178050337021237,193.441,0.550000011920929,-2.4028528062941716
193.655172,,0.00702942553504471,193.907,0.460999995470047,-2.596901869994908
194.12069000000002,,0.004472076354639405,194.37,0.5400000214576721,-2.4249044596449636
194.586207,,0.003105740563679265,194.84,0.5830000042915344,-2.331299329061424
195.051724,,0.0025720989753662956,195.303,0.5360000133514404,-2.4337285055393165
195.517241,,0.0020574505707556855,195.766,0.5920000076293945,-2.3117113375766323
195.98275900000002,,0.0013980832722481206,196.234,0.5720000267028809,-2.3552251620945763
196.448276,,0.0012755930212287405,196.696,0.5450000166893005,-2.4139450066330634
196.913793,,0.002219086050468527,197.163,0.5440000295639038,-2.415979638622126
197.37931,,0.0038092420277376932,197.629,0.5509999990463257,-2.400549444610862
197.844828,,0.005176517862183594,198.094,0.5410000085830688,-2.4221256580714026
198.310345,,0.006146423471483237,198.558,0.5450000166893005,-2.413176596816943
198.775862,,0.007527122997267185,199.024,0.550000011920929,-2.402031609983531
199.241379,,0.01000440778378551,199.49,0.5669999718666077,-2.3647325194869273
199.706897,,0.01297882779490599,199.949,0.5419999957084656,-2.4189337652129947
200.172414,,0.015119229265947384,200.418,0.550000011920929,-2.401245280764654
200.63793099999998,,0.016062665035475994,200.883,0.5299999713897705,-2.4445731980715877
201.103448,,0.016658957067937255,201.344,0.5460000038146973,-2.409491466288691
201.568966,,0.017134352400986312,201.815,0.5460000038146973,-2.409296693568758
202.034483,,0.0157467525124552,202.277,0.527999997138977,-2.4483521630585416
202.5,,0.009798292919118,202.739,0.5139999985694885,-2.478733469341281
202.965517,,0.002278085669047013,203.205,0.5699999928474426,-2.3566533502356974
203.431034,,0.019694449323476866,203.675,0.5419999957084656,-2.4176248473018775
203.896552,,0.03921364138071117,204.134,0.5329999923706055,-2.437248349157616
204.36206900000002,,0.05601029772222198,204.599,0.5630000233650208,-2.3719507565715445
204.827586,,0.06588007544193918,205.065,0.5400000214576721,-2.4221657017485536
205.293103,,0.06791852614178374,205.533,0.5360000133514404,-2.431027713723738
205.758621,,0.06486570705239066,205.998,0.546999990940094,-2.407247484813954
206.224138,,0.06002744386748615,206.463,0.5230000019073486,-2.459752036871501
206.689655,,0.0541205946299761,206.929,0.5339999794960022,-2.4360301057618026
207.155172,,0.04588063083849975,207.392,0.5410000085830688,-2.421041447709286
207.62069,,0.03519616677787341,207.854,0.5540000200271606,-2.3929911120481555
208.086207,,0.02424594384839181,208.322,0.5519999861717224,-2.397621981393046
208.551724,,0.015416712428601154,208.784,0.5490000247955322,-2.4044243153215743
209.01724099999998,,0.00925792868139194,209.255,0.546999990940094,-2.4090332433929404
209.482759,,0.0049212407112632145,209.717,0.5299999713897705,-2.4462997788740584
209.948276,,0.0016183802679595716,210.183,0.5540000200271606,-2.394212683078189
210.413793,,0.001246891529752195,210.647,0.5389999747276306,-2.4270578062207746
210.87930999999998,,0.004715687238525691,211.113,0.5680000185966492,-2.364001340429865
211.344828,,0.009515043282780442,211.579,0.5540000200271606,-2.3945816553675736
211.810345,,0.014416246840912255,212.045,0.5230000019073486,-2.4621519062782555
212.27586200000002,,0.016813470721528733,212.51,0.5720000267028809,-2.3553824393462306
212.741379,,0.015840926229916428,212.969,0.5540000200271606,-2.3945343280154
213.206897,,0.013857847098879442,213.434,0.5540000200271606,-2.3944239275579147
213.672414,,0.01373914984948175,213.9,0.5540000200271606,-2.394270579770179
214.137931,,0.015398459027747915,214.37,0.5419999957084656,-2.4202229777384776
214.60344800000001,,0.016137054362399105,214.832,0.5389999747276306,-2.426535723171449
215.068966,,0.014128784133493614,215.3,0.5540000200271606,-2.393607645478028
215.534483,,0.010534775629269124,215.763,0.5339999794960022,-2.436914862554781
216.0,,0.00807414027852603,216.225,0.550000011920929,-2.4017811427213185
216.465517,,0.008217104236752518,216.695,0.546999990940094,-2.4080406255891393
216.93103399999998,,0.010075328348299691,217.161,0.5320000052452087,-2.4404510311136445
217.39655199999999,,0.011622701999326902,217.625,0.5210000276565552,-2.464162997776453
217.862069,,0.011640606155028033,218.091,0.5440000295639038,-2.413825004303781
218.327586,,0.010581414260591553,218.555,0.5419999957084656,-2.417983646184106
218.793103,,0.009726394884462749,219.02,0.5540000200271606,-2.3916767648303936
219.25862099999998,,0.009594428964826922,219.486,0.5429999828338623,-2.415519311784803
219.724138,,0.009397352683351642,219.944,0.5540000200271606,-2.391475427701862
220.18965500000002,,0.00821860441716494,220.418,0.5460000038146973,-2.4088723133548693
220.65517200000002,,0.006435007265453368,220.877,0.5690000057220459,-2.358777996307419
221.12069,,0.00547575581195273,221.34,0.5270000100135803,-2.450342505194344
221.586207,,0.0060908326816714025,221.81,0.515999972820282,-2.474415162770201
222.051724,,0.00730154803358631,222.274,0.5339999794960022,-2.435350739209624
222.517241,,0.007424400356901315,222.736,0.5339999794960022,-2.4355408236893226
222.98275900000002,,0.005906775226308621,223.202,0.5669999718666077,-2.3638675846136854
223.448276,,0.0038343743101864796,223.665,0.5419999957084656,-2.4185805119127206
223.913793,,0.00283752241792231,224.131,0.5370000004768372,-2.4297380259891166
224.37931,,0.0036846419081682062,224.596,0.5410000085830688,-2.421297820083177
224.844828,,0.005555274680280105,225.062,0.527999997138977,-2.449896720054383
225.31034499999998,,0.006488451992398817,225.526,0.550000011920929,-2.402236500744871
225.775862,,0.005067784465301717,225.992,0.5329999923706055,-2.4395288899075287
226.241379,,0.002015174342154018,226.459,0.5339999794960022,-2.4375832521074545
226.706897,,0.00024593368133570714,226.924,0.5669999718666077,-2.3658910851594097
227.172414,,4.863073053416226e-05,227.385,0.5529999732971191,-2.3965585017818185
227.63793099999998,,0.002152229837044619,227.854,0.5419999957084656,-2.4206480933693735
228.103448,,0.0034703956853885426,228.315,0.5440000295639038,-2.41637028283709
228.56896600000002,,0.0023162794070798005,228.784,0.5540000200271606,-2.3946160071173277
229.03448300000002,,0.00025524716168452103,229.244,0.5419999957084656,-2.4207435623480382
229.5,,0.0014002073501401377,229.714,0.5540000200271606,-2.3945355293516215
229.965517,,0.008683400932046847,230.18,0.5389999747276306,-2.427105337816831
230.431034,,0.020670814144265776,230.639,0.550000011920929,-2.4029877746735724
230.896552,,0.03251933918910814,231.104,0.5410000085830688,-2.42240568718043
231.362069,,0.0403285731839088,231.569,0.5669999718666077,-2.365538808412551
231.827586,,0.0442876442338584,232.035,0.5379999876022339,-2.4284719107362114
232.293103,,0.04720446977919163,232.5,0.5519999861717224,-2.397705431858199
232.758621,,0.0499755679615135,232.966,0.5460000038146973,-2.4105024357631577
233.224138,,0.04896097645161192,233.433,0.5350000262260437,-2.4341917724552773
233.689655,,0.03840731510577784,233.898,0.5419999957084656,-2.418673429322974
234.155172,,0.015854881911739113,234.36,0.5350000262260437,-2.4336721441850298
234.62069,,0.01472722153759023,234.824,0.5450000166893005,-2.4116575728148972
235.086207,,0.045169760456606374,235.292,0.5440000295639038,-2.413638407022978
235.55172399999998,,0.0684442355983194,235.754,0.5540000200271606,-2.3916900607312233
236.01724099999998,,0.08209057934565965,236.226,0.5490000247955322,-2.4024619130895206
236.482759,,0.08744366942556658,236.688,0.5429999828338623,-2.4154567360481947
236.94827600000002,,0.08682060392529499,237.153,0.5669999718666077,-2.3631383819817002
237.413793,,0.08174163586966283,237.618,0.5419999957084656,-2.4176206970211434
237.87931,,0.07298003362384713,238.084,0.5370000004768372,-2.4285770580723267
238.344828,,0.061364596743022845,238.544,0.5419999957084656,-2.4177925536850733
238.810345,,0.04809148728996039,239.009,0.5540000200271606,-2.391799392262251
239.27586200000002,,0.0343042285815201,239.474,0.5699999928474426,-2.3571282458391503
239.741379,,0.020809482623913182,239.939,0.5419999957084656,-2.4183481079619216
240.206897,,0.008339930992934346,240.407,0.5389999747276306,-2.42512651602808
240.672414,,0.0025341505955544835,240.87,0.5379999876022339,-2.427565604437926
241.137931,,0.01198997845433269,241.34,0.5529999732971191,-2.3951563459342657
241.603448,,0.02052841808496436,241.802,0.5540000200271606,-2.393249271834312
242.068966,,0.027508086761178514,242.266,0.574999988079071,-2.3477616821231364
242.534483,,0.031175937778424544,242.729,0.5649999976158142,-2.36979585341972
243.0,,0.030915706456123834,243.195,0.5170000195503235,-2.47459585411075
243.465517,,0.028560575604034473,243.664,0.5239999890327454,-2.459542585642705
243.93103399999998,,0.026633828419758726,244.13,0.5640000104904175,-2.3725600813622387
244.39655199999999,,0.025860901373478896,244.589,0.5389999747276306,-2.4271501175999406
244.862069,,0.0249700772245003,245.054,0.5419999957084656,-2.420694465345026
245.327586,,0.022424184768062426,245.522,0.5370000004768372,-2.4316226746864276
245.793103,,0.017936932957826283,245.988,0.5690000057220459,-2.361893947901366
246.258621,,0.012699635511676256,246.452,0.546999990940094,-2.409765051979285
246.724138,,0.008422509479569263,246.918,0.5339999794960022,-2.437983275906711
247.18965500000002,,0.005969554518495829,247.38,0.5379999876022339,-2.4291233490768906
247.655172,,0.004942479676434658,247.85,0.5329999923706055,-2.4398347441827877
248.12069,,0.004694757721741959,248.311,0.5299999713897705,-2.446157968493786
248.586207,,0.005218577507793252,248.781,0.5540000200271606,-2.3936326770114067
249.051724,,0.006466841090034333,249.244,0.5630000233650208,-2.373768447855512
249.517241,,0.007330869756773864,249.706,0.515999972820282,-2.4758976606160257
249.982759,,0.006303678487072316,250.172,0.5339999794960022,-2.4364127624925653
250.44827600000002,,0.003241670609947088,250.636,0.5360000133514404,-2.4317926065198883
250.913793,,0.00014478136989384504,251.102,0.5329999923706055,-2.4380796912918026
251.37931000000003,,0.0017408275794212195,251.567,0.5099999904632568,-2.487961487341507
251.844828,,0.0008057998158248831,252.033,0.5649999976158142,-2.367936993207466
252.31034499999998,,0.0015306168015495744,252.499,0.5460000038146973,-2.409165494144969
252.77586200000002,,0.003275680218186714,252.965,0.5440000295639038,-2.4133944717534117
253.241379,,0.0031831483611312636,253.424,0.5979999899864197,-2.2956600124344777
253.706897,,0.0016484609893661101,253.889,0.5370000004768372,-2.428512681504153
254.172414,,0.00013388569257414697,254.359,0.5419999957084656,-2.41761972828122
254.63793099999998,,0.0002673685030880987,254.821,0.5080000162124634,-2.4917409536083
255.10344800000001,,0.00032390504322148665,255.289,0.6060000061988831,-2.2783255259024613
255.56896600000002,,0.0010502980516399014,255.751,0.5630000233650208,-2.372139720331284
256.03448299999997,,0.0013274587637785921,256.218,0.5379999876022339,-2.426774971159437
256.5,,0.001147180265946741,256.68,0.5289999842643738,-2.4465854980185013
256.965517,,0.0006430122933979339,257.146,0.5540000200271606,-2.3923501189992344
257.431034,,0.00010928025016980358,257.611,0.531000018119812,-2.44271120963271
257.896552,,0.0008274214890942347,258.077,0.5370000004768372,-2.4299056535191195
258.362069,,0.0010559523210216558,258.544,0.5690000057220459,-2.360461099115474
258.827586,,0.0007014888257999321,259.01,0.5329999923706055,-2.439161994138229
259.29310300000003,,0.00030553584254676376,259.473,0.546999990940094,-2.4089201715967663
259.758621,,0.0005504425908415114,259.939,0.5419999957084656,-2.420054976152995
260.224138,,0.0014490368217088578,260.399,0.5440000295639038,-2.415914139749825
260.689655,,0.0021119915021035494,260.869,0.5410000085830688,-2.4226351884656343
261.155172,,0.001492113669570037,261.329,0.5379999876022339,-2.42931926052158
261.62068999999997,,0.0005195041939178837,261.799,0.5410000085830688,-2.4228899127244405
262.086207,,0.002710060526301645,262.263,0.5540000200271606,-2.394628986171346
262.551724,,0.0033446364199813416,262.725,0.5329999923706055,-2.4403949039956894
263.017241,,0.0016774005694140301,263.19,0.5419999957084656,-2.4207536713164037
263.482759,,0.001092856151477636,263.66,0.5419999957084656,-2.4206734745439
263.94827599999996,,0.002657112433411024,264.126,0.5339999794960022,-2.437977791415738
264.413793,,0.001737955578123932,264.584,0.5419999957084656,-2.4203825299107087
264.87931,,0.0007249714543024588,265.05,0.5690000057220459,-2.3613558465448174
265.34482799999995,,0.0026254331700702404,265.514,0.5460000038146973,-2.4112296325545644
265.810345,,0.0025909622422049345,265.98,0.5669999718666077,-2.3652176857737146
266.27586199999996,,0.0007716955480285609,266.444,0.5289999842643738,-2.447728714483392
266.741379,,0.0016907355846550124,266.909,0.5519999861717224,-2.397333746157023
267.206897,,0.003594788134960124,267.377,0.5460000038146973,-2.410119633592186
267.672414,,0.004405362615839459,267.84,0.5630000233650208,-2.3728046856255425
268.137931,,0.004487470700189751,268.31,0.5450000166893005,-2.411758815345564
268.603448,,0.004643082818450801,268.773,0.5490000247955322,-2.4028071692997623
269.06896600000005,,0.005287796604759777,269.241,0.5649999976158142,-2.3677435209684035
269.53448299999997,,0.0061024637611366275,269.703,0.5329999923706055,-2.437293013605863
270.0,,0.006495080250205356,270.168,0.5540000200271606,-2.3914178523205183
270.465517,,0.00620468182045835,270.632,0.5299999713897705,-2.4436301719519196
270.931034,,0.00529289036327101,271.098,0.5379999876022339,-2.4261766048201534
271.396552,,0.003751148063019906,271.562,0.5460000038146973,-2.4087751020893218
271.86206899999996,,0.001521500816903216,272.028,0.5669999718666077,-2.3631019408207985
272.327586,,0.0010044298677819835,272.493,0.5669999718666077,-2.3632280154517122
272.793103,,0.0028607814967420973,272.959,0.5419999957084656,-2.4178645285549987
273.258621,,0.003243488021423312,273.426,0.5540000200271606,-2.3919311770475047
273.724138,,0.002325834863959517,273.884,0.5529999732971191,-2.3943545743128287
274.18965499999996,,0.0010310601057649835,274.352,0.5519999861717224,-2.3968047243359742
274.655172,,2.650876513501772e-06,274.815,0.5490000247955322,-2.4036311614119388
275.12069,,0.0007671647717157525,275.285,0.5460000038146973,-2.4104683884115907
275.586207,,0.0012332848434471401,275.747,0.5669999718666077,-2.365019542351468
276.051724,,0.0009172159457736095,276.213,0.5410000085830688,-2.4219592501850205
276.517241,,0.00030754931765643556,276.678,0.5049999952316284,-2.5006701283747566
276.98275900000004,,0.001492196817262441,277.144,0.5709999799728394,-2.3571354577903962
277.448276,,0.0012549420978527348,277.61,0.5419999957084656,-2.420539916007277
277.913793,,0.0008375710210664817,278.076,0.515999972820282,-2.4773693782285005
278.37931,,0.003705870497563802,278.54,0.5350000262260437,-2.4361156072806676
278.844828,,0.0055311877227843,279.006,0.5720000267028809,-2.355596853788904
279.31034500000004,,0.005082193010539071,279.466,0.5410000085830688,-2.42317251114552
279.77586199999996,,0.002616747043234139,279.932,0.515999972820282,-2.477621873755792
280.241379,,0.000142047448926847,280.4,0.5289999842643738,-2.4492293239004637
280.706897,,0.0012159859671644578,280.862,0.5419999957084656,-2.4207849657660243
281.172414,,0.00028848769330570726,281.329,0.5400000214576721,-2.424970952530722
281.637931,,0.0007252620453663212,281.792,0.5540000200271606,-2.3942534640630737
282.10344799999996,,0.00015107992921236396,282.255,0.546999990940094,-2.4092482254368726
282.568966,,0.0024638612556443563,282.725,0.5630000233650208,-2.3741015000196484
283.034483,,0.004003010873195641,283.191,0.5540000200271606,-2.3933967632625146
283.5,,0.0036279148758321055,283.653,0.5299999713897705,-2.4453572773389087
283.965517,,0.002221202218100646,284.119,0.5540000200271606,-2.392738241907857
284.431034,,0.0010121470020894145,284.585,0.5540000200271606,-2.392412286979742
284.89655200000004,,0.00028703104813040167,285.051,0.5189999938011169,-2.4683546674096832
285.362069,,7.421694296392448e-05,285.51,0.5630000233650208,-2.3722092593226485
285.827586,,0.0009298844459795956,285.976,0.5419999957084656,-2.4177100866714447
286.293103,,0.003077049822889193,286.441,0.5630000233650208,-2.371748951927856
286.758621,,0.005264842320599478,286.906,0.4819999933242798,-2.548059490757901
287.22413800000004,,0.005607209269687346,287.369,0.5490000247955322,-2.401985842848787
287.689655,,0.003721918758749466,287.839,0.5540000200271606,-2.3910470967633985
288.155172,,0.0012998986618385396,288.3,0.5180000066757202,-2.4694926410726357
288.62069,,0.00024945468906174253,288.769,0.5299999713897705,-2.4434238017788323
289.086207,,0.0006866468447454311,289.23,0.5460000038146973,-2.408699056232557
289.55172400000004,,0.001024044542222796,289.699,0.550000011920929,-2.400172451349316
290.01724099999996,,0.0001261895606068275,290.165,0.5419999957084656,-2.4178383676060546
290.482759,,0.0023880952844843747,290.629,0.5320000052452087,-2.4399037853796113
290.948276,,0.004037043283241344,291.094,0.5440000295639038,-2.414073280557714
291.413793,,0.003789159548718854,291.559,0.5419999957084656,-2.4187688798600853
291.87931,,0.001960664448029704,292.024,0.453000009059906,-2.613023148378802
292.344828,,4.990950055629482e-05,292.489,0.4659999907016754,-2.5850639359995338
292.81034500000004,,0.0005273741486502687,292.955,0.5270000100135803,-2.4525269717498537
293.275862,,0.00047325863023830854,293.422,0.5669999718666077,-2.3657246391382145
293.74137900000005,,0.001926341174555581,293.881,0.550000011920929,-2.403074759312552
294.206897,,0.0024002131781271927,294.351,0.5419999957084656,-2.420776772915653
294.672414,,0.001682818176380009,294.813,0.5460000038146973,-2.4122862803845413
295.13793100000004,,0.0010447683788757608,295.277,0.5659999847412109,-2.368881081058153
295.603448,,0.0017680954556394215,295.74,0.5419999957084656,-2.4212740247313844
296.068966,,0.0036326805556765765,296.205,0.5540000200271606,-2.3951698450926115
296.534483,,0.005153088003304835,296.669,0.5260000228881836,-2.4561448721655132
297.0,,0.00521591759472465,297.134,0.5410000085830688,-2.423372222153375
297.46551700000003,,0.004175538394819384,297.599,0.5379999876022339,-2.429752010923747
297.931034,,0.0033195087161386073,298.065,0.5339999794960022,-2.4382515592076137
298.396552,,0.0034775764163543993,298.53,0.5329999923706055,-2.4401628238454465
298.862069,,0.0041503416663600705,298.995,0.5509999990463257,-2.4006352539206053
299.327586,,0.003938023913382167,299.463,0.5490000247955322,-2.404644929162185
299.79310300000003,,0.002073700446477315,299.928,0.5529999732971191,-2.395557454791657
300.258621,,0.0004320245861801502,300.396,0.550000011920929,-2.4017063398487455
300.724138,,0.0016482707581950988,300.858,0.5410000085830688,-2.420925445762224
301.189655,,0.0007982050557655322,301.322,0.5400000214576721,-2.422726127388937
301.65517200000005,,0.0010528401922962397,301.784,0.5699999928474426,-2.357011122476746
302.12069,,0.0023317369858259275,302.255,0.5540000200271606,-2.3915466931502376
302.586207,,0.002300443859257297,302.718,0.6029999852180481,-2.2845125163830464
303.05172400000004,,0.0011053824051219156,303.183,0.5400000214576721,-2.421538024715971
303.517241,,0.0007093264051507783,303.647,0.5849999785423279,-2.323328994700947
303.982759,,0.002464806351060446,304.113,0.5540000200271606,-2.390762520632094
304.448276,,0.0036680683154293576,304.578,0.5329999923706055,-2.4364797511443355
304.913793,,0.0044692493619258224,305.044,0.5419999957084656,-2.4169104535225516
305.37931000000003,,0.005504032553020331,305.51,0.5400000214576721,-2.42137882262642
305.844828,,0.006915021872620878,305.976,0.45500001311302185,-2.6067463600816967
306.310345,,0.007895225131135757,306.44,0.5249999761581421,-2.454491235865096
306.775862,,0.007791908052299428,306.899,0.5009999871253967,-2.5070888518945718
307.241379,,0.0073146609906491805,307.367,0.5339999794960022,-2.435552727490205
307.70689699999997,,0.007804811782535868,307.829,0.5389999747276306,-2.425055865349498
308.172414,,0.009439451041345,308.299,0.5669999718666077,-2.3644732853250874
308.637931,,0.011013559587163132,308.762,0.5540000200271606,-2.393224178999726
309.103448,,0.011607815269092044,309.226,0.5379999876022339,-2.428506734219753
309.568966,,0.011829469970489717,309.695,0.546999990940094,-2.40930559020634
310.034483,,0.013080028001592785,310.161,0.5460000038146973,-2.411860391777259
310.5,,0.015730618789030485,310.626,0.5659999847412109,-2.368620388191031
310.96551700000003,,0.018202766601604557,311.084,0.6700000166893005,-2.1423169508498474
311.431034,,0.01814233202392525,311.555,0.5669999718666077,-2.3669259248914836
311.896552,,0.014781329460372035,312.021,0.5299999713897705,-2.447671650648737
312.362069,,0.009856762840664737,312.481,0.5490000247955322,-2.406339144719362
312.827586,,0.005560720705599687,312.946,0.5519999861717224,-2.3997893011762637
313.29310300000003,,0.0016631525618055404,313.418,0.527999997138977,-2.451987220861131
313.758621,,0.004401423491384216,313.876,0.550000011920929,-2.403894701853029
314.224138,,0.014174460359201113,314.344,0.5419999957084656,-2.421093874455759
314.689655,,0.025670689189750136,314.806,0.531000018119812,-2.4447682228111924
315.155172,,0.03482443254374351,315.274,0.5540000200271606,-2.394316969481046
315.62068999999997,,0.038882978057456316,315.737,0.5540000200271606,-2.3939330407153836
316.086207,,0.03798407660914415,316.203,0.5189999938011169,-2.469772455821741
316.551724,,0.034271646927308726,316.665,0.5149999856948853,-2.4780585535295034
317.017241,,0.030275968875901775,317.131,0.5370000004768372,-2.429698333302983
317.482759,,0.02751848044695441,317.596,0.5429999828338623,-2.416207724177202
317.94827599999996,,0.02562083463111719,318.062,0.5640000104904175,-2.3700604647632706
318.413793,,0.022730015831451445,318.529,0.5960000157356262,-2.299982185534936
318.87931000000003,,0.017425756009599832,318.995,0.5540000200271606,-2.3911686232629337
319.344828,,0.010443522741422713,319.459,0.5270000100135803,-2.4497316104548625
319.810345,,0.004337394840655163,319.925,0.5410000085830688,-2.419036159038728
320.275862,,0.0012565738225534947,320.388,0.5419999957084656,-2.4167356834118507
320.741379,,0.0009370297050065391,320.85,0.5389999747276306,-2.423226171754213
321.20689699999997,,0.000871751033222653,321.318,0.550000011920929,-2.3992933734584416
321.672414,,0.0013370810334900909,321.781,0.5400000214576721,-2.4211892798784977
322.137931,,0.0055335546382220225,322.244,0.5680000185966492,-2.3603700301251997
322.603448,,0.008954570588962072,322.714,0.5419999957084656,-2.4172655251637707
323.068966,,0.009010357881532316,323.179,0.5429999828338623,-2.4153979494936557
323.53448299999997,,0.006236502275864125,323.646,0.5860000252723694,-2.3220776064991693
324.0,,0.003988557190212921,324.104,0.5360000133514404,-2.431410584557796
324.465517,,0.004944829904780412,324.57,0.5370000004768372,-2.429659993610473
324.931034,,0.008466652476853596,325.036,0.5720000267028809,-2.3538497936781937
325.396552,,0.011811823317417562,325.503,0.5370000004768372,-2.430545290783569
325.86206899999996,,0.013382424507984747,325.968,0.5759999752044678,-2.346007017285061
326.327586,,0.014104629254374917,326.433,0.5770000219345093,-2.34422931609477
326.793103,,0.015842983121323723,326.899,0.5389999747276306,-2.4273786034164213
327.258621,,0.019230405359222665,327.362,0.5540000200271606,-2.395008576011815
327.724138,,0.023338164983173534,327.826,0.5440000295639038,-2.4170447407427496
328.189655,,0.026927605182789305,328.296,0.5720000267028809,-2.3562237900014864
328.655172,,0.02943235890582017,328.759,0.5720000267028809,-2.3563298567953708
329.12068999999997,,0.0308692186135113,329.222,0.5410000085830688,-2.4238955040336942
329.586207,,0.03128967897060676,329.684,0.5460000038146973,-2.4129511904039513
330.051724,,0.030501895821828544,330.15,0.546999990940094,-2.410644691052356
330.517241,,0.02841333890531561,330.614,0.5299999713897705,-2.447481027340719
330.982759,,0.025743629708991276,331.079,0.5410000085830688,-2.4232485967402906
331.44827599999996,,0.02405023818890507,331.544,0.5440000295639038,-2.416386810178076
331.913793,,0.024533052670290528,332.009,0.5540000200271606,-2.3942252919460847
332.37931,,0.02693834115660258,332.481,0.5419999957084656,-2.4199560064934227
332.844828,,0.030156415865257667,332.939,0.5339999794960022,-2.4369470186734135
333.310345,,0.03392033476470996,333.407,0.5669999718666077,-2.36460159801104
333.77586199999996,,0.03942665641878846,333.869,0.5419999957084656,-2.4186191376403405
334.241379,,0.047889272982964595,334.337,0.5339999794960022,-2.4356153644581773
334.706897,,0.05844934450567734,334.799,0.5669999718666077,-2.363316099441657
335.17241399999995,,0.06767147915511013,335.27,0.5299999713897705,-2.4435635198873027
335.637931,,0.07121032178277384,335.732,0.5540000200271606,-2.390966079831902
336.103448,,0.06616197226839338,336.198,0.5370000004768372,-2.4277560560800358
336.56896600000005,,0.05231070611327207,336.66,0.5540000200271606,-2.3905421778729945
337.034483,,0.03150371493127544,337.126,0.5389999747276306,-2.4231211325574913
337.5,,0.005633586017637366,337.592,0.5490000247955322,-2.4013129534323103
337.965517,,0.02494242393599664,338.057,0.5299999713897705,-2.442766298061685
338.431034,,0.06061097515876377,338.522,0.5460000038146973,-2.4080458514463507
338.89655200000004,,0.09975552720216686,338.988,0.5519999861717224,-2.395186743857141
339.36206899999996,,0.13689091450186397,339.455,0.5389999747276306,-2.423790075502972
339.827586,,0.16411949847947205,339.914,0.5379999876022339,-2.4263096236383297
340.293103,,0.17562331346503543,340.384,0.5540000200271606,-2.391841807453681
340.758621,,0.1718442502778043,340.847,0.5450000166893005,-2.41187771446487
341.224138,,0.15909339721705332,341.314,0.5429999828338623,-2.416687563584397
341.68965499999996,,0.14404548565269426,341.777,0.5460000038146973,-2.4106148012887125
342.155172,,0.12833513139577135,342.24,0.5659999847412109,-2.367501171934252
342.62069,,0.10900129379918476,342.71,0.5709999799728394,-2.35704830585984
343.086207,,0.08407071206752055,343.176,0.5669999718666077,-2.366170310744867
343.551724,,0.05664319516122088,343.639,0.5630000233650208,-2.3752468138155725
344.01724099999996,,0.03266014576767111,344.105,0.5540000200271606,-2.395160583226321
344.48275900000004,,0.015090676723563791,344.57,0.5659999847412109,-2.3692574777641653
344.948276,,0.0014908729482999746,345.035,0.5299999713897705,-2.4478571694719786
345.413793,,0.012537511820218271,345.499,0.5519999861717224,-2.400018336050927
345.87931,,0.0286638305610541,345.965,0.5320000052452087,-2.4436032971730883
346.344828,,0.04514590402498623,346.43,0.546999990940094,-2.410855714878895
346.81034500000004,,0.05964259254673446,346.896,0.515999972820282,-2.4782484298368357
347.275862,,0.07138372229148138,347.358,0.5440000295639038,-2.417027712079109
347.741379,,0.08069528206824479,347.821,0.5540000200271606,-2.3949556510387167
348.206897,,0.087618461657674,348.284,0.5669999718666077,-2.3662878949052044
348.672414,,0.09190183493015827,348.755,0.5360000133514404,-2.4334309198764235
349.13793100000004,,0.0938829188901603,349.214,0.5299999713897705,-2.44607121788178
349.60344799999996,,0.0940226337492531,349.679,0.550000011920929,-2.4020432259399467
350.068966,,0.09119732071037326,350.144,0.5419999957084656,-2.419007554280427
350.534483,,0.082637072155431,350.611,0.5699999928474426,-2.35754396473287
351.0,,0.06647811254864378,351.077,0.550000011920929,-2.400672456248907
351.465517,,0.04399598535060546,351.544,0.5460000038146973,-2.40897343556087
351.93103399999995,,0.01909664047109402,352.009,0.5630000233650208,-2.3715664126288845
352.396552,,0.003586489265006674,352.473,0.5669999718666077,-2.3625364309236834
352.862069,,0.019881877501920883,352.939,0.5519999861717224,-2.3949646958256565
353.32758600000005,,0.026960422213200965,353.399,0.5410000085830688,-2.4187509989411353
353.793103,,0.0248216550202398,353.869,0.5529999732971191,-2.3925073461789954
354.258621,,0.01696392617917737,354.333,0.5460000038146973,-2.4077399681307976
354.72413800000004,,0.00841842989501988,354.795,0.5490000247955322,-2.401269033323013
355.189655,,0.0024492540127100068,355.263,0.5889999866485596,-2.3142687174011662
355.655172,,0.0008325149192959964,355.725,0.5419999957084656,-2.416886506377892
356.12069,,0.003039865539270582,356.191,0.5429999828338623,-2.414999491081806
356.586207,,0.005420172118426353,356.661,0.5419999957084656,-2.417532325697593
357.05172400000004,,0.008029830262654738,357.119,0.5329999923706055,-2.437546659459169
357.517241,,0.01011131152574969,357.585,0.5,-2.509889604091948
357.982759,,0.010869899135113817,358.051,0.5479999780654907,-2.4057900380323707
358.448276,,0.010192358588959755,358.518,0.5360000133514404,-2.4324218420537136
358.913793,,0.008919692513722087,358.983,0.5170000195503235,-2.4743017021617133
359.37931000000003,,0.00821350065572526,359.448,0.5400000214576721,-2.424661244619217
359.844828,,0.008336588405775607,359.914,0.5519999861717224,-2.3989536347010647
360.310345,,0.008322414794887262,360.377,0.5479999780654907,-2.4080575076159776
360.775862,,0.007274364790572726,360.84,0.5419999957084656,-2.421459542163396
361.241379,,0.005619976440027945,361.307,0.5630000233650208,-2.3759683600734753
361.706897,,0.004504187771821468,361.769,0.550000011920929,-2.4044728708107974
362.172414,,0.004325550649867578,362.237,0.550000011920929,-2.4045705848228986
362.63793100000004,,0.004460430319079462,362.699,0.5809999704360962,-2.337042239269406
363.103448,,0.004067989477238672,363.165,0.5249999761581421,-2.458967519409708
363.568966,,0.0026939308411086564,363.632,0.5419999957084656,-2.42176596577339
364.034483,,0.0004439858240808613,364.098,0.5820000171661377,-2.334374524971092
364.5,,0.0020725136337631203,364.562,0.5419999957084656,-2.4212004208619256
364.96551700000003,,0.004231053617034137,365.028,0.5389999747276306,-2.4273520875884445
365.431034,,0.0059737704510481665,365.493,0.5299999713897705,-2.446524146656953
365.896552,,0.007608991949555811,365.959,0.5460000038146973,-2.4111918506402206
366.362069,,0.008959858653048996,366.425,0.5379999876022339,-2.428123437724232
366.827586,,0.00917735072369116,366.884,0.550000011920929,-2.401473213531646
367.29310300000003,,0.007790962123489434,367.351,0.5540000200271606,-2.3922587107543825
367.758621,,0.005659130203698939,367.814,0.5419999957084656,-2.417924468589134
368.224138,,0.004378132861106021,368.284,0.5419999957084656,-2.4174834041916324
368.689655,,0.00488316306448723,368.747,0.5059999823570251,-2.495525408521924
369.155172,,0.006905154280011871,369.213,0.550000011920929,-2.399339741110069
369.62068999999997,,0.009311349585113492,369.679,0.5649999976158142,-2.3664082896300656
370.086207,,0.010608218307815652,370.144,0.5540000200271606,-2.390201704389042
370.55172400000004,,0.009876334979964315,370.61,0.5659999847412109,-2.3639718221972976
371.017241,,0.007869897675548637,371.076,0.5419999957084656,-2.416261880296236
371.482759,,0.006632741062845987,371.54,0.5669999718666077,-2.361887332843025
371.948276,,0.007435199737722302,372.006,0.5640000104904175,-2.3686010613690462
372.413793,,0.009406356459825444,372.471,0.550000011920929,-2.3993610484070578
372.87931000000003,,0.010555736534915833,372.929,0.5419999957084656,-2.417123353038079
373.344828,,0.009897651086722517,373.399,0.5669999718666077,-2.3630546219461115
373.810345,,0.008253803698230677,373.862,0.527999997138977,-2.4484717369097777
374.275862,,0.007102755840159443,374.329,0.550000011920929,-2.401030676864038
374.741379,,0.007059228596104018,374.791,0.5540000200271606,-2.392829695440041
375.20689699999997,,0.007555597473319853,375.255,0.5690000057220459,-2.360671475282766
375.672414,,0.007588078283498192,375.725,0.5429999828338623,-2.4178296177116714
376.137931,,0.006603245054574162,376.19,0.5630000233650208,-2.3747460227192496
376.603448,,0.004983283019348154,376.653,0.5389999747276306,-2.4274845324983834
377.068966,,0.0036902473202981203,377.119,0.5659999847412109,-2.3690591807564254
377.53448299999997,,0.0031432009867977256,377.585,0.5720000267028809,-2.356319669232981
378.0,,0.0026768843317992687,378.044,0.5720000267028809,-2.356575246554586
378.465517,,0.0014940246540533495,378.511,0.5410000085830688,-2.424284466960246
378.931034,,0.00022134846899422262,378.976,0.5920000076293945,-2.3132545870261474
379.396552,,0.0016139797906130427,379.441,0.5699999928474426,-2.3611726320878614
379.862069,,0.00216578949013482,379.907,0.5389999747276306,-2.428605611108419
380.327586,,0.0018290088753109763,380.369,0.5329999923706055,-2.4414840501434067
380.79310300000003,,0.0005192847001084846,380.839,0.550000011920929,-2.404171497173602
381.258621,,0.0017518912995070648,381.3,0.546999990940094,-2.4103576736910712
381.724138,,0.004246483251253169,381.77,0.5540000200271606,-2.3946930207257813
382.189655,,0.005689499289315928,382.233,0.5509999990463257,-2.400763025344444
382.655172,,0.005309030621728088,382.695,0.5360000133514404,-2.43293911296565
383.12068999999997,,0.0032674597069770285,383.161,0.5540000200271606,-2.393197672431955
383.586207,,0.00010518928678308736,383.626,0.5339999794960022,-2.4362388008887352
384.051724,,0.003589123688085866,384.092,0.5440000295639038,-2.4139304285238903
384.517241,,0.006940317728700641,384.559,0.5440000295639038,-2.413434703593974
384.982759,,0.00895285076957917,385.024,0.550000011920929,-2.39990797686427
385.44827599999996,,0.009178869958769103,385.488,0.5509999990463257,-2.397328999887776
385.913793,,0.008009905602628355,385.954,0.5419999957084656,-2.4166033123879807
386.37931,,0.006482822029666545,386.419,0.550000011920929,-2.3989178226563173
386.84482799999995,,0.005902868612898695,386.884,0.5419999957084656,-2.4161760580993756
387.310345,,0.006956169329256872,387.347,0.5509999990463257,-2.3964878628879362
387.775862,,0.00863224710839984,387.81,0.5220000147819519,-2.4596819768006664
388.241379,,0.008656013106535325,388.278,0.5419999957084656,-2.416216373243876
388.70689699999997,,0.005856784794758139,388.74,0.5690000057220459,-2.3575904035520328
389.172414,,0.0017799613096961227,389.206,0.5519999861717224,-2.394908422995132
389.637931,,0.0009702836919591826,389.669,0.5419999957084656,-2.417051172788267
390.103448,,0.0018004624988514717,390.134,0.5419999957084656,-2.4174728538863954
390.56896600000005,,0.002482670930975459,390.603,0.5680000185966492,-2.3613020698025413
391.03448299999997,,0.004433521323581382,391.068,0.45100000500679016,-2.6167176249077886
391.5,,0.006869482000895454,391.533,0.550000011920929,-2.4015708285456534
391.965517,,0.008156934071426071,391.998,0.5540000200271606,-2.3934036082111816
392.431034,,0.008016383592073245,392.463,0.5540000200271606,-2.393940143188174
392.896552,,0.007563677025394376,392.929,0.5460000038146973,-2.4118786695641727
393.36206899999996,,0.007529974844366239,393.392,0.5360000133514404,-2.434132044105495
393.827586,,0.007128083989159055,393.854,0.5540000200271606,-2.3953266594368685
394.293103,,0.004853374347840732,394.325,0.5429999828338623,-2.4196326457700295
394.75862099999995,,0.00022936090762698264,394.788,0.5070000290870667,-2.4983252903126276
395.224138,,0.005416307067569258,395.251,0.5669999718666077,-2.367780671647629
395.68965499999996,,0.00994900301942792,395.714,0.5419999957084656,-2.42232721516209
396.155172,,0.012171712116628894,396.18,0.5789999961853027,-2.34170011065393
396.62069,,0.012599162405291686,396.646,0.546999990940094,-2.41130233551012
397.086207,,0.012432888459627842,397.111,0.5460000038146973,-2.4132727431322927
397.551724,,0.01173319121451692,397.577,0.5130000114440918,-2.4848737399851353
398.017241,,0.008998989698386733,398.043,0.5419999957084656,-2.4213218864880752
398.48275900000004,,0.0029410634673431783,398.507,0.5540000200271606,-2.3947408131015626
398.94827599999996,,0.005659155869766303,398.973,0.5379999876022339,-2.4291083856412223
399.413793,,0.014286436970438961,399.437,0.5379999876022339,-2.4285790979638406
399.87931,,0.020656122641555922,399.903,0.5370000004768372,-2.430206433562979
400.344828,,0.024122510202116563,400.366,0.5400000214576721,-2.42311392236904
400.810345,,0.025504961498186405,400.829,0.5210000276565552,-2.4639637279354276
401.27586199999996,,0.025902471930410165,401.299,0.5419999957084656,-2.4176965370709826
401.741379,,0.025637195563964158,401.762,0.5509999990463257,-2.397617113170347
402.206897,,0.0240840401242939,402.23,0.5630000233650208,-2.3710592451037367
402.672414,,0.020336676111418442,402.692,0.5419999957084656,-2.4164669913739423
403.137931,,0.014278709726670278,403.157,0.5299999713897705,-2.442348422365771
403.60344799999996,,0.007339465358727144,403.621,0.5419999957084656,-2.4160325380629164
404.068966,,0.0017521509152007872,404.087,0.5360000133514404,-2.429028088281664
404.534483,,0.0015772061832885387,404.552,0.5009999871253967,-2.505303505570826
405.0,,0.003977207285390325,405.017,0.5540000200271606,-2.389956550118033
405.465517,,0.007046624124857843,405.482,0.5540000200271606,-2.390172099102199
405.931034,,0.010432209733791168,405.948,0.5329999923706055,-2.4362263519769702
406.39655200000004,,0.012636269207225673,406.41,0.5440000295639038,-2.4126422110406005
406.862069,,0.01357129137185035,406.88,0.5720000267028809,-2.3520876264347623
407.327586,,0.014901653015351799,407.34,0.5460000038146973,-2.4092323761098786
407.793103,,0.017563130623246537,407.81,0.5979999899864197,-2.296479085939534
408.258621,,0.020080649121791933,408.27,0.5540000200271606,-2.3928958316203524
408.72413800000004,,0.0202639950530652,408.741,0.5379999876022339,-2.4283145605861733
409.18965499999996,,0.018117656035919794,409.199,0.5379999876022339,-2.4288634033508054
409.655172,,0.016035472843644333,409.669,0.5509999990463257,-2.401061836866487
410.12069,,0.015952044481185132,410.134,0.5659999847412109,-2.3688585413020316
410.586207,,0.017053677670874935,410.599,0.5460000038146973,-2.4128485211608353
411.05172400000004,,0.01680271248329558,411.065,0.5019999742507935,-2.5090554231889173
411.51724099999996,,0.013908023525830968,411.53,0.5540000200271606,-2.396031525080872
411.982759,,0.009758183857837263,411.989,0.5429999828338623,-2.42017324762903
412.448276,,0.006978461927507071,412.456,0.5540000200271606,-2.3962887183587345
412.913793,,0.007158246065556138,412.921,0.5649999976158142,-2.3723054044391048
413.37931,,0.01012759141930196,413.385,0.5519999861717224,-2.400510660127392
413.844828,,0.014623721655593468,413.854,0.5509999990463257,-2.4024766999225036
414.31034500000004,,0.018912156039520654,414.315,0.5540000200271606,-2.395639201900029
414.775862,,0.02116687584593959,414.784,0.5789999961853027,-2.3407909729092164
415.241379,,0.02013096564828051,415.247,0.5540000200271606,-2.3948054536034693
415.706897,,0.015720056857332538,415.71,0.5680000185966492,-2.3637968183197637
416.172414,,0.008984196747416283,416.175,0.5540000200271606,-2.393750054635072
416.63793100000004,,0.0015766828102800003,416.639,0.5429999828338623,-2.4171442140672763
417.103448,,0.0048733438896973,417.105,0.5540000200271606,-2.3926025466864633
417.568966,,0.00923518339072901,417.569,0.5540000200271606,-2.3920380693477328
418.034483,,0.010985803605222827,418.035,0.5299999713897705,-2.4437907103068293
418.5,,0.010108694816572731,418.499,0.5540000200271606,-2.3910142021377703
418.96551700000003,,0.007237512120467232,418.965,0.5540000200271606,-2.390586109441801
419.43103399999995,,0.003861388557718026,419.429,0.5419999957084656,-2.416375485376247
419.896552,,0.001707332450073322,419.895,0.5649999976158142,-2.3659966287173293
420.362069,,0.0012735106765966939,420.362,0.5849999785423279,-2.322245658602059
420.827586,,0.0012102032504231596,420.825,0.5170000195503235,-2.470313279926056
421.293103,,8.787249820219035e-05,421.296,0.5649999976158142,-2.3657592564227117
421.758621,,0.002266438123015227,421.758,0.5210000276565552,-2.461742253265946
422.22413800000004,,0.0031367908402919692,422.222,0.5379999876022339,-2.424926098886594
422.689655,,0.0011084483121595516,422.684,0.550000011920929,-2.3990947459607437
423.15517200000005,,0.0032338398717868095,423.15,0.5440000295639038,-2.412560733496281
423.62069,,0.008151626739127891,423.614,0.5429999828338623,-2.415203355900342
424.086207,,0.012733991347381592,424.079,0.5370000004768372,-2.428795013211388
424.55172400000004,,0.017543032379702173,424.544,0.5659999847412109,-2.3661738328120085
425.017241,,0.023465298968643345,425.011,0.5540000200271606,-2.3928991634762635
425.482759,,0.03013709327798963,425.478,0.5630000233650208,-2.3738769281123915
425.948276,,0.03575968329564632,425.944,0.5419999957084656,-2.420200647557731
426.413793,,0.03857201201886648,426.407,0.546999990940094,-2.409848904956886
426.87931000000003,,0.038177653738475203,426.869,0.5389999747276306,-2.4277728896312913
427.344828,,0.03526966380864406,427.34,0.550000011920929,-2.404240513078253
427.810345,,0.030613720435915717,427.803,0.5669999718666077,-2.3675606035534207
428.275862,,0.024866579421764245,428.266,0.550000011920929,-2.4048672450565576
428.741379,,0.019051919460673753,428.729,0.5419999957084656,-2.4224709325514793
429.20689699999997,,0.014285793536557689,429.194,0.5360000133514404,-2.4356172897946773
429.672414,,0.010711576656757798,429.664,0.5299999713897705,-2.4486618768424524
430.137931,,0.007358689417143793,430.13,0.5529999732971191,-2.39842419425805
430.603448,,0.003491852801984761,430.589,0.5479999780654907,-2.4090903982090603
431.068966,,0.00047676686307157465,431.054,0.5419999957084656,-2.4218435189672207
431.534483,,0.0038187651439123664,431.519,0.5419999957084656,-2.421442916614803
432.0,,0.00646377371422186,431.984,0.5690000057220459,-2.362148532812019
432.46551700000003,,0.008483171290881088,432.451,0.5329999923706055,-2.4400527330516226
432.931034,,0.009305107464754572,432.917,0.5299999713897705,-2.446022010742722
433.396552,,0.008443406083691646,433.384,0.5460000038146973,-2.4105749919027977
433.862069,,0.006833802349660131,433.847,0.5419999957084656,-2.418696595478673
434.327586,,0.00661653109043091,434.315,0.5630000233650208,-2.3723649214606337
434.79310300000003,,0.009461281542987502,434.777,0.5320000052452087,-2.4393536793695825
435.258621,,0.015601751296780863,435.24,0.5299999713897705,-2.4432098070176993
435.724138,,0.02444462692061971,435.71,0.5419999957084656,-2.41662865768364
436.189655,,0.03531808570644323,436.176,0.5389999747276306,-2.4228043388581346
436.655172,,0.0473861523615305,436.639,0.5360000133514404,-2.429067908340687
437.12068999999997,,0.059573632651672793,437.105,0.5540000200271606,-2.389676180177136
437.586207,,0.0708928632090722,437.57,0.5419999957084656,-2.4157453742421056
438.051724,,0.08018134649550238,438.035,0.49799999594688416,-2.51163604063927
438.517241,,0.08523895927249718,438.5,0.5490000247955322,-2.400659872985942
438.982759,,0.08295749144548419,438.959,0.5,-2.5076494898049853
439.448276,,0.07105947567252568,439.43,0.531000018119812,-2.4404410138223502
439.913793,,0.04993735056266246,439.896,0.5740000009536743,-2.3471717043169273
440.37931000000003,,0.022807629776066905,440.359,0.5540000200271606,-2.391225729813812
440.844828,,0.006044645872555227,440.821,0.531000018119812,-2.4418700214147657
441.310345,,0.03350365536633631,441.289,0.5460000038146973,-2.409764648700292
441.775862,,0.058436255699929295,441.751,0.5540000200271606,-2.3929310128111023
442.241379,,0.0804039841314985,442.222,0.4620000123977661,-2.593966655435153
442.70689699999997,,0.09779160451666738,442.684,0.5529999732971191,-2.3962971781245197
443.172414,,0.10776169785152269,443.15,0.5389999747276306,-2.427354007950805
443.637931,,0.10842698262119475,443.609,0.5630000233650208,-2.3755716102370856
444.103448,,0.10067936467182564,444.074,0.5339999794960022,-2.4391917643215217
444.568966,,0.08735313979998392,444.54,0.5730000138282776,-2.3545839612320343
445.03448299999997,,0.07095170964656672,445.005,0.5419999957084656,-2.422390704394827
445.5,,0.05285146722030396,445.47,0.5540000200271606,-2.396416392735642
445.965517,,0.034281781692468614,445.936,0.5619999766349792,-2.379052570723535
446.431034,,0.016921311146825088,446.399,0.5630000233650208,-2.3768323150236745
446.896552,,0.0022341462700021485,446.869,0.5540000200271606,-2.3962931715913585
447.36206899999996,,0.00913037965660418,447.329,0.5389999747276306,-2.4287256916280855
447.827586,,0.016967498994583007,447.799,0.5669999718666077,-2.3673837322797415
448.29310300000003,,0.021120211380560566,448.259,0.5400000214576721,-2.425785115074778
448.758621,,0.022115690934195992,448.729,0.5329999923706055,-2.4405450507875197
449.224138,,0.021897758586960803,449.194,0.5669999718666077,-2.365926934263872
449.689655,,0.022804149202159747,449.657,0.5370000004768372,-2.4307049719447136
450.155172,,0.02537297965383186,450.122,0.546999990940094,-2.4083179717681915
450.62068999999997,,0.027909094147386813,450.589,0.5529999732971191,-2.3946449219558126
451.086207,,0.02856793703247035,451.054,0.5540000200271606,-2.391882301633077
451.551724,,0.02712894830355741,451.515,0.5669999718666077,-2.3630109125208802
452.017241,,0.024526709696999837,451.98,0.5410000085830688,-2.419158282303991
452.482759,,0.02166909879953362,452.448,0.5630000233650208,-2.370797733438484
452.94827599999996,,0.019327911818420373,452.913,0.5370000004768372,-2.427092975408946
453.413793,,0.018430077678632237,453.374,0.5339999794960022,-2.4333711696914917
453.87931,,0.019408531397900802,453.844,0.5540000200271606,-2.389640301067959
454.344828,,0.021151164720667293,454.307,0.5669999718666077,-2.36126404031239
454.810345,,0.021346069761274518,454.769,0.5299999713897705,-2.441925457295167
455.27586199999996,,0.01850163932199429,455.24,0.5419999957084656,-2.4159376392836003
455.741379,,0.013533461904001249,455.702,0.5519999861717224,-2.3944070542289766
456.206897,,0.009116796595625146,456.168,0.5339999794960022,-2.433970334852153
456.672414,,0.007636615382821953,456.632,0.550000011920929,-2.399540609850258
457.137931,,0.009710991818889417,457.098,0.5339999794960022,-2.4348957662217408
457.603448,,0.014106015372117848,457.562,0.5379999876022339,-2.426730716203945
458.06896600000005,,0.018830379548995357,458.028,0.5389999747276306,-2.425137698494112
458.53448299999997,,0.02273628367640362,458.493,0.5540000200271606,-2.393061031807742
459.0,,0.026319261446681057,458.959,0.5419999957084656,-2.4198066383701162
459.465517,,0.030776516500933927,459.426,0.5630000233650208,-2.374636510133134
459.931034,,0.03613683529630686,459.884,0.5709999799728394,-2.3577501478765415
460.39655200000004,,0.040310148172267773,460.352,0.5419999957084656,-2.4214180134733323
460.86206899999996,,0.040038636000533256,460.814,0.5519999861717224,-2.4000487656941507
461.327586,,0.032996456005224446,461.284,0.5419999957084656,-2.42217020801872
461.793103,,0.01920862086579379,461.747,0.5540000200271606,-2.396268823040061
462.258621,,0.0007258017659030284,462.213,0.5690000057220459,-2.3637311519571784
462.724138,,0.019540995436648445,462.679,0.574999988079071,-2.350695752284435
463.18965499999996,,0.03840866764262838,463.145,0.5849999785423279,-2.328838498599737
463.655172,,0.052549206365834274,463.604,0.5339999794960022,-2.439774440081121
464.12069,,0.059218524691129606,464.069,0.5400000214576721,-2.4264301413964047
464.58620699999994,,0.05768761849023911,464.536,0.5460000038146973,-2.4129980521901953
465.051724,,0.05013222899333305,465.002,0.5540000200271606,-2.3951314557383823
465.517241,,0.04065764705144398,465.466,0.5830000042915344,-2.3314488182076
465.98275900000004,,0.03270740073022806,465.933,0.5389999747276306,-2.4267583018189103
466.448276,,0.026996004154291868,466.395,0.5419999957084656,-2.419640001569684
466.913793,,0.021904066115964342,466.865,0.5630000233650208,-2.373293179932932
467.37931,,0.015811299655174454,467.325,0.5519999861717224,-2.3966681885989987
467.844828,,0.00899251290360644,467.796,0.5669999718666077,-2.3634211058315233
468.31034500000004,,0.003394654763464226,468.259,0.5540000200271606,-2.391216253196102
468.77586199999996,,0.0007730163693560573,468.721,0.5659999847412109,-2.3646017259322343
469.241379,,0.0011064058074925244,469.187,0.5540000200271606,-2.3903454736429954
469.706897,,0.0026360843586811897,469.65,0.5360000133514404,-2.429244872267983
470.172414,,0.0031630621661532556,470.116,0.5640000104904175,-2.3680200866776704
470.63793100000004,,0.0015195678039252559,470.581,0.5460000038146973,-2.407113219853598
471.10344799999996,,0.0015593112839859353,471.047,0.5669999718666077,-2.361342517352186
471.568966,,0.003943384986049478,471.514,0.546999990940094,-2.4050001085847734
472.034483,,0.004170945577417806,471.979,0.550000011920929,-2.3986500798458352
472.5,,0.0032031398144732825,472.444,0.5460000038146973,-2.407646416343204
472.965517,,0.003483442979394527,472.91,0.5460000038146973,-2.4080151323189916
473.43103399999995,,0.005998367215116824,473.373,0.5709999799728394,-2.3539927265042477
473.89655200000004,,0.00895307472628673,473.836,0.5680000185966492,-2.36103269483112
474.362069,,0.009903847270136863,474.304,0.5680000185966492,-2.36158110892536
474.827586,,0.00865755054705683,474.766,0.546999990940094,-2.407908995471798
475.293103,,0.007186649929948398,475.234,0.5389999747276306,-2.4259253358713626
475.758621,,0.0069535010104191585,475.696,0.5379999876022339,-2.428684582664514
476.22413800000004,,0.007432335612643981,476.162,0.5540000200271606,-2.394382232829778
476.689655,,0.007306827946709416,476.629,0.546999990940094,-2.4101468180486685
477.155172,,0.00601623529454556,477.094,0.5540000200271606,-2.3953520303594367
477.62069,,0.003919534566224949,477.56,0.5419999957084656,-2.4218795816408605
478.086207,,0.001827324487198184,478.025,0.49000000953674316,-2.5354703786399932
478.55172400000004,,0.0004919482308731694,478.485,0.5249999761581421,-2.459428369628524
479.01724099999996,,0.00014361465725307276,478.95,0.5860000252723694,-2.3266428217650175
479.482759,,0.0011583319400576082,479.422,0.5389999747276306,-2.4290475072779705
479.948276,,0.0034598486701051833,479.881,0.5460000038146973,-2.4137010205457106
480.413793,,0.00642904283918757,480.344,0.5289999842643738,-2.4505421215106997
480.87931000000003,,0.008458080807291003,480.813,0.5260000228881836,-2.4567884593596205
481.344828,,0.008991766990341387,481.274,0.5540000200271606,-2.3954119829732945
481.810345,,0.00933580154834365,481.744,0.5379999876022339,-2.4298221345683046
482.275862,,0.010937641887918736,482.21,0.5419999957084656,-2.420598970038556
482.74137900000005,,0.01333677105108656,482.673,0.5529999732971191,-2.3960806609656142
483.206897,,0.014463672874641412,483.138,0.5460000038146973,-2.410749931171997
483.672414,,0.012748582954806397,483.603,0.5419999957084656,-2.4188733999071563
484.13793100000004,,0.008463956606991698,484.069,0.5730000138282776,-2.3507521095939947
484.603448,,0.0032568673037216642,484.533,0.574999988079071,-2.3458366925751624
485.068966,,0.0012238738983924259,484.999,0.5759999752044678,-2.343141522572736
485.534483,,0.004451586080167253,485.466,0.5320000052452087,-2.4385439962689888
486.0,,0.007077749239919745,485.924,0.5329999923706055,-2.4359818753746367
486.46551700000003,,0.00986283152715318,486.392,0.5270000100135803,-2.4487577602121537
486.931034,,0.012734914443145865,486.855,0.5759999752044678,-2.341804241478763
487.396552,,0.01517972660027965,487.325,0.4620000123977661,-2.5900733762207038
487.862069,,0.01729607741631643,487.788,0.5730000138282776,-2.348253931591712
488.327586,,0.019873378708600335,488.251,0.5379999876022339,-2.424623168553745
488.79310300000003,,0.023212959570090185,488.714,0.5370000004768372,-2.427019796627981
489.258621,,0.026156301507116946,489.18,0.5210000276565552,-2.4621919779248698
489.724138,,0.02662303385312379,489.645,0.5540000200271606,-2.390696564314771
490.189655,,0.02316045996347135,490.111,0.550000011920929,-2.399884042286107
490.655172,,0.01592095742067865,490.577,0.5400000214576721,-2.422201276646212
491.12069,,0.0063882530934332,491.043,0.5189999938011169,-2.4685259810496643
491.586207,,0.0034986529858988735,491.51,0.574999988079071,-2.3471189874213154
492.05172400000004,,0.012022883460742886,491.969,0.5630000233650208,-2.3738643070404923
492.517241,,0.017920079125932225,492.434,0.550000011920929,-2.4027735516523983
492.982759,,0.02040317319303028,492.899,0.527999997138977,-2.4512587043411744
493.448276,,0.019334415541399745,493.37,0.5640000104904175,-2.3733333431308137
493.913793,,0.015420096438993723,493.832,0.5379999876022339,-2.430419323548116
494.37931000000003,,0.009991336873672067,494.3,0.5379999876022339,-2.4307819532941166
494.844828,,0.004458062952179412,494.762,0.5379999876022339,-2.431055343699348
495.310345,,9.127178155853809e-05,495.225,0.5540000200271606,-2.3963721822297126
495.775862,,0.003069709957906935,495.695,0.5669999718666077,-2.368120689170255
496.241379,,0.004548163569369434,496.161,0.5329999923706055,-2.442158692582878
496.70689699999997,,0.005358415473460973,496.626,0.5379999876022339,-2.4311245704973596
497.172414,,0.00691425551990925,497.084,0.5389999747276306,-2.4287049577020365
497.637931,,0.010504419879039027,497.551,0.5400000214576721,-2.426192378286302
498.103448,,0.016262923687495604,498.016,0.5419999957084656,-2.42141866782847
498.568966,,0.022846598431196154,498.483,0.5460000038146973,-2.4122176293601663
499.03448299999997,,0.028499085882825265,498.949,0.5540000200271606,-2.3942467122737803
499.5,,0.03247894854291937,499.41,0.527999997138977,-2.4503115621038614
499.96551700000003,,0.03528265783069877,499.88,0.5389999747276306,-2.425746579425647
500.431034,,0.037506249972984476,500.344,0.5419999957084656,-2.418609486565891
500.89655200000004,,0.03845643455148525,500.806,0.5709999799728394,-2.3548441459329466
501.362069,,0.0357211861880163,501.274,0.49399998784065247,-2.522050557752768
501.827586,,0.026336794491340285,501.736,0.5379999876022339,-2.4256939925548364
502.293103,,0.008987578699682437,502.202,0.5669999718666077,-2.362085397590941
502.758621,,0.014457498336947847,502.665,0.5460000038146973,-2.407489110631533
503.224138,,0.039383271143542,503.131,0.5370000004768372,-2.4268402955622252
503.68965499999996,,0.06051067557704398,503.596,0.5339999794960022,-2.4332196200199787
504.15517200000005,,0.07410129031466724,504.062,0.5540000200271606,-2.3895947121626304
504.62068999999997,,0.07897175561316246,504.529,0.5400000214576721,-2.4201500537647727
505.08620699999994,,0.07622861335790063,504.995,0.5450000166893005,-2.409415630017953
505.55172400000004,,0.06846215111627603,505.46,0.5389999747276306,-2.4227463512266754
506.017241,,0.05867669094903706,505.925,0.550000011920929,-2.3991317933336678
506.48275899999993,,0.04886228862804497,506.388,0.382999986410141,-2.763400914221622
506.948276,,0.03904783011557059,506.85,0.5540000200271606,-2.3913598154430598
507.413793,,0.0281057395308542,507.314,0.5419999957084656,-2.4180660558434535
507.87931,,0.015841252983444954,507.784,0.5419999957084656,-2.418662438152471
508.344828,,0.004008782027037725,508.244,0.5509999990463257,-2.3996662921685115
508.810345,,0.005221537441026138,508.715,0.5329999923706055,-2.4394898401104275
509.27586199999996,,0.011690886656685188,509.18,0.5630000233650208,-2.374715190527607
509.74137900000005,,0.017370798025217758,509.646,0.5649999976158142,-2.3709007715897408
510.20689699999997,,0.023612339228456857,510.104,0.5929999947547913,-2.310381257442216
510.67241399999995,,0.02893364747346059,510.57,0.5540000200271606,-2.395755684164912
511.13793100000004,,0.030501779772213185,511.036,0.4860000014305115,-2.5442252062662267
511.603448,,0.02771248774442614,511.503,0.5440000295639038,-2.418091341054138
512.0689659999999,,0.02329784175958264,511.968,0.5410000085830688,-2.42475389447838
512.534483,,0.020387188276655758,512.433,0.5419999957084656,-2.4225957097962723
513.0,,0.019096992782182593,512.899,0.5630000233650208,-2.376757417117431
513.465517,,0.01685679347196036,513.359,0.5329999923706055,-2.4419258891333713
513.931034,,0.011985292841854624,513.829,0.5649999976158142,-2.3719197550433457
514.396552,,0.006123179685753853,514.292,0.5419999957084656,-2.421650000182866
514.862069,,0.0028487200780956978,514.754,0.5419999957084656,-2.421194150849655
515.327586,,0.0042968137561358866,515.222,0.5199999809265137,-2.468606623089148
515.793103,,0.009238097129365852,515.684,0.5170000195503235,-2.4745797494604647
516.258621,,0.014149949248313512,516.15,0.546999990940094,-2.4086302271061024
516.724138,,0.01614301711688052,516.614,0.546999990940094,-2.408030039751731
517.189655,,0.015086579957337719,517.08,0.5419999957084656,-2.4183311829007232
517.655172,,0.013026741917225734,517.547,0.550000011920929,-2.4003363713297623
518.1206900000001,,0.011748030437223124,518.013,0.5490000247955322,-2.4019932780749564
518.5862070000001,,0.011123297993437165,518.478,0.550000011920929,-2.399352857483937
519.051724,,0.009717847275277957,518.943,0.5379999876022339,-2.425109340199005
519.517241,,0.006674239041268237,519.407,0.5339999794960022,-2.433523538044836
519.982759,,0.002731316789313913,519.869,0.5389999747276306,-2.4224263943573936
520.448276,,0.000716154642468466,520.34,0.550000011920929,-2.398359719036653
520.9137929999999,,0.0032205275188518494,520.803,0.5540000200271606,-2.3896485979499267
521.37931,,0.005399610759775713,521.266,0.5440000295639038,-2.4115431588043834
521.844828,,0.007658120728974367,521.736,0.5370000004768372,-2.427003464544903
522.310345,,0.009645322480795096,522.194,0.550000011920929,-2.398985942781538
522.7758620000001,,0.011096726108249964,522.664,0.5460000038146973,-2.4080909395156134
523.241379,,0.012338180125841272,523.13,0.5669999718666077,-2.362802539700113
523.7068969999999,,0.013484076477232338,523.595,0.574999988079071,-2.345893992327324
524.172414,,0.01368285993544646,524.054,0.5400000214576721,-2.4227086614924027
524.637931,,0.011842127305718878,524.525,0.5630000233650208,-2.3731864305121046
525.103448,,0.008165090630522204,524.99,0.5699999928474426,-2.358528891384122
525.568966,,0.004537829902945228,525.455,0.5460000038146973,-2.411397099270537
526.034483,,0.003035054302826411,525.914,0.5360000133514404,-2.433735018559529
526.5,,0.004065770399020258,526.384,0.5649999976158142,-2.3710597922303895
526.9655170000001,,0.006057518610660408,526.847,0.6449999809265137,-2.197209642881818
527.4310340000001,,0.006764868386104251,527.314,0.5540000200271606,-2.395829237638699
527.8965519999999,,0.00481199323584496,527.777,0.5669999718666077,-2.3677810533170724
528.362069,,0.0003266594158484131,528.24,0.5709999799728394,-2.359245112526677
528.827586,,0.005434873622128491,528.71,0.5759999752044678,-2.3484293840112707
529.293103,,0.010883706192760096,529.176,0.5699999928474426,-2.3614753693682693
529.7586210000001,,0.014790507590882686,529.639,0.5669999718666077,-2.367883439718416
530.224138,,0.016703896779206074,530.105,0.5460000038146973,-2.4134099330107857
530.689655,,0.01696378461592355,530.569,0.5540000200271606,-2.395666429478621
531.155172,,0.01637356448600793,531.035,0.6019999980926514,-2.2906969811476756
531.62069,,0.016024755337728333,531.5,0.5669999718666077,-2.36648645698794
532.086207,,0.017247166588361708,531.966,0.593999981880188,-2.3071450266077456
532.5517239999999,,0.02085606857643098,532.425,0.5699999928474426,-2.358876385379814
533.017241,,0.025920478007210725,532.891,0.6190000176429749,-2.2515448007919354
533.482759,,0.029877539685830755,533.359,0.5920000076293945,-2.30978621669632
533.9482760000001,,0.030678563689118806,533.821,0.6230000257492065,-2.2416791409080377
534.413793,,0.028812734127667994,534.284,0.5839999914169312,-2.326108669194808
534.87931,,0.026764381713858088,534.755,0.5950000286102295,-2.3016540958475025
535.344828,,0.026397841979831384,535.225,0.6079999804496765,-2.272906295608294
535.810345,,0.02705897778460308,535.68,0.625,-2.2355199360931257
536.275862,,0.026044980041957023,536.146,0.6019999980926514,-2.2853662943135276
536.7413789999999,,0.020473527854737047,536.611,0.6029999852180481,-2.283020623219044
537.206897,,0.008935190803815255,537.077,0.6060000061988831,-2.2764187960705606
537.672414,,0.0076237446008616755,537.544,0.6110000014305115,-2.265562926652672
538.137931,,0.026064340852197807,538.009,0.6019999980926514,-2.2853102724022896
538.6034480000001,,0.042552505204379275,538.474,0.6119999885559082,-2.263761310751959
539.0689659999999,,0.05444030138034082,538.939,0.628000020980835,-2.229230650563822
539.5344829999999,,0.06098366071231858,539.4,0.6150000095367432,-2.2579606361660307
540.0,,0.06281348418950992,539.87,0.6549999713897705,-2.1712889451435653
540.465517,,0.06109401398447992,540.333,0.6290000081062317,-2.2284593165702473
540.931034,,0.056739729600454515,540.795,0.6269999742507935,-2.233377807946248
541.396552,,0.04998813181720105,541.259,0.6209999918937683,-2.247029835686669
541.862069,,0.04099633246972072,541.729,0.6909999847412109,-2.09510482069647
542.327586,,0.03108106744900172,542.194,0.6430000066757202,-2.200241244404355
542.7931030000001,,0.022864071015290748,542.657,0.6439999938011169,-2.1985881923203685
543.258621,,0.018431470363861165,543.123,0.6330000162124634,-2.223028225221657
543.7241379999999,,0.017129670931883285,543.588,0.6800000071525574,-2.1210411675170135
544.189655,,0.01570524420676439,544.054,0.6330000162124634,-2.2237685624525287
544.655172,,0.011209306841928467,544.518,0.652999997138977,-2.180438567102489
545.12069,,0.0036055986856099054,544.984,0.6579999923706055,-2.169693151843014
545.5862070000001,,0.004912292025592251,545.448,0.6669999957084656,-2.15013297487544
546.051724,,0.012728454400369101,545.914,0.6460000276565552,-2.1958308234545743
546.517241,,0.019965751206662503,546.377,0.6579999923706055,-2.169534310227116
546.982759,,0.026932106372916435,546.839,0.6460000276565552,-2.1954312518789787
547.448276,,0.032809200297876207,547.307,0.6420000195503235,-2.2038132206420373
547.9137929999999,,0.03690292250606419,547.769,0.6690000295639038,-2.1445814150160674
548.3793099999999,,0.04029796101141424,548.24,0.6309999823570251,-2.2268987754880545
548.844828,,0.044475423676102195,548.703,0.6460000276565552,-2.193699571482566
549.310345,,0.04811815084027787,549.168,0.652999997138977,-2.1778977734153986
549.775862,,0.04687354287900639,549.632,0.640999972820282,-2.2034749262430138
550.241379,,0.037081810630618814,550.098,0.7080000042915344,-2.056939682927414
550.706897,,0.019092336996985912,550.563,0.7080000042915344,-2.056390014336948
551.172414,,0.0029760448279421503,551.029,0.6700000166893005,-2.1386612840356967
551.637931,,0.02345964117788065,551.495,0.6579999923706055,-2.1643375958108186
552.103448,,0.03721366331799631,551.954,0.6639999747276306,-2.150863491047148
552.568966,,0.041557359864511145,552.426,0.6539999842643738,-2.17232556719963
553.034483,,0.03770088171069928,552.884,0.6449999809265137,-2.1916972762879245
553.5,,0.029827314822453065,553.352,0.6909999847412109,-2.0913384121415155
553.965517,,0.021923590715995284,553.821,0.6290000081062317,-2.226372671999442
554.4310340000001,,0.01544837944154189,554.281,0.6819999814033508,-2.1109631354839222
554.896552,,0.009914674334620963,554.744,0.6359999775886536,-2.21133874616531
555.3620689999999,,0.004749691666636828,555.209,0.6779999732971191,-2.1200871637110215
555.827586,,2.699427286030002e-05,555.68,0.6679999828338623,-2.142210901190381
556.293103,,0.004201325811374011,556.139,0.6620000004768372,-2.15569486449355
556.758621,,0.0075353558767068665,556.604,0.652999997138977,-2.1757775063575284
557.224138,,0.009794226553365357,557.069,0.6069999933242798,-2.2765195032308942
557.689655,,0.01115350098900742,557.537,0.6570000052452087,-2.1681452112505433
558.155172,,0.012346278356353461,558.003,0.7089999914169312,-2.0554284520298074
558.6206900000001,,0.013977428596661675,558.47,0.6449999809265137,-2.1954303212026964
559.0862070000001,,0.015739407258866116,558.936,0.6700000166893005,-2.1415110105543578
559.5517239999999,,0.01653626584203914,559.396,0.6430000066757202,-2.2008441414375075
560.017241,,0.01560643783817653,559.866,0.6460000276565552,-2.194765067436376
560.482759,,0.013639157710988446,560.329,0.6010000109672546,-2.2931956972482004
560.948276,,0.01246054769867447,560.791,0.7139999866485596,-2.047321600433459
561.413793,,0.013197726362620798,561.255,0.6539999842643738,-2.178263597264725
561.87931,,0.01484682741343758,561.725,0.6460000276565552,-2.19581890191891
562.344828,,0.014931515309431828,562.191,0.6330000162124634,-2.224168484571628
562.8103450000001,,0.011565354907459243,562.654,0.6790000200271606,-2.123877542740609
563.275862,,0.004875280165823559,563.12,0.6309999823570251,-2.2282811622872574
563.7413789999999,,0.0032995073191004376,563.579,0.6100000143051147,-2.273769124378461
564.206897,,0.0107146901929414,564.045,0.6579999923706055,-2.1688472788994093
564.672414,,0.01566921177398128,564.51,0.6470000147819519,-2.1923919008569177
565.137931,,0.017348034073437737,564.976,0.6480000019073486,-2.1897314089066864
565.603448,,0.016176723644093973,565.44,0.6190000176429749,-2.2523843882164676
566.068966,,0.013819275210726678,565.906,0.6299999952316284,-2.227862552433673
566.534483,,0.011998787528526024,566.373,0.6079999804496765,-2.2752247566687815
567.0,,0.01113749779007115,566.836,0.6140000224113464,-2.2615911233218546
567.465517,,0.0105898063838275,567.304,0.6039999723434448,-2.2828399961163917
567.931034,,0.009959352959713652,567.766,0.546999990940094,-2.4065267642534214
568.396552,,0.009411458026178262,568.229,0.6150000095367432,-2.2579398767674066
568.862069,,0.008681373499196284,568.699,0.640999972820282,-2.2009249664898234
569.327586,,0.0066657789968348966,569.164,0.5929999947547913,-2.3052081213194553
569.793103,,0.002707438515989742,569.628,0.5920000076293945,-2.3071827753477616
570.2586210000001,,0.0020235800848314774,570.094,0.574999988079071,-2.344110940164792
570.724138,,0.005362735166763773,570.56,0.6449999809265137,-2.191593851951424
571.189655,,0.00662852920247365,571.025,0.5929999947547913,-2.3049677322265
571.655172,,0.007566018290111204,571.485,0.6169999837875366,-2.252857306735466
572.12069,,0.010366397804757498,571.951,0.5709999799728394,-2.3533404247786516
572.586207,,0.015140753647988791,572.418,0.5630000233650208,-2.371115837757127
573.051724,,0.01981281483010664,572.883,0.574999988079071,-2.345389501429553
573.517241,,0.022460995013358437,573.345,0.5879999995231628,-2.317541811743911
573.982759,,0.023364990067492177,573.815,0.6100000143051147,-2.270127681539215
574.4482760000001,,0.02434325384713648,574.278,0.5669999718666077,-2.36435094618567
574.913793,,0.02616545735215067,574.739,0.6679999828338623,-2.1448562115368692
575.37931,,0.027209496027321128,575.205,0.5960000157356262,-2.302256827767078
575.844828,,0.024917084807705294,575.675,0.5889999866485596,-2.318018974041201
576.310345,,0.01815448443610756,576.14,0.574999988079071,-2.348991571659454
576.775862,,0.007978542983741064,576.599,0.5929999947547913,-2.3101934704390334
577.241379,,0.0032728593215478863,577.065,0.546999990940094,-2.4107629691485095
577.706897,,0.013108766383374968,577.532,0.5669999718666077,-2.3674662130188735
578.172414,,0.019712551548021803,577.998,0.6060000061988831,-2.2826907685963715
578.6379310000001,,0.022878983230253648,578.463,0.5759999752044678,-2.348151144680713
579.1034480000001,,0.024464161995993806,578.928,0.5789999961853027,-2.341622393107561
579.5689659999999,,0.026916607794935987,579.392,0.5299999713897705,-2.448291332680891
580.034483,,0.03056235185856033,579.854,0.5699999928474426,-2.3609720771773857
580.5,,0.032935836112957154,580.322,0.5899999737739563,-2.317142078264891
580.965517,,0.031574404822043815,580.784,0.5920000076293945,-2.31245025406934
581.431034,,0.026883446113857935,581.255,0.6010000109672546,-2.292440239872507
581.896552,,0.021199555279151246,581.718,0.5690000057220459,-2.361699746289732
582.362069,,0.015351914619174607,582.183,0.5720000267028809,-2.3546663739366314
582.827586,,0.007420543020278187,582.647,0.6140000224113464,-2.262640576065712
583.2931030000001,,0.004806245346242907,583.113,0.5519999861717224,-2.397184717654493
583.758621,,0.02099475393916409,583.578,0.5690000057220459,-2.359623264322806
584.2241379999999,,0.038140133391800675,584.044,0.6079999804496765,-2.2741552019042817
584.689655,,0.052508715814418794,584.504,0.5709999799728394,-2.354302124673841
585.155172,,0.0615482004614628,584.97,0.5820000171661377,-2.3299259906913106
585.6206900000001,,0.06473422086186434,585.436,0.5709999799728394,-2.3535454089791705
586.0862070000001,,0.06270500520315951,585.902,0.578000009059906,-2.338024595676901
586.551724,,0.054926921938916885,586.37,0.5540000200271606,-2.390126022324646
587.017241,,0.038949198999163354,586.832,0.5669999718666077,-2.3617076362282674
587.482759,,0.013818759482136815,587.3,0.5540000200271606,-2.3900268973199474
587.948276,,0.015929506677198783,587.762,0.5820000171661377,-2.329114159862206
588.4137929999999,,0.0418908297060873,588.226,0.5799999833106995,-2.333649675409618
588.87931,,0.05815688493281939,588.696,0.5690000057220459,-2.35787564199286
589.344828,,0.06493581058146058,589.154,0.5540000200271606,-2.3908914449649195
589.810345,,0.06591291825927975,589.621,0.5910000205039978,-2.3106822930130386
590.2758620000001,,0.06385757163902553,590.087,0.5509999990463257,-2.3982811191764357
590.741379,,0.05949031085606691,590.552,0.5799999833106995,-2.3355913023517823
591.2068969999999,,0.05289561350497011,591.017,0.5669999718666077,-2.3644276519150687
591.672414,,0.044280267145086594,591.485,0.574999988079071,-2.3475191849788044
592.137931,,0.033836105484722975,591.95,0.5669999718666077,-2.365460162777766
592.603448,,0.022273410404215124,592.411,0.5830000042915344,-2.331088630101853
593.068966,,0.01139153252230153,592.88,0.5540000200271606,-2.394716772410399
593.534483,,0.0030593455622821217,593.341,0.5630000233650208,-2.375503720351108
594.0,,0.0024191229757395505,593.81,0.5799999833106995,-2.3387969517106506
594.4655170000001,,0.0063397439170355075,594.274,0.550000011920929,-2.4044117349146097
594.9310340000001,,0.010181400370689106,594.736,0.5649999976158142,-2.371905468332447
595.3965519999999,,0.014568772270759481,595.202,0.5929999947547913,-2.3109891625372248
595.862069,,0.019259929874384196,595.665,0.5709999799728394,-2.3589144275957707
596.327586,,0.023514864248500307,596.13,0.5680000185966492,-2.3653550681449325
596.793103,,0.026426883648567507,596.595,0.5540000200271606,-2.3956747103620413
597.2586210000001,,0.027242759490202516,597.061,0.5950000286102295,-2.3060880160277977
597.724138,,0.025677552140710665,597.525,0.5490000247955322,-2.4059710564524965
598.189655,,0.022204556651972688,597.991,0.6060000061988831,-2.281390835671792
598.655172,,0.018137410218414887,598.455,0.5910000205039978,-2.313622243050102
599.12069,,0.014989723210296601,598.921,0.574999988079071,-2.3479950910548606
599.586207,,0.013152860244445404,599.384,0.4970000088214874,-2.5174241904982324
600.0517239999999,,0.01134231027216412,599.854,0.5730000138282776,-2.351338883683322
600.517241,,0.008050664909227142,600.314,0.6000000238418579,-2.2920186257005413
600.982759,,0.003599063530700071,600.784,0.5830000042915344,-2.328583314862077
601.448276,,7.01779686846302e-05,601.247,0.593999981880188,-2.3041845030688655
601.913793,,0.0009475660298564762,601.71,0.5540000200271606,-2.390949242473421
602.37931,,2.3296773347592393e-06,602.176,0.5659999847412109,-2.36448963829889
602.844828,,0.0008759620489683843,602.64,0.5540000200271606,-2.3903928178648557
603.310345,,9.47543714458223e-05,603.106,0.5789999961853027,-2.3357684277756445
603.775862,,0.0033487151174245613,603.573,0.5820000171661377,-2.3291604240971666
604.2413789999999,,0.0078522546337513,604.039,0.546999990940094,-2.405429454715725
604.706897,,0.01177498280637153,604.503,0.5540000200271606,-2.390283745470403
605.172414,,0.013764504763467628,604.969,0.5839999914169312,-2.3251142254922024
605.637931,,0.013974506630224284,605.434,0.5929999947547913,-2.305773735133826
606.1034480000001,,0.013648107895876786,605.899,0.5669999718666077,-2.3627546203556884
606.5689659999999,,0.013400248218268072,606.362,0.5540000200271606,-2.3914720361807955
607.0344829999999,,0.012248473747339245,606.825,0.5979999899864197,-2.2960535877176813
607.5,,0.008972365085911534,607.293,0.5669999718666077,-2.3640662393018994
607.965517,,0.004244873308087725,607.755,0.5789999961853027,-2.338414767743841
608.431034,,0.00046173186608919505,608.225,0.5809999704360962,-2.334552724220111
608.896552,,0.0008737559742581319,608.688,0.5960000157356262,-2.3023551468347243
609.362069,,0.0008864521081460349,609.153,0.5789999961853027,-2.3398465463143387
609.827586,,0.0019227968105555158,609.618,0.5789999961853027,-2.3402594912272336
610.293103,,0.00478975368782922,610.084,0.5540000200271606,-2.3950855625697782
610.758621,,0.007928050514861123,610.544,0.5860000252723694,-2.3256651461950137
611.2241379999999,,0.009217662537785323,611.009,0.5849999785423279,-2.328067192252721
611.689655,,0.008218326576417375,611.474,0.5540000200271606,-2.3957488867927847
612.155172,,0.00668710080403881,611.94,0.550000011920929,-2.4045246512942042
612.62069,,0.007127326702425934,612.41,0.5400000214576721,-2.4262890553817607
613.0862070000001,,0.010561827637145286,612.873,0.5540000200271606,-2.3956837333419205
613.551724,,0.015330601698301563,613.336,0.6000000238418579,-2.2952815667879247
614.017241,,0.01831362997801348,613.799,0.5540000200271606,-2.3952396846156967
614.4827590000001,,0.017802813245220053,614.267,0.550000011920929,-2.4036280294588726
614.948276,,0.015133745081486377,614.729,0.5419999957084656,-2.4206756434065055
615.4137929999999,,0.013307010776255089,615.195,0.5669999718666077,-2.3657840429857258
615.8793099999999,,0.01411562405185809,615.665,0.5410000085830688,-2.4219722209226937
616.344828,,0.016600242234238217,616.13,0.5820000171661377,-2.332173301521342
616.810345,,0.017965623944319935,616.589,0.5630000233650208,-2.373089292083551
617.275862,,0.01591874230085411,617.055,0.5630000233650208,-2.3726212649662646
617.741379,,0.010520111124933548,617.522,0.5389999747276306,-2.4244661209140235
618.206897,,0.004127388648525667,617.987,0.5659999847412109,-2.365238621361539
618.672414,,0.0005307883465652564,618.451,0.5659999847412109,-2.3648850781032005
619.137931,,0.0025699546278652257,618.917,0.5350000262260437,-2.4321305895157086
619.603448,,0.0035042528927697394,619.384,0.5400000214576721,-2.421015589510235
620.068966,,0.005525419293935779,619.847,0.5680000185966492,-2.3598687797517695
620.534483,,0.009134557818367493,620.314,0.5299999713897705,-2.442593747624661
621.0,,0.01270449691329907,620.776,0.5360000133514404,-2.4295412475814464
621.465517,,0.014476104041786352,621.24,0.5220000147819519,-2.460144991891211
621.9310340000001,,0.01446357131082054,621.71,0.5400000214576721,-2.421111771272089
622.396552,,0.013933940757572223,622.176,0.527999997138977,-2.4475118593954526
622.862069,,0.01347917552225305,622.639,0.5289999842643738,-2.445655220183199
623.327586,,0.012462212555391806,623.104,0.5230000019073486,-2.4591049785002412
623.793103,,0.010368196470756243,623.569,0.5230000019073486,-2.459527189708897
624.258621,,0.00783301545572481,624.035,0.5490000247955322,-2.4033352517125004
624.724138,,0.005916180180564169,624.5,0.5490000247955322,-2.403803989657448
625.189655,,0.004919353793562457,624.965,0.5400000214576721,-2.4238815278319676
625.655172,,0.004340851677539535,625.429,0.5379999876022339,-2.4286954839209023
626.1206900000001,,0.0036118238578771596,625.895,0.5419999957084656,-2.4204105628021293
626.5862070000001,,0.002606494543753925,626.358,0.550000011920929,-2.4033708095161948
627.0517239999999,,0.0017167877272530453,626.821,0.5260000228881836,-2.4559959349358604
627.5172409999999,,0.001507086830995163,627.284,0.5249999761581421,-2.4584509954589526
627.982759,,0.0020406179227546698,627.754,0.5320000052452087,-2.44340758559844
628.448276,,0.002584533158109139,628.222,0.5170000195503235,-2.4762193380160906
628.913793,,0.002217287008098285,628.684,0.5370000004768372,-2.4326995671851996
629.37931,,0.0007447766503983543,629.15,0.5389999747276306,-2.428314753243215
629.844828,,0.0009930551304741238,629.615,0.5170000195503235,-2.4761376903001837
630.3103450000001,,0.001647518784516283,630.08,0.527999997138977,-2.4519897869161182
630.7758620000001,,0.00035994007693483513,630.54,0.5149999856948853,-2.480059939808722
631.2413789999999,,0.002381222824868661,631.005,0.5130000114440918,-2.484103585252958
631.706897,,0.00473791221894473,631.474,0.5289999842643738,-2.448880108541204
632.172414,,0.004736726257128208,631.94,0.5540000200271606,-2.394007303441685
632.637931,,0.0021199269837369654,632.403,0.5320000052452087,-2.441501414106309
633.103448,,0.0009240983110218045,632.865,0.5109999775886536,-2.486801300927279
633.568966,,0.0017008008712571597,633.333,0.5230000019073486,-2.460204822400851
634.034483,,0.0001216770250686767,633.795,0.515999972820282,-2.4750158139367864
634.5,,0.0010837436129836123,634.259,0.5170000195503235,-2.4724237959971735
634.9655170000001,,9.535423273916775e-06,634.729,0.5210000276565552,-2.4633347336045555
635.431034,,0.0018421118480719057,635.194,0.5249999761581421,-2.454295591118507
635.8965519999999,,0.0015921290931241343,635.657,0.5109999775886536,-2.4845315023134007
636.362069,,0.000800664478882591,636.122,0.5170000195503235,-2.4712619674178646
636.827586,,0.0025503128958712894,636.589,0.5270000100135803,-2.4493511377400905
637.293103,,0.0018209344437394108,637.055,0.49000000953674316,-2.5299136579396966
637.7586210000001,,3.463724763258611e-05,637.514,0.531000018119812,-2.4406199030770814
638.224138,,0.0005581952156779755,637.98,0.5199999809265137,-2.464692452115854
638.689655,,0.0007261070336787269,638.448,0.5299999713897705,-2.443085584097722
639.155172,,0.0021582634324525695,638.914,0.5049999952316284,-2.4977981521981865
639.62069,,0.002065043160411691,639.377,0.5170000195503235,-2.4719602188750622
640.086207,,0.00016248086043520193,639.839,0.515999972820282,-2.4744948703925416
640.551724,,0.0026211408008540477,640.307,0.6060000061988831,-2.278809337812488
641.017241,,0.004888122426068539,640.769,0.5210000276565552,-2.4644106831410864
641.482759,,0.0055859977364434345,641.24,0.5389999747276306,-2.425623077055246
641.9482760000001,,0.004774694170550374,641.702,0.5059999823570251,-2.497946865720473
642.413793,,0.0036545021398272934,642.168,0.5339999794960022,-2.4373610458910058
642.87931,,0.0034303801960834466,642.632,0.44200000166893005,-2.6381899367337636
643.344828,,0.003945137979165942,643.098,0.5249999761581421,-2.457721834965353
643.810345,,0.0037334641802302354,643.562,0.515999972820282,-2.4776439934318972
644.275862,,0.0018432783547452226,644.028,0.5170000195503235,-2.475723530763539
644.7413789999999,,0.0006214339751451118,644.493,0.5379999876022339,-2.4301663218974854
645.206897,,0.0014613375714659922,644.958,0.5139999985694885,-2.4825782539656833
645.672414,,4.082162910124315e-05,645.425,0.5360000133514404,-2.4346988765352786
646.1379310000001,,0.0021052415105752816,645.891,0.5109999775886536,-2.4891414728781203
646.6034480000001,,0.0023284398267164083,646.353,0.5249999761581421,-2.4585432444411652
647.0689659999999,,0.00032996149656777657,646.816,0.5210000276565552,-2.4670903503527635
647.534483,,0.001856852988299458,647.285,0.5210000276565552,-2.466857907774865
648.0,,0.0021937323171765124,647.747,0.5339999794960022,-2.4382451338244118
648.465517,,0.0009930857261251738,648.213,0.5379999876022339,-2.429190496213989
648.931034,,0.0002355657198347104,648.679,0.5419999957084656,-2.420096273092737
649.396552,,0.0008474913857841905,649.144,0.5389999747276306,-2.426224569864495
649.862069,,0.001649470947311385,649.604,0.49000000953674316,-2.5325559903854145
650.327586,,0.001101128703566393,650.07,0.5419999957084656,-2.4188431658215284
650.7931030000001,,0.0008467893353237559,650.536,0.5299999713897705,-2.4445752226995694
651.258621,,0.003061472647376056,651.002,0.4339999854564667,-2.6533388100543123
651.7241379999999,,0.004715690398659598,651.467,0.5350000262260437,-2.432947099916912
652.189655,,0.005791369411418258,651.932,0.5460000038146973,-2.4086807903875016
652.655172,,0.006394999746084143,652.395,0.546999990940094,-2.406254341374813
653.12069,,0.0064123640435788205,652.865,0.5379999876022339,-2.425674945541302
653.5862070000001,,0.006006022194544322,653.326,0.5040000081062317,-2.49962871877579
654.051724,,0.005745824444047969,653.795,0.527999997138977,-2.4472923143729344
654.517241,,0.005848990782565396,654.259,0.5289999842643738,-2.4451372238429605
654.982759,,0.005711382246958086,654.721,0.5170000195503235,-2.4713756345564266
655.448276,,0.0045644062401983395,655.186,0.5210000276565552,-2.4628241414371526
655.9137929999999,,0.0025031216562920113,655.649,0.5230000019073486,-2.45869332070351
656.37931,,0.0007004084727612428,656.115,0.550000011920929,-2.400151771307806
656.844828,,0.0004269549004259915,656.581,0.5249999761581421,-2.454946371544092
657.310345,,0.0017086956920427713,657.047,0.5339999794960022,-2.435703309446086
657.7758620000001,,0.0031431697204246734,657.514,0.6129999756813049,-2.2639788680685333
658.241379,,0.0032464136143718534,657.98,0.5460000038146973,-2.4103476009910527
658.7068969999999,,0.0017384532969982494,658.444,0.5460000038146973,-2.4107464830307026
659.172414,,0.0006195873402001019,658.91,0.49799999594688416,-2.51571051147805
659.637931,,0.0029580798916790923,659.373,0.5460000038146973,-2.4115036183101375
660.103448,,0.004701314340556518,659.836,0.5009999871253967,-2.509879742929761
660.568966,,0.005475261006316726,660.299,0.5400000214576721,-2.4252080050498397
661.034483,,0.005304249694447214,660.769,0.5210000276565552,-2.4668478770552027
661.5,,0.005038864541597164,661.233,0.5400000214576721,-2.4256414869368164
661.965517,,0.006062365472208818,661.695,0.5139999985694885,-2.48241144534538
662.4310340000001,,0.00891293641141765,662.161,0.5759999752044678,-2.347393281258261
662.8965519999999,,0.012140397182990778,662.629,0.5440000295639038,-2.4170982110371653
663.362069,,0.013193951549457532,663.095,0.5410000085830688,-2.4235533790010675
663.827586,,0.010984269537319923,663.554,0.5170000195503235,-2.4756948309951947
664.293103,,0.00730169656762119,664.02,0.5630000233650208,-2.375270256657269
664.7586210000001,,0.005151010363685022,664.485,0.5519999861717224,-2.3989734922942847
665.224138,,0.0057161261837031605,664.951,0.5289999842643738,-2.4487731584835575
665.689655,,0.007377422015849835,665.415,0.546999990940094,-2.40921105696242
666.155172,,0.007633322393061165,665.881,0.5519999861717224,-2.397944454152259
666.62069,,0.00548378996658025,666.344,0.5360000133514404,-2.4324135014059154
667.086207,,0.002003814446959409,666.814,0.5389999747276306,-2.425484615152543
667.5517239999999,,0.0007512080800810298,667.277,0.5680000185966492,-2.3619183687632526
668.017241,,0.0012951556141149777,667.74,0.5519999861717224,-2.3964098985778564
668.482759,,0.0001835005155897592,668.206,0.5649999976158142,-2.3677496912675378
668.948276,,0.0019006412535031278,668.669,0.5460000038146973,-2.4088457321743357
669.413793,,0.0018521289438357368,669.134,0.5410000085830688,-2.4194896308128335
669.87931,,0.000648694391025883,669.601,0.5419999957084656,-2.4171185774844246
670.3448279999999,,0.004519601530565642,670.067,0.5289999842643738,-2.445311514822271
670.810345,,0.007691598897803528,670.533,0.5070000290870667,-2.4931797297553984
671.275862,,0.008541873684565115,670.998,0.5419999957084656,-2.416934763904099
671.7413789999999,,0.007124139569273609,671.463,0.5669999718666077,-2.3625440938292934
672.206897,,0.005183925141902486,671.929,0.5540000200271606,-2.391005896161742
672.672414,,0.004690655194608385,672.392,0.531000018119812,-2.441314294646098
673.137931,,0.006065892423317514,672.854,0.5540000200271606,-2.3914592992796
673.6034480000001,,0.007758389241452341,673.325,0.5440000295639038,-2.4135461377314043
674.068966,,0.007629485613048692,673.788,0.550000011920929,-2.4008117238661226
674.5344829999999,,0.004875086837261496,674.255,0.5789999961853027,-2.3379946107214673
675.0,,0.0006281221686937781,674.717,0.550000011920929,-2.401553676277851
675.465517,,0.0032919131572152296,675.183,0.5379999876022339,-2.428079794042505
675.931034,,0.006080211122733733,675.647,0.5329999923706055,-2.439348965989624
676.396552,,0.008271531873626538,676.113,0.5360000133514404,-2.4331717111301234
676.862069,,0.010460563620610038,676.577,0.5519999861717224,-2.3986439116859195
677.327586,,0.012105911213645699,677.043,0.5460000038146973,-2.4120077095635195
677.793103,,0.012020294050442668,677.51,0.5450000166893005,-2.4144309713553103
678.2586210000001,,0.009950240022615825,677.976,0.5090000033378601,-2.49305331899636
678.7241379999999,,0.007212653618295258,678.44,0.5379999876022339,-2.4300049858197594
679.1896549999999,,0.005573808631519351,678.899,0.5540000200271606,-2.3952158999572184
679.655172,,0.005549346537513072,679.37,0.550000011920929,-2.403933717762543
680.12069,,0.005856807216871731,679.832,0.5299999713897705,-2.447444028057287
680.5862070000001,,0.004814819181816677,680.3,0.5260000228881836,-2.456032641807117
