Trial: ,8
Threshold: ,0.0
Maximum EMG: ,0.15442950866913951
Success: ,True

EMG Time,Raw EMG,Filtered EMG,Force Time,Raw Force (V),Filtered Force (N)
0.0,samples,5.984322836787676e-06,0.468,0.4729999899864197,-2.568726402321614
0.46551699999999996,time,6.2779631834277404e-06,0.934,0.45899999141693115,-2.599112005958425
0.9310339999999999,value,6.56190927607719e-06,1.4,0.46299999952316284,-2.5903090440786496
1.396552,,6.834730405197011e-06,1.865,0.48899999260902405,-2.5336052674056186
1.862069,,7.094973723821277e-06,2.33,0.46299999952316284,-2.5902218845333067
2.327586,,7.341168469719727e-06,2.789,0.47600001096725464,-2.5619029586583526
2.793103,,7.571830433759401e-06,3.261,0.47600001096725464,-2.5619382178870542
3.258621,,7.785466669172075e-06,3.719,0.46700000762939453,-2.581611958523965
3.724138,,7.98058043534697e-06,4.189,0.49000000953674316,-2.5315975215339783
4.189654999999999,,8.155676368656785e-06,4.652,0.4560000002384186,-2.605791888660719
4.655172,,8.309265871692344e-06,5.115,0.49799999594688416,-2.5144311846809484
5.12069,,8.43987271113025e-06,5.585,0.47600001096725464,-2.5625215364114937
5.586207,,8.546038813292113e-06,6.044,0.46799999475479126,-2.580123876760033
6.051723999999999,,8.626330245276795e-06,6.514,0.46399998664855957,-2.5890202899186847
6.517241,,8.67934336836235e-06,6.98,0.47600001096725464,-2.5630616209235604
6.982759,,8.70371114918578e-06,7.445,0.46399998664855957,-2.5893883553416934
7.448276,,8.698109613020536e-06,7.904,0.4749999940395355,-2.565598358333754
7.913793000000001,,8.661264422288016e-06,8.37,0.47999998927116394,-2.5548670183934097
8.379309999999998,,8.591957562264694e-06,8.836,0.46700000762939453,-2.5833330285253147
8.844828000000001,,8.489034114785396e-06,9.301,0.4830000102519989,-2.5485957196493763
9.310345,,8.351409099600435e-06,9.766,0.47600001096725464,-2.563940929342331
9.775862,,8.178074361924684e-06,10.234,0.44999998807907104,-2.6206516749911204
10.241379,,7.968105483625107e-06,10.696,0.48399999737739563,-2.546612979666202
10.706897,,7.720668694435018e-06,11.159,0.4749999940395355,-2.566224048330996
11.172414,,7.435027758563508e-06,11.63,0.5540000200271606,-2.394079777142452
11.637931,,7.110550811092427e-06,12.093,0.47999998927116394,-2.5552343054602003
12.103447999999998,,6.746717117626309e-06,12.555,0.47999998927116394,-2.555137371640087
12.568966000000001,,6.3431237297882475e-06,13.021,0.48100000619888306,-2.5528347753606946
13.034483,,5.8994920083422985e-06,13.485,0.4699999988079071,-2.576653046278002
13.5,,5.4156739849761014e-06,13.951,0.4690000116825104,-2.578666734970385
13.965517,,4.891658533101457e-06,14.419,0.47200000286102295,-2.571953060232903
14.431034,,4.327577317431111e-06,14.885,0.47600001096725464,-2.5630531224783626
14.896552,,3.7237104915724423e-06,15.348,0.4790000021457672,-2.556329642840085
15.362069,,3.080492112448466e-06,15.814,0.48100000619888306,-2.5517879942723245
15.827586000000002,,2.398515240018814e-06,16.274,0.4860000014305115,-2.5407189597561626
16.293103,,1.6785366905334654e-06,16.74,0.4740000069141388,-2.5667007801403625
16.758621,,9.214814114149021e-07,17.208,0.47600001096725464,-2.5622005509657066
17.224138,,1.2844644583511287e-07,17.67,0.46399998664855957,-2.5882251775892646
17.689655,,6.992955448628611e-07,18.138,0.4950000047683716,-2.520594890476457
18.155172,,1.5602932325487388e-06,18.6,0.47600001096725464,-2.561926336430322
18.62069,,2.4529140788222215e-06,19.068,0.47200000286102295,-2.570609375543356
19.086207,,3.3753423275442547e-06,19.53,0.4690000116825104,-2.5771464948432805
19.551724,,4.325577563686148e-06,19.996,0.4699999988079071,-2.575001901049905
20.017241000000002,,5.301433868090649e-06,20.463,0.5049999952316284,-2.4988143087766677
20.482758999999998,,6.300539596893208e-06,20.929,0.46700000762939453,-2.5816965151497255
20.948276,,7.320337813366842e-06,21.39,0.4909999966621399,-2.529528401202753
21.413793000000002,,8.358087398827637e-06,21.855,0.46700000762939453,-2.5819579066242913
21.87931,,9.410864867968027e-06,22.322,0.49000000953674316,-2.5320091317834574
22.344828,,1.0475566912569816e-05,22.788,0.4620000123977661,-2.5931849436823775
22.810344999999998,,1.1548913695987224e-05,23.254,0.47600001096725464,-2.562866080183574
23.275862,,1.2627452919081356e-05,23.72,0.49000000953674316,-2.5325500265688268
23.741379,,1.370756467643103e-05,24.182,0.46799999475479126,-2.58066221814833
24.206897,,1.4785467119641228e-05,24.644,0.45899999141693115,-2.600444032413968
24.672414,,1.585722294242022e-05,25.112,0.4880000054836273,-2.5374241786332443
25.137931,,1.6918746699801145e-05,25.574,0.4740000069141388,-2.5680677829001644
25.603448,,1.7965812971445183e-05,26.04,0.4699999988079071,-2.576902173896804
26.068966,,1.8994065376384127e-05,26.51,0.47600001096725464,-2.5639239650670826
26.534483,,1.9999026443843347e-05,26.976,0.4699999988079071,-2.577060661531461
27.0,,2.0976108341935233e-05,27.441,0.4880000054836273,-2.537878605128169
27.465517,,2.1920624463032963e-05,27.899,0.4749999940395355,-2.5662022431338958
27.931034,,2.282780186152964e-05,28.371,0.4860000014305115,-2.542205700786598
28.396552,,2.3692794536464294e-05,28.829,0.4790000021457672,-2.557393232400729
28.862069,,2.4510697548160297e-05,29.294,0.4779999852180481,-2.5594792935560884
29.327586,,2.5276561954580397e-05,29.76,0.4830000102519989,-2.5484666743844344
29.793103000000002,,2.5985410549563583e-05,30.23,0.4749999940395355,-2.565753533169875
30.258620999999998,,2.6632254381480614e-05,30.692,0.46399998664855957,-2.5895580424110607
30.724138,,2.7212110027136676e-05,31.16,0.4699999988079071,-2.5763125501300137
31.189655000000002,,2.77200175919707e-05,31.622,0.45899999141693115,-2.600096678361789
31.655172000000004,,2.8151059403761805e-05,32.086,0.4880000054836273,-2.5367325612099676
32.12069,,2.850037936316563e-05,32.555,0.46700000762939453,-2.5823037360637717
32.586207,,2.8763202910478186e-05,33.014,0.46399998664855957,-2.5886678049665273
33.051724,,2.8934857564075153e-05,33.485,0.4650000035762787,-2.5863313646946877
33.517241000000006,,2.901079398201274e-05,33.951,0.4779999852180481,-2.5578698569759517
33.982759,,2.898660749431668e-05,34.415,0.5049999952316284,-2.4989289559950345
34.448276,,2.885806004954187e-05,34.874,0.46799999475479126,-2.5794463040570568
34.913793,,2.862110251527252e-05,35.341,0.47200000286102295,-2.5706672576193967
35.37931,,2.827189726836535e-05,35.807,0.4819999933242798,-2.5488468760272016
35.844828,,2.780684100693351e-05,36.272,0.47600001096725464,-2.561916013221141
36.310345,,2.722258771234164e-05,36.737,0.4659999907016754,-2.58373131795247
36.775862,,2.651607168585023e-05,37.2,0.550000011920929,-2.400783039314221
37.241378999999995,,2.568453058102663e-05,37.67,0.48500001430511475,-2.54247961552607
37.706897000000005,,2.472552834964872e-05,38.134,0.4740000069141388,-2.566553874539226
38.172414,,2.3636978015582303e-05,38.596,0.46700000762939453,-2.581936880149699
38.637931,,2.2417164188033387e-05,39.064,0.49900001287460327,-2.5123719636302777
39.103448,,2.106476522267907e-05,39.527,0.4690000116825104,-2.577897802282945
39.568965999999996,,1.9578874936484528e-05,39.993,0.47200000286102295,-2.5715383361701227
40.034483,,1.7959023779536654e-05,40.459,0.46799999475479126,-2.580434865057966
40.5,,1.6205199364985446e-05,40.925,0.4950000047683716,-2.521792892960854
40.965517,,1.4317866256200637e-05,41.39,0.4970000088214874,-2.5176104636241035
41.431034,,1.2297984908541437e-05,41.855,0.4449999928474426,-2.6310636302438963
41.896552,,1.0147029661719564e-05,42.316,0.46299999952316284,-2.591996493357266
42.362069000000005,,7.86700567762755e-06,42.781,0.47999998927116394,-2.5550887278562278
42.827586000000004,,5.460464717722901e-06,43.248,0.4749999940395355,-2.5660870483652443
43.293103,,2.930519653621169e-06,43.711,0.47200000286102295,-2.572700539700095
43.758621,,2.8085760447358843e-07,44.174,0.4790000021457672,-2.5574976271057968
44.224138,,2.4842484049964564e-06,44.644,0.4880000054836273,-2.5379054896147
44.689655,,5.35992937123411e-06,45.105,0.47600001096725464,-2.5640321586399852
45.155172,,8.340711927711429e-06,45.574,0.47200000286102295,-2.572697522230665
45.620689999999996,,1.14205117527294e-05,46.04,0.5009999871253967,-2.509436460763531
46.086206999999995,,1.4592628870042899e-05,46.503,0.5139999985694885,-2.4810036961763973
46.551724,,1.7849744940797682e-05,46.968,0.4690000116825104,-2.578905557059518
47.017241,,2.1183922642423935e-05,47.434,0.46799999475479126,-2.5809254126711134
47.482759,,2.4586607226822584e-05,47.899,0.4880000054836273,-2.5371773088130367
47.948276,,2.804863034640015e-05,48.363,0.48100000619888306,-2.5522411256873694
48.413793,,3.156021623224863e-05,48.829,0.4830000102519989,-2.547690919986527
48.879310000000004,,3.511099030402307e-05,49.294,0.47600001096725464,-2.562748403650054
49.344828,,3.868999028583733e-05,49.759,0.47600001096725464,-2.5625612617323204
49.810345,,4.228567989677515e-05,50.222,0.46399998664855957,-2.5885299293238373
50.275862,,4.5885965178399e-05,50.685,0.47600001096725464,-2.56222843690173
50.741379,,4.947821351493318e-05,51.152,0.49000000953674316,-2.5315915514259033
51.206897,,5.304927539460393e-05,51.615,0.47200000286102295,-2.570697050028319
51.672414,,5.6585508952941885e-05,52.085,0.4729999899864197,-2.568437622512408
52.137931,,6.0072807330697706e-05,52.548,0.4650000035762787,-2.585818351367509
52.603448,,6.349662887039851e-05,53.014,0.4690000116825104,-2.5770894186816657
53.068966,,6.684203016649137e-05,53.477,0.48500001430511475,-2.542251019876034
53.534483,,7.009370197449346e-05,53.943,0.4860000014305115,-2.5401254639144866
54.0,,7.323600797461069e-05,54.407,0.46399998664855957,-2.5881404483418966
54.465517,,7.625302637491482e-05,54.873,0.46399998664855957,-2.588255032584265
54.931034,,7.912859432840248e-05,55.337,0.47600001096725464,-2.562252459504828
55.396552,,8.184635512711962e-05,55.804,0.4830000102519989,-2.5471650457147845
55.862069,,8.438980812504408e-05,56.271,0.46700000762939453,-2.582203318876142
56.327586,,8.674236132960521e-05,56.729,0.49799999594688416,-2.5148563022617605
56.793102999999995,,8.888738658960869e-05,57.197,0.46399998664855957,-2.5891266867558125
57.258621000000005,,9.080827729495855e-05,57.659,0.4959999918937683,-2.5196055606755343
57.724138,,9.248850849095911e-05,58.13,0.49399998784065247,-2.524151469307192
58.189655,,9.391169929717202e-05,58.593,0.48100000619888306,-2.5526494531163775
58.655172,,9.506167750783491e-05,59.063,0.4659999907016754,-2.5854873327254064
59.120689999999996,,9.592254623775759e-05,59.519,0.4690000116825104,-2.579087981437159
59.586207,,9.647875246444106e-05,59.985,0.4729999899864197,-2.570484589316053
60.051724,,9.671515730395628e-05,60.452,0.5170000195503235,-2.4747052331356243
60.517241,,9.661710784491983e-05,60.917,0.4880000054836273,-2.5379338408241523
60.982758999999994,,9.617051035176028e-05,61.382,0.4729999899864197,-2.5706269609695274
61.448276,,9.536190463542997e-05,61.847,0.4729999899864197,-2.57060665139875
61.913793,,9.41785393768347e-05,62.312,0.46399998664855957,-2.59016162854886
62.379310000000004,,9.260844817557974e-05,62.778,0.49000000953674316,-2.5334327129504732
62.84482800000001,,9.064052608421967e-05,63.241,0.5040000081062317,-2.5028179818257477
63.310345000000005,,8.826460637610732e-05,63.704,0.4909999966621399,-2.5309997988235557
63.775862000000004,,8.54715372832198e-05,64.174,0.4690000116825104,-2.5787673017638597
64.241379,,8.225325842905596e-05,64.637,0.4740000069141388,-2.5676951387921623
64.706897,,7.860287667090834e-05,65.1,0.46799999475479126,-2.580577710900017
65.172414,,7.45147410555729e-05,65.57,0.4699999988079071,-2.5760264319991593
65.637931,,6.99845165829328e-05,66.029,0.4860000014305115,-2.5409750004545217
66.103448,,6.500925646289812e-05,66.499,0.4729999899864197,-2.5691107364899746
66.56896599999999,,5.9587472542963354e-05,66.965,0.4690000116825104,-2.5776506968888038
67.03448300000001,,5.371920357621944e-05,67.425,0.48899999260902405,-2.5339205133199516
67.5,,4.740608099308752e-05,67.892,0.4830000102519989,-2.54685657594095
67.965517,,4.0651391834388647e-05,68.356,0.49000000953674316,-2.531495423795063
68.431034,,3.346013849868638e-05,68.821,0.47200000286102295,-2.57062916738531
68.896552,,2.5839094953196677e-05,69.287,0.46399998664855957,-2.588008213658009
69.362069,,1.7796859055009166e-05,69.752,0.49000000953674316,-2.531346495060345
69.827586,,9.343900627962384e-06,70.215,0.49399998784065247,-2.522648113513389
70.293103,,4.92604940317412e-07,70.685,0.47699999809265137,-2.559733422091707
70.75862099999999,,8.742688770568167e-06,71.148,0.4690000116825104,-2.5772422649679063
71.22413800000001,,1.8345654077999937e-05,71.611,0.5080000162124634,-2.4923835014065117
71.689655,,2.8297949797855522e-05,72.078,0.49900001287460327,-2.5121244270240783
72.15517200000001,,3.8579198415240094e-05,72.541,0.4779999852180481,-2.5580297720461385
72.62069,,4.916697084192601e-05,73.006,0.46399998664855957,-2.588701788315628
73.086207,,6.0036777832573314e-05,73.47,0.46399998664855957,-2.5888858855594763
73.551724,,7.11620683781711e-05,73.937,0.47699999809265137,-2.5607552517177297
74.017241,,8.251423538403552e-05,74.404,0.4699999988079071,-2.576199287399041
74.482759,,9.406262892702107e-05,74.87,0.4970000088214874,-2.517564612524992
74.94827599999999,,0.0001057745773723247,75.33,0.4749999940395355,-2.565673057391737
75.41379300000001,,0.00011761541661437024,75.796,0.46299999952316284,-2.591979421279954
75.87931,,0.000129548527688739,76.264,0.46700000762939453,-2.5834077450021815
76.344828,,0.00014153538298295417,76.73,0.4830000102519989,-2.548668085770452
76.810345,,0.0001535356012531292,77.193,0.4690000116825104,-2.5792596548057896
77.275862,,0.00016550701163105646,77.655,0.46399998664855957,-2.590212699427352
77.741379,,0.00017740572678225146,78.123,0.4779999852180481,-2.5597389004618556
78.206897,,0.00018918622534979727,78.585,0.4880000054836273,-2.53794562456391
78.67241399999999,,0.0002008014437915711,79.051,0.503000020980835,-2.5052242380302125
79.137931,,0.00021220287768961363,79.517,0.48399999737739563,-2.546542888127055
79.603448,,0.00022334069258005292,79.982,0.46399998664855957,-2.5900090536057587
80.068966,,0.00023416384432016314,80.448,0.43799999356269836,-2.6465207278049974
80.53448300000001,,0.0002446202089758713,80.914,0.4749999940395355,-2.5657557576991947
81.0,,0.00025465672217838146,81.379,0.46799999475479126,-2.580833382446798
81.465517,,0.0002642195278626287,81.845,0.4699999988079071,-2.576289793225637
81.931034,,0.0002732541362630733,82.304,0.46700000762939453,-2.5826316658713186
82.396552,,0.00028170559100398077,82.77,0.46299999952316284,-2.591150314394716
82.86206899999999,,0.0002895186450818912,83.238,0.4690000116825104,-2.5778863837706267
83.327586,,0.00029663794549755616,83.7,0.47600001096725464,-2.5624531686030947
83.79310299999999,,0.00030300822625331107,84.171,0.46799999475479126,-2.5797142329651597
84.258621,,0.0003085745093897711,84.633,0.492000013589859,-2.527277657470762
84.72413800000001,,0.00031328231369299813,85.094,0.47200000286102295,-2.57072499667384
85.189655,,0.00031707787066001677,85.564,0.4690000116825104,-2.577162689450217
85.65517200000001,,0.0003199083472668807,86.029,0.4650000035762787,-2.5858100703666578
86.12069,,0.0003217220750395543,86.492,0.49399998784065247,-2.5225948070629967
86.586207,,0.00032246878488381437,86.957,0.47999998927116394,-2.5530945826300666
87.051724,,0.0003220998470863526,87.422,0.46799999475479126,-2.5792706072225324
87.517241,,0.0003205685158554228,87.888,0.460999995470047,-2.5945870117586254
87.98275899999999,,0.0003178301777258959,88.353,0.47699999809265137,-2.559826496608662
88.448276,,0.0003138426031106301,88.819,0.5120000243186951,-2.4836997379800967
88.913793,,0.00030856620023780347,89.286,0.4790000021457672,-2.5557448091645862
89.37931,,0.0003019642706724801,89.744,0.4880000054836273,-2.5363063011847164
89.844828,,0.0002940032655803678,90.211,0.4690000116825104,-2.577885533268931
90.310345,,0.00028465304185266646,90.674,0.46299999952316284,-2.591153302859507
90.775862,,0.0002738871171732946,91.142,0.4699999988079071,-2.576104347768777
91.241379,,0.0002616829230738121,91.604,0.4650000035762787,-2.5871989834961546
91.706897,,0.00024802205498722894,92.075,0.46399998664855957,-2.589573029482881
92.17241399999999,,0.00023289051827980506,92.537,0.49000000953674316,-2.533111253757614
92.63793100000001,,0.0002162789692101039,93.003,0.47999998927116394,-2.555062472901171
93.103448,,0.0001981829497371663,93.468,0.48500001430511475,-2.5443101976116775
93.568966,,0.00017860311507492406,93.933,0.4860000014305115,-2.5422446300334314
94.03448300000001,,0.00015754545286807554,94.4,0.48500001430511475,-2.5445047414201256
94.5,,0.0001350214928458006,94.866,0.4690000116825104,-2.5794108290241127
94.965517,,0.00011104850579409347,95.33,0.5189999938011169,-2.4704904279019937
95.431034,,8.564969067533911e-05,95.796,0.4659999907016754,-2.5859341170937986
95.896552,,5.885434871523907e-05,96.26,0.46399998664855957,-2.5902316460743937
96.36206899999999,,3.069804327249323e-05,96.725,0.4790000021457672,-2.5574594781175306
96.827586,,1.2227443059466824e-06,97.186,0.46799999475479126,-2.58130189823458
97.293103,,2.9523043742612046e-05,97.656,0.4699999988079071,-2.5767950856341315
97.758621,,6.148417182399586e-05,98.119,0.4729999899864197,-2.570087224933799
98.224138,,9.459875507718312e-05,98.581,0.4699999988079071,-2.5764336270217676
98.689655,,0.00012879810168960932,99.047,0.49000000953674316,-2.532658632509876
99.155172,,0.0001640066629451407,99.511,0.46700000762939453,-2.582558701694604
99.62069,,0.0002001420055560136,99.977,0.4740000069141388,-2.5670988410669424
100.086207,,0.0002371148073433244,100.444,0.47999998927116394,-2.55382338820526
100.551724,,0.0002748288772938221,100.91,0.46399998664855957,-2.5884898249926738
101.017241,,0.0003131812009787034,101.375,0.47200000286102295,-2.5708862735481017
101.482759,,0.0003520620122727623,101.841,0.47600001096725464,-2.5620200558332122
101.948276,,0.00039135489225954534,102.3,0.47600001096725464,-2.561895384432809
102.413793,,0.0004309368961500741,102.766,0.46799999475479126,-2.579230695440386
102.87931,,0.0004706787089791859,103.234,0.4959999918937683,-2.5181680002713653
103.344828,,0.000510444830774617,103.696,0.46399998664855957,-2.587859273151928
103.810345,,0.0005500937918196132,104.16,0.4729999899864197,-2.5682623354423364
104.275862,,0.0005894783985501427,104.629,0.48100000619888306,-2.5508804130156326
104.741379,,0.0006284460105427647,105.093,0.4650000035762787,-2.5858211272372733
105.206897,,0.0006668388489589354,105.556,0.47200000286102295,-2.5706859955608046
105.672414,,0.0007044943367161242,106.021,0.47200000286102295,-2.570831307593375
106.13793100000001,,0.000741245470555688,106.485,0.47999998927116394,-2.5535729485951264
106.603448,,0.0007769212250721383,106.951,0.47600001096725464,-2.5624786785955944
107.068966,,0.0008113469886584266,107.415,0.4699999988079071,-2.5757567594472763
107.534483,,0.0008443450312073443,107.881,0.47200000286102295,-2.5716148796482146
108.0,,0.0008757350032903097,108.348,0.46399998664855957,-2.5892627136299846
108.46551699999999,,0.0009053344664119334,108.814,0.45100000500679016,-2.6178009853620696
108.931034,,0.0009329594538120847,109.278,0.47200000286102295,-2.5722563438715866
109.396552,,0.0009584250611570236,109.744,0.48500001430511475,-2.5441250014843986
109.862069,,0.000981546066327813,110.204,0.5009999871253967,-2.5094349854871334
110.32758600000001,,0.0010021375773780585,110.674,0.4699999988079071,-2.5771132316106384
110.793103,,0.0010200157075943802,111.137,0.47600001096725464,-2.5641497810774356
111.258621,,0.0010349982764523095,111.6,0.4779999852180481,-2.5598663283098673
111.724138,,0.0010469055351179266,112.071,0.46399998664855957,-2.5904042816807116
112.189655,,0.0010555609150019781,112.533,0.4749999940395355,-2.5664381106330953
112.655172,,0.0010607917977288762,112.999,0.49000000953674316,-2.53371887964618
113.12069,,0.0010624303047383904,113.464,0.46799999475479126,-2.581571938065057
113.586207,,0.0010603141045935004,113.929,0.47200000286102295,-2.57274487007074
114.051724,,0.0010542872359243125,114.389,0.4650000035762787,-2.587851338715948
114.51724100000001,,0.0010442009437957142,114.855,0.48399999737739563,-2.5462852716929025
114.982759,,0.0010299145271461187,115.319,0.4650000035762787,-2.5874849005717997
115.448276,,0.0010112961948068205,115.785,0.47200000286102295,-2.5720225860237513
115.913793,,0.000988223927476755,116.259,0.43799999356269836,-2.6458747269615768
116.37931,,0.0009605863428964398,116.718,0.40799999237060547,-2.7110102366881788
116.84482799999999,,0.000928283561338219,117.186,0.46700000762939453,-2.5822510409187407
117.310345,,0.0008912280684082891,117.648,0.46700000762939453,-2.5820419132974357
117.77586199999999,,0.0008493455720400006,118.112,0.4699999988079071,-2.5753113934531604
118.241379,,0.0008025758504482548,118.574,0.4729999899864197,-2.568600810774845
118.70689700000001,,0.0007508735877121266,119.04,0.46700000762939453,-2.5815229219945266
119.172414,,0.0006942091935578399,119.51,0.48100000619888306,-2.5509012504735953
119.63793100000001,,0.0006325696038276099,119.976,0.4659999907016754,-2.5834930109835157
120.103448,,0.0005659590580422807,120.434,0.46399998664855957,-2.587797861565858
120.568966,,0.0004943998503977219,120.9,0.4699999988079071,-2.5747109288820735
121.034483,,0.0004179330504772652,121.364,0.4950000047683716,-2.5202670520771724
121.5,,0.00033661918991592616,121.83,0.4659999907016754,-2.5835066908968902
121.96551699999999,,0.00025053891121754507,122.297,0.492000013589859,-2.526955615765232
122.431034,,0.00015979357490363921,122.762,0.4690000116825104,-2.5771910319434106
122.896552,,6.450582116279997e-05,123.23,0.4749999940395355,-2.564275171123532
123.362069,,3.517991782732226e-05,123.692,0.4830000102519989,-2.5470272939944456
123.827586,,0.00013909695871525132,124.156,0.43799999356269836,-2.6452687269016124
124.293103,,0.0002470559647037425,124.626,0.4699999988079071,-2.5757702932066606
124.758621,,0.00035884460391751315,125.086,0.4729999899864197,-2.5694623546609936
125.22413800000001,,0.00047422727207645346,125.555,0.4830000102519989,-2.5479060820786925
125.68965500000002,,0.0005929448830644011,126.014,0.46299999952316284,-2.5917049992698393
126.15517200000001,,0.0007147147308855358,126.485,0.47600001096725464,-2.563597917018459
126.62069000000001,,0.0008392304263779801,126.95,0.503000020980835,-2.5049723691332835
127.086207,,0.0009661619119203835,127.415,0.503000020980835,-2.505145974049997
127.55172400000001,,0.0010951555572361864,127.874,0.4410000145435333,-2.6403670418396814
128.017241,,0.001225834339255514,128.341,0.46700000762939453,-2.5838357616520646
128.48275900000002,,0.0013577981087936754,128.807,0.46799999475479126,-2.58173626815492
128.948276,,0.0014906239465473754,129.272,0.47200000286102295,-2.573063240649028
129.413793,,0.0016238666106816366,129.738,0.4790000021457672,-2.557814995710387
129.87931,,0.0017570590781524516,130.2,0.503000020980835,-2.505489254017886
130.344828,,0.001889713181760202,130.67,0.4749999940395355,-2.5664132786916976
130.81034499999998,,0.0020213203445149396,131.131,0.47600001096725464,-2.5641188789092766
131.275862,,0.0021513524122750943,131.6,0.4699999988079071,-2.5770413002168806
131.741379,,0.002279262585340628,132.06,0.47999998927116394,-2.5550756610546057
132.206897,,0.0024044864500550123,132.53,0.49000000953674316,-2.5330848158759403
132.67241399999997,,0.0025264431116299485,132.996,0.492000013589859,-2.5285031986663227
133.13793099999998,,0.0026445364280136617,133.456,0.4699999988079071,-2.576195728744801
133.60344800000001,,0.002758156342395331,133.922,0.4429999887943268,-2.634776133391751
134.06896600000002,,0.0028666803122014113,134.385,0.46399998664855957,-2.5887840269027644
134.53448300000002,,0.002969474836374035,134.851,0.4659999907016754,-2.5841955139877593
135.0,,0.0030658970844299137,135.316,0.4699999988079071,-2.575265079063458
135.465517,,0.003155296623151732,135.782,0.4880000054836273,-2.5358546536446926
135.931034,,0.0032370172262055174,136.245,0.4690000116825104,-2.5770806187487016
136.396552,,0.0033103987583062585,136.715,0.46399998664855957,-2.5878373508860593
136.862069,,0.0033747791513188616,137.178,0.4729999899864197,-2.5681291647416757
137.327586,,0.003429496496205744,137.641,0.4779999852180481,-2.5571745353153714
137.793103,,0.0034738912259261565,138.104,0.45899999141693115,-2.598548352025006
138.258621,,0.0035073083109993493,138.574,0.47999998927116394,-2.5528181155177254
138.724138,,0.0035290994461546995,139.04,0.4729999899864197,-2.5681312345242193
139.189655,,0.0035386253604565454,139.502,0.4790000021457672,-2.555161233437284
139.655172,,0.0035352583884295827,139.968,0.46700000762939453,-2.581443687485053
140.12069,,0.0035183851261545245,140.433,0.4729999899864197,-2.5685437001759253
140.586207,,0.003487408734558441,140.899,0.4050000011920929,-2.716893397606131
141.05172399999998,,0.0034417508870334458,141.363,0.4869999885559082,-2.5384706794883143
141.51724099999998,,0.0033808542426186643,141.828,0.5770000219345093,-2.3426336184159906
141.982759,,0.0033041861359189013,142.294,0.492000013589859,-2.5280649962508623
142.44827600000002,,0.0032112422043952134,142.759,0.47600001096725464,-2.5631691442488878
142.913793,,0.0031015474916355743,143.223,0.47200000286102295,-2.5721244710942215
143.37931,,0.0029746556733178217,143.685,0.4749999940395355,-2.565817841168368
143.844828,,0.0028301519615358288,144.149,0.47699999809265137,-2.5616718603890565
144.310345,,0.002667662767094851,144.618,0.47200000286102295,-2.5727523949913063
144.77586200000002,,0.0024868631293995715,145.082,0.503000020980835,-2.5053716909075927
145.241379,,0.002287468386137775,145.544,0.4699999988079071,-2.5773897785899447
145.706897,,0.0020692177537671485,146.01,0.5019999742507935,-2.5077572938311756
146.172414,,0.0018318837293570364,146.474,0.47699999809265137,-2.5622667131093064
146.637931,,0.0015753185647270393,146.939,0.4659999907016754,-2.5862333059383418
147.103448,,0.0012994770329156117,147.404,0.47699999809265137,-2.562228268639682
147.568966,,0.001004343842223423,147.869,0.4659999907016754,-2.586113188061244
148.034483,,0.0006898334998125767,148.341,0.46399998664855957,-2.590352212248166
148.5,,0.0003558640026369364,148.799,0.4699999988079071,-2.5771272508944922
148.965517,,2.625547753941832e-06,149.264,0.47600001096725464,-2.5638713145686696
149.43103399999998,,0.00036935294370538764,149.73,0.4959999918937683,-2.520087624342671
149.89655199999999,,0.0007596999386778289,150.2,0.47600001096725464,-2.5634283382211818
150.362069,,0.0011687308386139116,150.663,0.4659999907016754,-2.584968118191602
150.82758600000003,,0.0015968476716967952,151.126,0.4779999852180481,-2.558570426113211
151.293103,,0.00204296918555061,151.589,0.48500001430511475,-2.5430654385889784
151.758621,,0.0025045112134881443,152.06,0.49000000953674316,-2.5319239228024704
152.224138,,0.002980597890488153,152.522,0.4740000069141388,-2.56654715972685
152.68965500000002,,0.0034746628247960603,152.988,0.47600001096725464,-2.5619750296374924
153.155172,,0.00398992071661408,153.452,0.47200000286102295,-2.5705016788860657
153.62069,,0.004520406747679652,153.918,0.4659999907016754,-2.58341822504284
154.086207,,0.005053141142324804,154.385,0.48100000619888306,-2.5506203022099987
154.551724,,0.005588282514142663,154.851,0.46299999952316284,-2.589758553429432
155.017241,,0.00615075510639029,155.315,0.47600001096725464,-2.561401944936853
155.482759,,0.006758085985520979,155.774,0.4699999988079071,-2.574484229997141
155.948276,,0.007370843910551967,156.242,0.492000013589859,-2.526608333538641
156.413793,,0.00791924390736559,156.704,0.47200000286102295,-2.5702782169715506
156.87931,,0.008426283709404233,157.175,0.46299999952316284,-2.5900234433727847
157.34482799999998,,0.009051261945198329,157.637,0.4659999907016754,-2.583662418646354
157.81034499999998,,0.009871276741560188,158.1,0.48500001430511475,-2.5424754261337537
158.275862,,0.010617432082731434,158.57,0.4410000145435333,-2.638570224974668
158.741379,,0.010913921428671515,159.029,0.4650000035762787,-2.586538051462271
159.20689700000003,,0.011012413098475948,159.499,0.4860000014305115,-2.5410552760723975
159.672414,,0.01188913499604931,159.964,0.4790000021457672,-2.556579368122236
160.137931,,0.013808535781821207,160.43,0.47200000286102295,-2.5721003065078754
160.60344800000001,,0.01492072072899197,160.896,0.5109999775886536,-2.4873921485447172
161.06896600000002,,0.012881047227508916,161.356,0.47200000286102295,-2.572599131760271
161.534483,,0.008816154748913523,161.822,0.4749999940395355,-2.5662772456246095
162.0,,0.007963067605384599,162.289,0.4779999852180481,-2.5599239924603427
162.465517,,0.01430771568279557,162.755,0.46399998664855957,-2.590571083944629
162.931034,,0.02559080616435957,163.215,0.48899999260902405,-2.536209786642707
163.396552,,0.03558030340599382,163.685,0.47200000286102295,-2.5733070858431697
163.862069,,0.040330364835824854,164.148,0.46700000762939453,-2.5842142172940465
164.327586,,0.04034155094999251,164.611,0.47999998927116394,-2.555858907988778
164.793103,,0.03756567448382728,165.075,0.4729999899864197,-2.571030122163952
165.258621,,0.03259435673133139,165.544,0.4699999988079071,-2.5774423532643973
165.72413799999998,,0.0250841042954336,166.01,0.4790000021457672,-2.557669767704957
166.189655,,0.015615981373586735,166.474,0.46799999475479126,-2.5814335257574514
166.655172,,0.00610640984870422,166.94,0.46799999475479126,-2.581201230334285
167.12069,,0.0018901162892273917,167.404,0.47099998593330383,-2.5744087006279006
167.58620699999997,,0.008822681973080436,167.869,0.4699999988079071,-2.5763134914339125
168.051724,,0.01613675564997318,168.333,0.46399998664855957,-2.589102153444738
168.517241,,0.023496620189873006,168.799,0.47099998593330383,-2.573567055289789
168.98275900000002,,0.028277258039568355,169.264,0.46399998664855957,-2.588539835992783
169.44827600000002,,0.02869954901966021,169.73,0.48100000619888306,-2.55123956244817
169.913793,,0.02658580056691206,170.193,0.48899999260902405,-2.5335687229925794
170.37931,,0.025788207675966297,170.655,0.4659999907016754,-2.5834643815753164
170.844828,,0.02802879571527316,171.119,0.47600001096725464,-2.5614998186793523
171.310345,,0.031119656868605294,171.589,0.492000013589859,-2.526503788825828
171.775862,,0.03143336682634613,172.055,0.4749999940395355,-2.5634474374307543
172.241379,,0.027716875980726675,172.518,0.4790000021457672,-2.5546869356526702
172.706897,,0.022360712120603633,172.984,0.4749999940395355,-2.5634052062485773
173.172414,,0.019158581115454678,173.445,0.460999995470047,-2.593960184023123
173.637931,,0.01987612157029372,173.91,0.4560000002384186,-2.6049571475378555
174.103448,,0.02276378443338101,174.375,0.4779999852180481,-2.5571779366203162
174.568966,,0.024236363913958073,174.841,0.4690000116825104,-2.576979537452277
175.034483,,0.02204026405911558,175.308,0.4880000054836273,-2.5358161216809183
175.5,,0.016944999656808707,175.774,0.4790000021457672,-2.55568522714918
175.96551699999998,,0.011730127980539457,176.237,0.4790000021457672,-2.5559695261521895
176.43103399999998,,0.008991579057971117,176.7,0.45899999141693115,-2.599842416588752
176.896552,,0.009719050485803354,177.171,0.4699999988079071,-2.5761847386767363
177.36206900000002,,0.012957454048582857,177.634,0.48100000619888306,-2.5525255716613646
177.827586,,0.016232395709088923,178.097,0.4790000021457672,-2.5571779083906945
178.293103,,0.016970677250337206,178.559,0.4699999988079071,-2.577061212804094
178.758621,,0.014453327610764063,179.025,0.48399999737739563,-2.5468079589857817
179.224138,,0.010485976952934168,179.496,0.48500001430511475,-2.544841680279923
179.68965500000002,,0.007849654942254942,179.954,0.49300000071525574,-2.5275825932946114
180.155172,,0.008069367591384581,180.42,0.48100000619888306,-2.553848764838519
180.62069,,0.010644152272856323,180.885,0.48100000619888306,-2.5539198743976863
181.086207,,0.013994851695216845,181.353,0.4650000035762787,-2.5887961898012963
181.551724,,0.01669098399346815,181.818,0.4650000035762787,-2.5887606139754644
182.01724099999998,,0.017976516163960152,182.283,0.4650000035762787,-2.5886724542158537
182.482759,,0.018104024315885446,182.748,0.46399998664855957,-2.590712530356802
182.948276,,0.018737541006820735,183.211,0.48399999737739563,-2.5469536933055283
183.413793,,0.021970349219105054,183.674,0.46299999952316284,-2.592476890140869
183.87931,,0.027492652348637157,184.145,0.4779999852180481,-2.5595325042657735
184.34482799999998,,0.03124098762813971,184.607,0.46399998664855957,-2.5897400875501795
184.81034499999998,,0.02857831585582895,185.075,0.46399998664855957,-2.5894262262246337
185.27586200000002,,0.01881837583813398,185.537,0.4909999966621399,-2.5302770891035915
185.74137900000002,,0.0050988070176139315,186.003,0.47600001096725464,-2.562628053700266
186.206897,,0.010096333524122088,186.467,0.5019999742507935,-2.505660419418792
186.672414,,0.027215169156741638,186.932,0.47200000286102295,-2.5707122259300483
187.137931,,0.04668262328609636,187.396,0.492000013589859,-2.526856229721601
187.60344800000001,,0.06545244757264594,187.862,0.45500001311302185,-2.607216920589805
188.06896600000002,,0.07833510891967149,188.326,0.4749999940395355,-2.563436579397254
188.534483,,0.08259808594582943,188.792,0.4790000021457672,-2.5545628526667827
189.0,,0.08005745771260406,189.26,0.49399998784065247,-2.5217766439190052
189.465517,,0.074225205876296,189.725,0.47600001096725464,-2.5609417461014954
189.931034,,0.0662147892027421,190.186,0.47999998927116394,-2.5522350254418953
190.39655199999999,,0.05442797165993877,190.656,0.421999990940094,-2.6786645387857484
190.862069,,0.03794846100147021,191.116,0.46399998664855957,-2.587289094016118
191.327586,,0.018607589859575693,191.585,0.4690000116825104,-2.5765797519965745
191.793103,,0.001189500775455659,192.051,0.4819999933242798,-2.5484912816068435
192.25862099999998,,0.02139323738302048,192.516,0.47699999809265137,-2.559661444527821
192.72413799999998,,0.043430739925678315,192.974,0.47200000286102295,-2.57086683398032
193.189655,,0.06706101719096848,193.441,0.4909999966621399,-2.5298109059675893
193.655172,,0.09026260696061686,193.907,0.4729999899864197,-2.569381203636048
194.12069000000002,,0.11262748464061631,194.371,0.4869999885559082,-2.5392406659744653
194.586207,,0.13665497711499824,194.836,0.46700000762939453,-2.58316973435752
195.051724,,0.16354428526685916,195.304,0.47699999809265137,-2.5617247438263604
195.517241,,0.18757430020043045,195.77,0.4650000035762787,-2.5881853983149563
195.98275900000002,,0.19553502232169656,196.23,0.4699999988079071,-2.5775750387296745
196.448276,,0.17238234978074055,196.7,0.4819999933242798,-2.551671289774022
196.913793,,0.10882417972963505,197.16,0.4860000014305115,-2.5431457606797925
197.37931,,0.0070261918285293105,197.629,0.4790000021457672,-2.5585281677871783
197.844828,,0.11638253188334824,198.093,0.4830000102519989,-2.5498839280371044
198.310345,,0.2317132053740159,198.555,0.47600001096725464,-2.565140882106852
198.775862,,0.3056685426199542,199.021,0.46399998664855957,-2.5912268749563188
199.241379,,0.3174227428749187,199.485,0.4860000014305115,-2.5431757968872666
199.706897,,0.2707879650428398,199.95,0.47200000286102295,-2.573495918128865
200.172414,,0.19139776613571313,200.415,0.49399998784065247,-2.5253290569225313
200.63793099999998,,0.10993105747192967,200.88,0.4880000054836273,-2.538114765876163
201.103448,,0.04559338219378049,201.345,0.4790000021457672,-2.5573950172636053
201.568966,,0.0033964531581460507,201.811,0.4819999933242798,-2.5504998578832807
202.034483,,0.016880103529202346,202.278,0.4779999852180481,-2.558834196760358
202.5,,0.014759300053038233,202.744,0.4880000054836273,-2.536657420759255
202.965517,,0.006403864444354422,203.205,0.46700000762939453,-2.582020510595202
203.431034,,0.03416337147479839,203.675,0.4950000047683716,-2.5206431920739667
203.896552,,0.05250403986219658,204.137,0.4699999988079071,-2.5747588125557876
204.36206900000002,,0.05355803812579021,204.6,0.4729999899864197,-2.5679078207216546
204.827586,,0.04139640624809976,205.068,0.46399998664855957,-2.5872463937572676
205.293103,,0.024395371478219085,205.53,0.46700000762939453,-2.580495526580526
205.758621,,0.006880638354467434,205.996,0.4749999940395355,-2.5629126078925353
206.224138,,0.010940487824785124,206.463,0.47600001096725464,-2.5606459282415197
206.689655,,0.028074447974351744,206.929,0.4950000047683716,-2.5192319127640643
207.155172,,0.04106053841063705,207.393,0.49000000953674316,-2.530174193742505
207.62069,,0.04719994045846016,207.859,0.4560000002384186,-2.604365594598247
208.086207,,0.04785416182539919,208.319,0.47999998927116394,-2.5522615420192487
208.551724,,0.04781540541256972,208.785,0.48100000619888306,-2.5503272873288876
209.01724099999998,,0.05127341543064402,209.256,0.42399999499320984,-2.6748093947073044
209.482759,,0.057996010649134434,209.714,0.47200000286102295,-2.5705805770260226
209.948276,,0.06346439244840282,210.185,0.47999998927116394,-2.553534073991517
210.413793,,0.063264790033463,210.648,0.43799999356269836,-2.6454445765584125
210.87930999999998,,0.05731559310309286,211.116,0.49799999594688416,-2.5151456009777404
211.344828,,0.04942257627823571,211.577,0.46299999952316284,-2.591817605108026
211.810345,,0.043270849207372133,212.043,0.46399998664855957,-2.590045047585927
212.27586200000002,,0.03987339068749518,212.506,0.47600001096725464,-2.5642820463013316
212.741379,,0.038476637026717816,212.971,0.40700000524520874,-2.714953573404922
213.206897,,0.038127115073347574,213.441,0.4830000102519989,-2.5496749934878213
213.672414,,0.03775493905905372,213.899,0.46299999952316284,-2.5934901560395667
214.137931,,0.036356579189426114,214.371,0.4790000021457672,-2.558808453557799
214.60344800000001,,0.034260106147977656,214.829,0.4950000047683716,-2.5240548294576612
215.068966,,0.03292714499619175,215.296,0.48500001430511475,-2.5458696732105346
215.534483,,0.032287494905011344,215.762,0.49000000953674316,-2.5349269713800884
216.0,,0.029653996948909262,216.23,0.5,-2.513013993539857
216.465517,,0.022899237332319224,216.692,0.4729999899864197,-2.5716374243576854
216.93103399999998,,0.013672292705392358,217.16,0.48500001430511475,-2.5452261446195785
217.39655199999999,,0.005810120171249593,217.622,0.4749999940395355,-2.566685989678854
217.862069,,0.0012677586777336222,218.09,0.47099998593330383,-2.575024571471008
218.327586,,0.0008366994462303159,218.552,0.46399998664855957,-2.589861469383887
218.793103,,0.0017227974871284735,219.017,0.46700000762939453,-2.5828869680237254
219.25862099999998,,0.0014397473575659037,219.484,0.47600001096725464,-2.562828882322301
219.724138,,0.0002287754977187929,219.95,0.4819999933242798,-2.549308265654096
220.18965500000002,,0.0002811852095145847,220.415,0.47200000286102295,-2.570660990336298
220.65517200000002,,0.0014039287663806482,220.874,0.4620000123977661,-2.592042545561423
221.12069,,0.004539347757354101,221.341,0.4729999899864197,-2.567714280515271
221.586207,,0.006788289815876713,221.806,0.4519999921321869,-2.6131559869842524
222.051724,,0.006767638779630507,222.271,0.46399998664855957,-2.586765640764048
222.517241,,0.004977461061984159,222.737,0.4779999852180481,-2.556088864057738
222.98275900000002,,0.0025527882794731515,223.205,0.49000000953674316,-2.529844932504939
223.448276,,0.00045020876957207285,223.667,0.47600001096725464,-2.5603245144214757
223.913793,,0.00013503580801724083,224.13,0.4699999988079071,-2.5734549977994745
224.37931,,0.0017687105444209117,224.6,0.4230000078678131,-2.6759901259052574
224.844828,,0.005193095705166971,225.063,0.4909999966621399,-2.528057467972374
225.31034499999998,,0.007251336200592298,225.526,0.4909999966621399,-2.5283418560125637
225.775862,,0.0062070749407948074,225.992,0.4620000123977661,-2.5918668503452706
226.241379,,0.004061134426806221,226.456,0.47600001096725464,-2.561760374511986
226.706897,,0.004965118766782784,226.923,0.48100000619888306,-2.551300272708495
227.172414,,0.010884910394550543,227.389,0.4690000116825104,-2.5779024433543563
227.63793099999998,,0.01920048690188967,227.855,0.4699999988079071,-2.576193940168333
228.103448,,0.024768663610757618,228.315,0.48500001430511475,-2.543981625309315
228.56896600000002,,0.024514947685961505,228.781,0.46399998664855957,-2.590183649704939
229.03448300000002,,0.020030447205389282,229.249,0.4790000021457672,-2.557923483993464
229.5,,0.015407805354501532,229.711,0.4860000014305115,-2.543048576096988
229.965517,,0.01284848229833956,230.174,0.4790000021457672,-2.5586187111308765
230.431034,,0.011398348819364804,230.645,0.4819999933242798,-2.552336418741552
230.896552,,0.009890623708538026,231.108,0.4620000123977661,-2.59608942830128
231.362069,,0.009349607890009678,231.57,0.4740000069141388,-2.5700468165801427
231.827586,,0.011402365636026325,232.036,0.4860000014305115,-2.54392157915472
232.293103,,0.015398631067148581,232.499,0.47999998927116394,-2.556927929932646
232.758621,,0.018496330548797617,232.964,0.4950000047683716,-2.5240998409763433
233.224138,,0.018382360662550175,233.43,0.4699999988079071,-2.5783392405069505
233.689655,,0.0150326683585428,233.895,0.47600001096725464,-2.5649691194600077
234.155172,,0.010075782007613037,234.361,0.49399998784065247,-2.5253926758363385
234.62069,,0.005463230679396057,234.826,0.46700000762939453,-2.583803256803638
235.086207,,0.002673374446834028,235.293,0.46799999475479126,-2.5811727221252174
235.55172399999998,,0.002032166974446941,235.759,0.4909999966621399,-2.530586570367742
236.01724099999998,,0.0025367159525949484,236.219,0.4749999940395355,-2.5649563554867276
236.482759,,0.003254014619558862,236.689,0.47200000286102295,-2.571007405684477
236.94827600000002,,0.005068301119165509,237.152,0.46399998664855957,-2.587970891419474
237.413793,,0.010082604332648456,237.614,0.492000013589859,-2.5265361805346833
237.87931,,0.018869952314939573,238.082,0.48399999737739563,-2.543578792406277
238.344828,,0.0289937941371998,238.545,0.47699999809265137,-2.558500477321865
238.810345,,0.03683032187034342,239.01,0.4699999988079071,-2.5734907563967924
239.27586200000002,,0.04059923390958464,239.474,0.47999998927116394,-2.5515210575978022
239.741379,,0.041059179426875536,239.94,0.4580000042915344,-2.599351193510534
240.206897,,0.039439195577356034,240.408,0.4790000021457672,-2.5535861828000703
240.672414,,0.035835329364220944,240.874,0.4790000021457672,-2.553659882364096
241.137931,,0.030138545816781003,241.341,0.44699999690055847,-2.6235357092286877
241.603448,,0.02318287166547305,241.799,0.47999998927116394,-2.5518806842498982
242.068966,,0.01567371022214845,242.264,0.46399998664855957,-2.5870533603949695
242.534483,,0.006986868761395762,242.73,0.47999998927116394,-2.5525734201164747
243.0,,0.0033875917836009434,243.2,0.4740000069141388,-2.566076300020769
243.465517,,0.01391772314590197,243.663,0.49799999594688416,-2.514258750938578
243.93103399999998,,0.022325167703714035,244.131,0.4729999899864197,-2.5692193905378726
244.39655199999999,,0.028643129902658222,244.593,0.4860000014305115,-2.5414009014133283
244.862069,,0.03539014988362792,245.064,0.4729999899864197,-2.570221772687476
245.327586,,0.04458051096335858,245.526,0.4699999988079071,-2.5772355926977464
245.793103,,0.05621917169680446,245.984,0.47999998927116394,-2.555891999848129
246.258621,,0.07046023595177478,246.449,0.49000000953674316,-2.5344991769963525
246.724138,,0.08952320028028596,246.915,0.47200000286102295,-2.574047021652062
247.18965500000002,,0.11510694390544969,247.382,0.5149999856948853,-2.4806250759586295
247.655172,,0.1431157140395663,247.848,0.47699999809265137,-2.563592760147908
248.12069,,0.1617835265073364,248.312,0.49000000953674316,-2.5353631751802377
248.586207,,0.1565626781165277,248.778,0.4909999966621399,-2.533188480337249
249.051724,,0.11895160078889322,249.241,0.46000000834465027,-2.6006415777724325
249.517241,,0.053140162504716724,249.711,0.41200000047683716,-2.705047301668747
249.982759,,0.02403089863869654,250.171,0.47200000286102295,-2.574080650512647
250.44827600000002,,0.09024278544598074,250.641,0.4729999899864197,-2.5715820132885256
250.913793,,0.12828457090604836,251.101,0.49000000953674316,-2.5341605654877073
251.37931000000003,,0.13350688230677932,251.57,0.47699999809265137,-2.562045330735696
251.844828,,0.11325361845408273,252.029,0.4790000021457672,-2.557210224984569
252.31034499999998,,0.08001144296999294,252.499,0.4699999988079071,-2.576314888530683
252.77586200000002,,0.04471314998381006,252.965,0.4699999988079071,-2.575801806102901
253.241379,,0.014215053985377896,253.429,0.46799999475479126,-2.579651878451317
253.706897,,0.0078039577545982244,253.895,0.48500001430511475,-2.5421285678494807
254.172414,,0.019021171474701476,254.359,0.46399998664855957,-2.587429637770226
254.63793099999998,,0.018030202839962848,254.825,0.4880000054836273,-2.5347407947779144
255.10344800000001,,0.006022446550842294,255.29,0.46799999475479126,-2.5779741840459303
255.56896600000002,,0.01200031060980042,255.755,0.44200000166893005,-2.634352321197097
256.03448299999997,,0.029439075955728627,256.219,0.4740000069141388,-2.564450755284501
256.5,,0.04175804345857931,256.681,0.4790000021457672,-2.5534597020415486
256.965517,,0.04712345416902169,257.145,0.4429999887943268,-2.6318833178306513
257.431034,,0.044475623987613615,257.614,0.4429999887943268,-2.6319672664045832
257.896552,,0.033545337278044325,258.075,0.46399998664855957,-2.586389228148564
258.362069,,0.017216224290166015,258.545,0.4869999885559082,-2.5365371656271827
258.827586,,0.0013760269601604835,259.01,0.4779999852180481,-2.5564763947484757
259.29310300000003,,0.009598268590700452,259.474,0.48100000619888306,-2.5503361854789097
259.758621,,0.01654645313761152,259.939,0.44699999690055847,-2.624859263690571
260.224138,,0.02343138565704973,260.405,0.492000013589859,-2.5273090417979933
260.689655,,0.032054805730464445,260.87,0.47699999809265137,-2.560502353106963
261.155172,,0.0400162957898199,261.33,0.4659999907016754,-2.5849899566745025
261.62068999999997,,0.04357386899268963,261.796,0.47200000286102295,-2.5724341571357945
262.086207,,0.041426721597316425,262.264,0.4869999885559082,-2.540248303481316
262.551724,,0.03545314877230211,262.729,0.4779999852180481,-2.560312242179668
263.017241,,0.027965402716784105,263.193,0.49000000953674316,-2.5345726988584105
263.482759,,0.018434461442047367,263.656,0.47200000286102295,-2.5741286833603314
263.94827599999996,,0.003631296975560729,264.119,0.4740000069141388,-2.5700377070237597
264.413793,,0.01823638806964991,264.589,0.47099998593330383,-2.576758277560313
264.87931,,0.04371873812487181,265.055,0.47699999809265137,-2.563783479221116
265.34482799999995,,0.06514236216956006,265.519,0.48899999260902405,-2.5376459479364257
265.810345,,0.07607061282867102,265.984,0.48899999260902405,-2.537560479358214
266.27586199999996,,0.07644241179703076,266.444,0.4790000021457672,-2.559172243573215
266.741379,,0.07241558809346943,266.91,0.4650000035762787,-2.5894152562819808
267.206897,,0.07032236016167072,267.374,0.49000000953674316,-2.5346155824037675
267.672414,,0.07023597160052368,267.84,0.5339999794960022,-2.438354851131764
268.137931,,0.06583608233544175,268.308,0.49900001287460327,-2.514151133993523
268.603448,,0.05100125589493623,268.774,0.47699999809265137,-2.5615837483299564
269.06896600000005,,0.026691117307517137,269.234,0.47200000286102295,-2.571954738871597
269.53448299999997,,0.00141840523883152,269.704,0.4779999852180481,-2.55835255316826
270.0,,0.015525912835360813,270.167,0.45899999141693115,-2.599224897506202
270.465517,,0.02194236983545451,270.63,0.4729999899864197,-2.568226457119891
270.931034,,0.02357414933873046,271.1,0.4819999933242798,-2.548160696824171
271.396552,,0.026783960256070754,271.563,0.46399998664855957,-2.5869716061540484
271.86206899999996,,0.031555555726678154,272.028,0.47200000286102295,-2.5692033643292476
272.327586,,0.03304172695863742,272.491,0.4749999940395355,-2.5624044655540685
272.793103,,0.02895085797732322,272.958,0.5019999742507935,-2.5034012345467898
273.258621,,0.02300409354248137,273.422,0.4880000054836273,-2.5338103552217426
273.724138,,0.02056688901736317,273.888,0.47999998927116394,-2.5512384744316003
274.18965499999996,,0.022567751989985257,274.353,0.4699999988079071,-2.5731154153799367
274.655172,,0.02506361073378067,274.818,0.49000000953674316,-2.5297218651984625
275.12069,,0.024249940411463878,275.286,0.45399999618530273,-2.6084163760192616
275.586207,,0.02064074492656775,275.744,0.46700000762939453,-2.58043339833958
276.051724,,0.017985226061654674,276.212,0.4650000035762787,-2.5851964421249596
276.517241,,0.018768487516835453,276.674,0.5009999871253967,-2.5072238484390663
276.98275900000004,,0.02157603928341672,277.144,0.47600001096725464,-2.5621869136741946
277.448276,,0.022907036123363537,277.607,0.4729999899864197,-2.56924308807047
277.913793,,0.020774322803886063,278.075,0.492000013589859,-2.5283765370637448
278.37931,,0.016146881650561218,278.537,0.47999998927116394,-2.555039350929536
278.844828,,0.011781997896723044,279.003,0.4690000116825104,-2.5794990417706076
279.31034500000004,,0.010366358955338289,279.467,0.4749999940395355,-2.5668828786180145
279.77586199999996,,0.012828650508253596,279.932,0.4779999852180481,-2.5607497867059124
280.241379,,0.01725115762926441,280.397,0.4790000021457672,-2.5589085616063425
280.706897,,0.0198155183259592,280.863,0.46299999952316284,-2.594028960694386
281.172414,,0.01798115898162923,281.33,0.47600001096725464,-2.5658853879472012
281.637931,,0.013091189553639568,281.795,0.4620000123977661,-2.596476848786858
282.10344799999996,,0.009352246453797064,282.26,0.4880000054836273,-2.539830834241211
282.568966,,0.00973384262215911,282.725,0.46799999475479126,-2.5833108088117265
283.034483,,0.0129874332757785,283.186,0.48100000619888306,-2.554806220321582
283.5,,0.015209927500065628,283.655,0.4650000035762787,-2.5893990787025785
283.965517,,0.014172651365561376,284.116,0.5149999856948853,-2.4801251624117215
284.431034,,0.01122840947142349,284.585,0.47200000286102295,-2.573399189994539
284.89655200000004,,0.00884017837567603,285.044,0.45100000500679016,-2.618690099696252
285.362069,,0.007293462910879443,285.514,0.46700000762939453,-2.5833334560021113
285.827586,,0.004679908116355946,285.98,0.503000020980835,-2.5043805626341125
286.293103,,0.00011089903335564563,286.445,0.4729999899864197,-2.5692101653933808
286.758621,,0.005232542232720584,286.91,0.48100000619888306,-2.551259006293712
287.22413800000004,,0.007472052230885431,287.375,0.47600001096725464,-2.5616546228587493
287.689655,,0.0060048518360033346,287.834,0.4729999899864197,-2.5677326175958832
288.155172,,0.003660227423908831,288.3,0.4339999854564667,-2.652296520115344
288.62069,,0.003807501683689648,288.766,0.4779999852180481,-2.5561001217403487
289.086207,,0.006577582486147408,289.23,0.4690000116825104,-2.575449155489974
289.55172400000004,,0.00897284864196795,289.7,0.4819999933242798,-2.5469522199086705
290.01724099999996,,0.008368084009640873,290.16,0.4779999852180481,-2.5555815728458104
290.482759,,0.0050582039219039445,290.63,0.4860000014305115,-2.5381587048601806
290.948276,,0.0015029601922018955,291.093,0.4880000054836273,-2.5338989398808827
291.413793,,2.157235558547082e-05,291.556,0.43799999356269836,-2.6430179275526777
291.87931,,0.0010824426969113063,292.021,0.46399998664855957,-2.5866442233410303
292.344828,,0.0036025839744248077,292.485,0.4880000054836273,-2.5347036804224254
292.81034500000004,,0.005416607454145046,292.95,0.492000013589859,-2.526400015101647
293.275862,,0.005252080505830278,293.415,0.45899999141693115,-2.5987578047137294
293.74137900000005,,0.004046507899048469,293.881,0.49799999594688416,-2.5142905204026835
294.206897,,0.004063330349732448,294.349,0.3959999978542328,-2.737036365122701
294.672414,,0.0063601070440340675,294.815,0.47600001096725464,-2.563277230877336
295.13793100000004,,0.009571908480463217,295.275,0.43799999356269836,-2.6465912891441525
295.603448,,0.011314899024481899,295.74,0.47200000286102295,-2.5730181968673005
296.068966,,0.010343676688156726,296.204,0.43799999356269836,-2.647553568334268
296.534483,,0.007385843495907633,296.674,0.47999998927116394,-2.5564574347229945
297.0,,0.004581158407270031,297.134,0.46799999475479126,-2.5829408248157373
297.46551700000003,,0.004354907153065506,297.604,0.47699999809265137,-2.563593976167467
297.931034,,0.008078192245488783,298.064,0.49000000953674316,-2.535445378888701
298.396552,,0.014904971554936607,298.533,0.49000000953674316,-2.5355259887875294
298.862069,,0.02184834432448386,298.999,0.5,-2.5137238801242927
299.327586,,0.025646251782570937,299.464,0.46700000762939453,-2.5855081047675523
299.79310300000003,,0.025038248060034303,299.93,0.492000013589859,-2.5308391569994417
300.258621,,0.021313620440220206,300.389,0.4740000069141388,-2.569766948589978
300.724138,,0.016857725015435546,300.855,0.4650000035762787,-2.5890110049039854
301.189655,,0.013449091407262404,301.319,0.4880000054836273,-2.538473930144814
301.65517200000005,,0.011622745391651137,301.784,0.47699999809265137,-2.5619594049037198
302.12069,,0.010839277039890943,302.257,0.47200000286102295,-2.572336374947584
302.586207,,0.009981374517457413,302.715,0.47200000286102295,-2.571799942773595
303.05172400000004,,0.008211459106845209,303.185,0.49799999594688416,-2.5146147290975156
303.517241,,0.005706335744542983,303.648,0.4699999988079071,-2.575088955650561
303.982759,,0.003342779742180461,304.116,0.48899999260902405,-2.5331956948736325
304.448276,,0.0017382996776262216,304.578,0.4860000014305115,-2.5392770719885327
304.913793,,0.0011034518270170378,305.044,0.46700000762939453,-2.5802754905204126
305.37931000000003,,0.0017337337424313858,305.507,0.47699999809265137,-2.558164681062201
305.844828,,0.0035224422409099146,305.973,0.46799999475479126,-2.577530019724075
306.310345,,0.0049433118060741585,306.437,0.47200000286102295,-2.5686623529825803
306.775862,,0.0039438367199512644,306.903,0.48100000619888306,-2.548995527550441
307.241379,,0.0005577941509197228,307.367,0.47999998927116394,-2.551210759489014
307.70689699999997,,0.0024072116572572307,307.833,0.46399998664855957,-2.58620025824574
308.172414,,0.0023210572320286824,308.297,0.46299999952316284,-2.5886011088554652
308.637931,,1.3923516250542744e-05,308.763,0.4880000054836273,-2.5344411663304975
309.103448,,0.0008102108958568723,309.226,0.4830000102519989,-2.5457144042379216
309.568966,,0.0023653186188090447,309.689,0.45500001311302185,-2.6071586892663174
310.034483,,0.008068833055325374,310.159,0.47099998593330383,-2.5727916616999047
310.5,,0.012658510534272778,310.622,0.4699999988079071,-2.575495403249632
310.96551700000003,,0.01440814369166186,311.09,0.47999998927116394,-2.554251038759995
311.431034,,0.014798823850777859,311.552,0.47600001096725464,-2.563507483477352
311.896552,,0.015985264389309667,312.017,0.4880000054836273,-2.5378882178841478
312.362069,,0.018304205397518074,312.484,0.49900001287460327,-2.5144132586429637
312.827586,,0.020695421000012305,312.949,0.47699999809265137,-2.562783977052117
313.29310300000003,,0.022410760158489258,313.409,0.4959999918937683,-2.5217668528197077
313.758621,,0.023188386910256667,313.874,0.47200000286102295,-2.574356875712233
314.224138,,0.02215180754819111,314.341,0.4790000021457672,-2.5593251444776524
314.689655,,0.01790431644875437,314.807,0.4659999907016754,-2.5877764745594702
315.155172,,0.010285098295522212,315.275,0.49000000953674316,-2.535523742785565
315.62068999999997,,0.0012798537685954174,315.741,0.46399998664855957,-2.5921084017738374
316.086207,,0.006568687176435954,316.204,0.4779999852180481,-2.5614540773206307
316.551724,,0.01242703537574251,316.667,0.49000000953674316,-2.5350685769711627
317.017241,,0.01733438018011721,317.13,0.48399999737739563,-2.5478173788209406
317.482759,,0.02220880772878651,317.6,0.4749999940395355,-2.5670309070013375
317.94827599999996,,0.02616485536150079,318.063,0.4830000102519989,-2.5491487624376545
318.413793,,0.02687140623281257,318.526,0.49000000953674316,-2.5334005757013727
318.87931000000003,,0.0221370697674141,318.991,0.43799999356269836,-2.6461640750543634
319.344828,,0.011089141228773212,319.456,0.4050000011920929,-2.717523349122281
319.810345,,0.005371814858228145,319.922,0.48500001430511475,-2.5427027227365726
320.275862,,0.024656313776481635,320.386,0.48899999260902405,-2.5334808104828133
320.741379,,0.043630207995780684,320.852,0.4740000069141388,-2.565688661611833
321.20689699999997,,0.06034132688782004,321.319,0.46399998664855957,-2.587054004331411
321.672414,,0.07416974889322893,321.784,0.47600001096725464,-2.5605529717386046
322.137931,,0.08410607999718772,322.245,0.4790000021457672,-2.553734463388273
322.603448,,0.08804310317545741,322.715,0.47200000286102295,-2.5687854441375366
323.068966,,0.08438533444085955,323.178,0.492000013589859,-2.525101780270193
323.53448299999997,,0.07325885747529196,323.641,0.48500001430511475,-2.5403334163763076
324.0,,0.055471100629515296,324.109,0.47200000286102295,-2.5687293802957627
324.465517,,0.03150267767230114,324.571,0.4699999988079071,-2.573250948848633
324.931034,,0.00238835717488294,325.037,0.48899999260902405,-2.5321065260340294
325.396552,,0.02982273436309666,325.5,0.5059999823570251,-2.495396341882419
325.86206899999996,,0.0637645880172653,325.966,0.48100000619888306,-2.55025570959072
326.327586,,0.09903787540187067,326.429,0.49799999594688416,-2.5136664969867937
326.793103,,0.1320871703584134,326.895,0.4490000009536743,-2.6209097751315227
327.258621,,0.15312314575108713,327.36,0.48500001430511475,-2.5429954086220294
327.724138,,0.15157854645578145,327.826,0.4749999940395355,-2.565310477258293
328.189655,,0.12617634835924035,328.293,0.5130000114440918,-2.4830446048204053
328.655172,,0.08717234992629626,328.759,0.4819999933242798,-2.551083263561591
329.12068999999997,,0.04741330818810267,329.219,0.3840000033378601,-2.7650560143461322
329.586207,,0.012962516884295821,329.689,0.49000000953674316,-2.5345370081450875
330.051724,,0.016829468586363746,330.152,0.4650000035762787,-2.5893592093688187
330.517241,,0.04269919248823685,330.615,0.4790000021457672,-2.5591398579186393
330.982759,,0.061810906638219414,331.086,0.47699999809265137,-2.563695873767886
331.44827599999996,,0.0707325677674169,331.548,0.4869999885559082,-2.542018464782515
331.913793,,0.07006243051450835,332.014,0.4729999899864197,-2.5725354033337333
332.37931,,0.06469416403160812,332.477,0.5299999713897705,-2.448273735655671
332.844828,,0.059731486339740784,332.943,0.47200000286102295,-2.5744636081720813
333.310345,,0.0565078208463094,333.408,0.48500001430511475,-2.5458825171359103
333.77586199999996,,0.05177300376239253,333.873,0.49000000953674316,-2.534652199155564
334.241379,,0.040070543703358906,334.338,0.4830000102519989,-2.549497289989188
334.706897,,0.01794891611092133,334.804,0.4230000078678131,-2.679756228965863
335.17241399999995,,0.012563325492827602,335.264,0.5009999871253967,-2.509322140409155
335.637931,,0.044203510586226374,335.73,0.4880000054836273,-2.537119382802969
336.103448,,0.0685391682850821,336.2,0.46700000762939453,-2.5823357646255922
336.56896600000005,,0.0803937973618064,336.663,0.47999998927116394,-2.5534852990311427
337.034483,,0.07953562504183062,337.126,0.4699999988079071,-2.5747672499286707
337.5,,0.06960039253336757,337.589,0.47999998927116394,-2.55251529046701
337.965517,,0.055754132848778754,338.06,0.46700000762939453,-2.5804256348270878
338.431034,,0.04216817441863091,338.522,0.46700000762939453,-2.5800800073683177
338.89655200000004,,0.030366916679118252,338.988,0.47600001096725464,-2.560203675532062
339.36206899999996,,0.019751010043953108,339.452,0.47600001096725464,-2.5600202611397966
339.827586,,0.009814054195697045,339.918,0.46700000762939453,-2.579535401080343
340.293103,,0.0012628635119443024,340.383,0.48500001430511475,-2.5403205378937357
340.758621,,0.005247149899439818,340.848,0.47600001096725464,-2.5600224027940324
341.224138,,0.010281430240979219,341.315,0.47600001096725464,-2.5602067005927527
341.68965499999996,,0.014530293530912388,341.781,0.48399999737739563,-2.5430464735960983
342.155172,,0.017302124794138105,342.245,0.4729999899864197,-2.567356856179839
342.62069,,0.01735807253080226,342.708,0.47200000286102295,-2.569946673515946
343.086207,,0.015251293014317853,343.171,0.47600001096725464,-2.561696768666991
343.551724,,0.01383950344067185,343.64,0.4749999940395355,-2.5643792882712995
344.01724099999996,,0.015691806863833528,344.101,0.47600001096725464,-2.5627280178781167
344.48275900000004,,0.02023760762838531,344.571,0.4880000054836273,-2.5371187803679622
344.948276,,0.024389567831701285,345.029,0.48500001430511475,-2.54417953572112
345.413793,,0.02597597621356408,345.499,0.47600001096725464,-2.564286438075266
345.87931,,0.025416612096167298,345.965,0.4880000054836273,-2.5386007923641674
346.344828,,0.023931507407759504,346.43,0.47699999809265137,-2.5629690419877713
346.81034500000004,,0.021716509619199072,346.895,0.47099998593330383,-2.576376963344574
347.275862,,0.018548619424682052,347.36,0.5099999904632568,-2.491667950586125
347.741379,,0.014712368820074737,347.826,0.48500001430511475,-2.5463059886867243
348.206897,,0.010354879026446506,348.29,0.48399999737739563,-2.5485650857431144
348.672414,,0.005194040834006116,348.756,0.47999998927116394,-2.557266858073531
349.13793100000004,,0.00010900059423597189,349.219,0.4749999940395355,-2.568054742020346
349.60344799999996,,0.0021041388044981493,349.681,0.49000000953674316,-2.5351804043531803
350.068966,,0.000527186422039565,350.145,0.5019999742507935,-2.5087582656115455
350.534483,,0.005991444372174882,350.615,0.48399999737739563,-2.547619853570633
351.0,,0.009979187747216884,351.078,0.4779999852180481,-2.5602736323114055
351.465517,,0.011141536646143459,351.541,0.48100000619888306,-2.5532688396270515
351.93103399999995,,0.012548792401569541,352.007,0.48899999260902405,-2.5353345432079224
352.396552,,0.016698300183854053,352.474,0.47600001096725464,-2.5631309382187704
352.862069,,0.02097664434902755,352.94,0.49399998784065247,-2.5233846228343806
353.32758600000005,,0.020476976713526756,353.404,0.46399998664855957,-2.58822520616688
353.793103,,0.014877115579332809,353.869,0.4970000088214874,-2.515838733252255
354.258621,,0.01005451545541398,354.334,0.48100000619888306,-2.5502487154479923
354.72413800000004,,0.011770635989310026,354.799,0.47699999809265137,-2.558571307922891
355.189655,,0.01916733586690172,355.264,0.46399998664855957,-2.5865708303946446
355.655172,,0.02614635652715976,355.729,0.4790000021457672,-2.553647321943208
356.12069,,0.0287176559409478,356.193,0.4950000047683716,-2.5186311602204716
356.586207,,0.029345796749675464,356.655,0.4779999852180481,-2.5556006012683827
357.05172400000004,,0.033840246173511154,357.123,0.48100000619888306,-2.549089337105822
357.517241,,0.04557874433588946,357.585,0.47699999809265137,-2.557920451053191
357.982759,,0.06389860586630242,358.051,0.46700000762939453,-2.579911771687517
358.448276,,0.08696182122085931,358.517,0.4819999933242798,-2.54751900827708
358.913793,,0.11373542458121487,358.983,0.4860000014305115,-2.539164030910804
359.37931000000003,,0.14208199985220218,359.449,0.4009999930858612,-2.724771541037534
359.844828,,0.16614787816512683,359.915,0.46799999475479126,-2.579275731649619
360.310345,,0.1770367049232391,360.375,0.4819999933242798,-2.5492837671065445
360.775862,,0.1657063957221948,360.84,0.4779999852180481,-2.5585253300987394
361.241379,,0.12526544832928074,361.308,0.46399998664855957,-2.589554913613857
361.706897,,0.05403031796432664,361.773,0.48399999737739563,-2.5464957292352626
362.172414,,0.03916707554305734,362.234,0.4729999899864197,-2.5709437894644673
362.63793100000004,,0.13362029434941836,362.703,0.47999998927116394,-2.5561301573404056
363.103448,,0.20678884900554242,363.167,0.515999972820282,-2.478075496590188
363.568966,,0.24927387473426202,363.63,0.47699999809265137,-2.5633468635543464
364.034483,,0.2677737496883982,364.1,0.47200000286102295,-2.574463234755144
364.5,,0.2720107897335112,364.563,0.49000000953674316,-2.535383566067651
364.96551700000003,,0.26261072690541787,365.029,0.46399998664855957,-2.592073336738557
365.431034,,0.23479054126282606,365.491,0.4860000014305115,-2.544095741566905
365.896552,,0.19027835036587915,365.957,0.4880000054836273,-2.5396003659010824
366.362069,,0.1402203652371617,366.425,0.4779999852180481,-2.561162271777289
366.827586,,0.09660626140142618,366.884,0.4749999940395355,-2.567394614183201
367.29310300000003,,0.06455556394627202,367.351,0.4819999933242798,-2.5517713483627915
367.758621,,0.04302409606433141,367.816,0.4830000102519989,-2.5491623494522697
368.224138,,0.02899118564724732,368.282,0.49000000953674316,-2.5334371373976117
368.689655,,0.019086566326547406,368.748,0.47699999809265137,-2.561255427599846
369.155172,,0.010002001445590845,369.211,0.47699999809265137,-2.56073788012159
369.62068999999997,,0.0003880636522584479,369.674,0.49399998784065247,-2.523186026287011
370.086207,,0.00814554797562224,370.142,0.47999998927116394,-2.5531906419510846
370.55172400000004,,0.013695749313077137,370.604,0.4729999899864197,-2.567978853462779
371.017241,,0.017377663801893987,371.075,0.47999998927116394,-2.5523148458696876
371.482759,,0.022352363451690067,371.537,0.4180000126361847,-2.687040246044059
371.948276,,0.029575247695837442,372.003,0.47200000286102295,-2.5691169914072183
372.413793,,0.036300717207603604,372.467,0.46399998664855957,-2.586352202737314
372.87931000000003,,0.03977909518193784,372.932,0.4779999852180481,-2.5557440204506596
373.344828,,0.041319060301000375,373.398,0.4819999933242798,-2.5470117381379267
373.810345,,0.04512303810730462,373.863,0.49000000953674316,-2.5296538734660645
374.275862,,0.053130186030857125,374.331,0.5299999713897705,-2.4426646786695465
374.741379,,0.06237141440169348,374.789,0.49000000953674316,-2.530046512544874
375.20689699999997,,0.06798417783697466,375.256,0.48899999260902405,-2.532533625291047
375.672414,,0.06790571765232994,375.722,0.47699999809265137,-2.559049604319323
376.137931,,0.06413554151271511,376.185,0.47999998927116394,-2.5529384195309643
376.603448,,0.060354859675235524,376.655,0.47600001096725464,-2.562117213474694
377.068966,,0.05878767444292941,377.119,0.4740000069141388,-2.5669639773269566
377.53448299999997,,0.05852296449766108,377.581,0.47600001096725464,-2.5631062818871273
378.0,,0.05650081268381756,378.047,0.4699999988079071,-2.5766725893638047
378.465517,,0.05076042639133257,378.511,0.4729999899864197,-2.570610680087345
378.931034,,0.04278596967126947,378.976,0.4880000054836273,-2.5383696592661855
379.396552,,0.036003433668651365,379.441,0.4790000021457672,-2.5583670408045474
379.862069,,0.03208595484681183,379.907,0.4749999940395355,-2.567410150606463
380.327586,,0.029712386052978202,380.371,0.49000000953674316,-2.5349878459088298
380.79310300000003,,0.027230721427592475,380.836,0.47999998927116394,-2.556952716005488
381.258621,,0.02546010389875023,381.301,0.4819999933242798,-2.552689331407926
381.724138,,0.02670177261383187,381.767,0.5339999794960022,-2.4394055540092325
382.189655,,0.031141895903303185,382.234,0.4740000069141388,-2.5700416335779335
382.655172,,0.035410307070663664,382.697,0.47600001096725464,-2.565516838063384
383.12068999999997,,0.0355575735497341,383.16,0.4749999940395355,-2.5674499206718195
383.586207,,0.0314120228635897,383.629,0.48399999737739563,-2.5475260656569807
384.051724,,0.027377067489389305,384.09,0.47200000286102295,-2.5732933722929636
384.517241,,0.02820513125746393,384.56,0.46700000762939453,-2.583761900552261
384.982759,,0.03361333736691417,385.019,0.4909999966621399,-2.5310146592542018
385.44827599999996,,0.037350850630867814,385.485,0.546999990940094,-2.408528129702796
385.913793,,0.03227725607899057,385.95,0.4860000014305115,-2.540934637963486
386.37931,,0.01693912436013026,386.415,0.48100000619888306,-2.551344559549985
386.84482799999995,,0.0027184239123210154,386.881,0.4830000102519989,-2.5465280565343806
387.310345,,0.01837766055509972,387.346,0.49000000953674316,-2.5308566017357053
387.775862,,0.02634544805439266,387.811,0.4690000116825104,-2.5762387407383227
388.241379,,0.0296564325180018,388.278,0.48399999737739563,-2.5432527387165487
388.70689699999997,,0.03356227488911094,388.744,0.48100000619888306,-2.549554840866162
389.172414,,0.03981265431708487,389.204,0.5009999871253967,-2.5058270860939773
389.637931,,0.04591638981590809,389.674,0.46399998664855957,-2.5863659205260547
390.103448,,0.049153696535324094,390.137,0.4650000035762787,-2.5842026500632356
390.56896600000005,,0.04965884073958122,390.6,0.47999998927116394,-2.5516245966277546
391.03448299999997,,0.04890510498602584,391.071,0.46799999475479126,-2.5779524515130827
391.5,,0.046315654801451764,391.533,0.47600001096725464,-2.560783691741102
391.965517,,0.039274324874072584,391.999,0.47200000286102295,-2.569826733443507
392.431034,,0.027114543035982954,392.464,0.5339999794960022,-2.4351352083309883
392.896552,,0.013668387553499913,392.929,0.4699999988079071,-2.57499634019118
393.36206899999996,,0.0042159699527958925,393.39,0.4650000035762787,-2.5863479551585185
393.827586,,0.000223048295729089,393.855,0.4699999988079071,-2.575930719531484
394.293103,,0.001470545010217703,394.323,0.47699999809265137,-2.5611586176544487
394.75862099999995,,0.004200778533883861,394.788,0.4860000014305115,-2.5420161197038875
395.224138,,0.007502317593662598,395.253,0.4880000054836273,-2.5380960154161065
395.68965499999996,,0.007884939534736558,395.719,0.47999998927116394,-2.5559205838274184
396.155172,,0.0026209500893724573,396.182,0.46399998664855957,-2.5911207564985324
396.62069,,0.007487977591776408,396.644,0.4819999933242798,-2.552183140313494
397.086207,,0.01821878236425982,397.112,0.47999998927116394,-2.556745968188784
397.551724,,0.024623993535488373,397.574,0.47999998927116394,-2.5568724225549393
398.017241,,0.024760008275773352,398.04,0.492000013589859,-2.5307720374622513
398.48275900000004,,0.021382129999165573,398.51,0.4869999885559082,-2.5416243242071137
398.94827599999996,,0.019397923842893735,398.976,0.48500001430511475,-2.5458576267720137
399.413793,,0.021370717154510884,399.434,0.4880000054836273,-2.5391191048901876
399.87931,,0.025836068474425464,399.9,0.4729999899864197,-2.5715244638390224
400.344828,,0.029483364250520148,400.364,0.46700000762939453,-2.5842595708580336
400.810345,,0.02986825722938714,400.83,0.46700000762939453,-2.5838717721564732
401.27586199999996,,0.026306731665858243,401.297,0.4690000116825104,-2.579088017475246
401.741379,,0.019739322534152264,401.762,0.49000000953674316,-2.532884297053593
402.206897,,0.01241934293781486,402.226,0.4699999988079071,-2.575993343271669
402.672414,,0.006840434336406456,402.695,0.47600001096725464,-2.56246038159397
403.137931,,0.0039086461913988135,403.156,0.46700000762939453,-2.5816248416213816
403.60344799999996,,0.002095736602201995,403.619,0.4699999988079071,-2.5746771407049316
404.068966,,0.0008928650424488595,404.089,0.4819999933242798,-2.5481657915208706
404.534483,,0.0052757962495391586,404.552,0.48100000619888306,-2.550031878849979
405.0,,0.008755034430535205,405.017,0.49000000953674316,-2.5301757443781785
405.465517,,0.009555466897420447,405.484,0.4749999940395355,-2.5626789905136786
405.931034,,0.009016032475195244,405.95,0.46799999475479126,-2.5778305836912194
406.39655200000004,,0.009816714096661707,406.415,0.4699999988079071,-2.5734552628374376
406.862069,,0.012006927362604098,406.874,0.4729999899864197,-2.5669825613766712
407.327586,,0.012491460498238238,407.346,0.5,-2.5083005752433194
407.793103,,0.009073515298910994,407.804,0.47999998927116394,-2.55208811102771
408.258621,,0.003872783631673457,408.271,0.48899999260902405,-2.5327609004638734
408.72413800000004,,0.001670591307693218,408.737,0.4790000021457672,-2.554885401852903
409.18965499999996,,0.00509492662576591,409.2,0.48899999260902405,-2.5334836724590373
409.655172,,0.011973461365570405,409.67,0.49000000953674316,-2.531724126149801
410.12069,,0.01733465178623556,410.13,0.46799999475479126,-2.580095035203056
410.586207,,0.0178664469045807,410.6,0.4729999899864197,-2.5696508038467387
411.05172400000004,,0.01466461092496394,411.06,0.46299999952316284,-2.591881113381142
411.51724099999996,,0.01181803449285767,411.53,0.4830000102519989,-2.5487328699741965
411.982759,,0.01238629243892885,411.996,0.4729999899864197,-2.5709115206937074
412.448276,,0.01584076122807284,412.46,0.4830000102519989,-2.549472098860302
412.913793,,0.01907845883003573,412.919,0.4779999852180481,-2.5606566891810454
413.37931,,0.019336183966398364,413.385,0.46799999475479126,-2.582669846646729
413.844828,,0.016280397751077366,413.851,0.49000000953674316,-2.5348947357560494
414.31034500000004,,0.011903155407772556,414.316,0.47600001096725464,-2.565474478719913
414.775862,,0.008307966876934785,414.782,0.5130000114440918,-2.4848636979118224
415.241379,,0.005215623226117473,415.245,0.47600001096725464,-2.565393336570587
415.706897,,0.00011712381510115108,415.715,0.46399998664855957,-2.5913808208851785
416.172414,,0.008391210386864596,416.175,0.48100000619888306,-2.55411733575796
416.63793100000004,,0.017739074507141447,416.645,0.48399999737739563,-2.547291754078732
417.103448,,0.022850496395734946,417.108,0.47600001096725464,-2.5643769536082095
417.568966,,0.020914206342728274,417.57,0.4819999933242798,-2.5509178425339636
418.034483,,0.014134875692707022,418.036,0.46700000762939453,-2.5831794271308555
418.5,,0.007075943147314438,418.499,0.4729999899864197,-2.5696720562832964
418.96551700000003,,0.0016389099382822063,418.964,0.49900001287460327,-2.512587428187027
419.43103399999995,,0.004375886106087524,419.433,0.4729999899864197,-2.568801608609276
419.896552,,0.013898931828139756,419.898,0.4830000102519989,-2.54660700041678
420.362069,,0.02709244812612213,420.363,0.47600001096725464,-2.5614850888960756
420.827586,,0.04176665941198918,420.829,0.48399999737739563,-2.5437305652696014
421.293103,,0.05641777169623582,421.294,0.4790000021457672,-2.554355517999285
421.758621,,0.07158584608129383,421.76,0.48500001430511475,-2.5410805671343772
422.22413800000004,,0.0875374353810252,422.222,0.46700000762939453,-2.580164898498518
422.689655,,0.10121725065895273,422.685,0.48399999737739563,-2.5430723626632843
423.15517200000005,,0.10711403585053862,423.153,0.46700000762939453,-2.5801312826005667
423.62069,,0.10199801103943722,423.615,0.47200000286102295,-2.5693367299319334
424.086207,,0.08794389557249993,424.086,0.47200000286102295,-2.569509036839066
424.55172400000004,,0.06972577214227718,424.548,0.47600001096725464,-2.5610345886484023
425.017241,,0.04974534281429913,425.013,0.48899999260902405,-2.5330121060009723
425.482759,,0.026359535535353362,425.477,0.4189999997615814,-2.6858683849032627
425.948276,,0.003344059685632804,425.943,0.47200000286102295,-2.5707919693957617
426.413793,,0.0399758543637956,426.407,0.4860000014305115,-2.540710626595665
426.87931000000003,,0.08005448049076724,426.873,0.47600001096725464,-2.5629299144867344
427.344828,,0.11616778487027075,427.338,0.4779999852180481,-2.5590049266023667
427.810345,,0.13980586745604354,427.804,0.46399998664855957,-2.5899244347582844
428.275862,,0.14678524987035116,428.271,0.46399998664855957,-2.59031633792313
428.741379,,0.14077912023866143,428.729,0.4440000057220459,-2.634242985185625
429.20689699999997,,0.13011691636799647,429.197,0.503000020980835,-2.5060066877626728
429.672414,,0.12036780817664715,429.66,0.4860000014305115,-2.5432870994269754
430.137931,,0.1105684129255728,430.13,0.4779999852180481,-2.5608910651001455
430.603448,,0.09655902499691643,430.592,0.48399999737739563,-2.547920437875599
431.068966,,0.0770281369623585,431.064,0.47600001096725464,-2.565374533210088
431.534483,,0.05578850955307396,431.526,0.47200000286102295,-2.5740374166188436
432.0,,0.03828500277834428,431.984,0.46399998664855957,-2.591340571897056
432.46551700000003,,0.026339263639587322,432.456,0.4830000102519989,-2.549749997084634
432.931034,,0.016975986484625897,432.914,0.4620000123977661,-2.5952415643388855
433.396552,,0.006417726812426758,433.386,0.4690000116825104,-2.579675790140143
433.862069,,0.005795145260477532,433.844,0.47999998927116394,-2.5553503397547144
434.327586,,0.01716169562833808,434.315,0.4659999907016754,-2.5854571703667304
434.79310300000003,,0.02557918383310952,434.781,0.492000013589859,-2.5283964687036486
435.258621,,0.03110470209782675,435.241,0.49000000953674316,-2.5323290203486963
435.724138,,0.03467206513310308,435.704,0.49300000071525574,-2.525372365388915
436.189655,,0.03633333714403077,436.174,0.47200000286102295,-2.570720971549761
436.655172,,0.03545307068615729,436.637,0.48500001430511475,-2.5420264638970087
437.12068999999997,,0.032280601735384135,437.1,0.46299999952316284,-2.589627826979517
437.586207,,0.028601016439651752,437.57,0.47999998927116394,-2.5523156118864816
438.051724,,0.026422204360096894,438.036,0.503000020980835,-2.5019931736983865
438.517241,,0.026162202033373102,438.498,0.47099998593330383,-2.5715644704327025
438.982759,,0.02654563113518911,438.964,0.47600001096725464,-2.5605987196448363
439.448276,,0.02623021676522201,439.431,0.4819999933242798,-2.547530042328863
439.913793,,0.024881528679256238,439.889,0.4699999988079071,-2.573752350739767
440.37931000000003,,0.0226192630443517,440.356,0.46000000834465027,-2.595690638161331
440.844828,,0.019565092687725872,440.821,0.4819999933242798,-2.5479807445279334
441.310345,,0.016537285703713836,441.286,0.5040000081062317,-2.5003311533017873
441.775862,,0.015024382308064783,441.751,0.47999998927116394,-2.552950050739426
442.241379,,0.015300554829975254,442.219,0.48500001430511475,-2.5424283665906815
442.70689699999997,,0.01504880007601334,442.681,0.4790000021457672,-2.555900767721599
443.172414,,0.010972665112530167,443.145,0.4830000102519989,-2.5476028010364584
443.637931,,0.002295123983913241,443.614,0.47600001096725464,-2.563273007902109
444.103448,,0.0073616923883523455,444.078,0.47600001096725464,-2.5636825460733546
444.568966,,0.012231710076887867,444.541,0.49799999594688416,-2.516138429845864
445.03448299999997,,0.0096188060742527,445.006,0.45899999141693115,-2.6014561565049186
445.5,,0.0029431532218431745,445.47,0.47999998927116394,-2.556008748817147
445.965517,,0.001582254493920379,445.936,0.492000013589859,-2.5301130437077672
446.431034,,0.001631427170383346,446.401,0.49799999594688416,-2.51722444600474
446.896552,,0.0007968358046893754,446.867,0.46700000762939453,-2.584875300000038
447.36206899999996,,0.003423755958919677,447.333,0.5049999952316284,-2.5021257423034036
447.827586,,0.009272742624415598,447.799,0.4790000021457672,-2.558734525449569
448.29310300000003,,0.014994540066512487,448.264,0.4729999899864197,-2.571696826748692
448.758621,,0.019418711016079556,448.729,0.47999998927116394,-2.5562672971591103
449.224138,,0.02448205507051325,449.189,0.4909999966621399,-2.532059213095063
449.689655,,0.030835175732499054,449.659,0.4779999852180481,-2.560082314860496
450.155172,,0.035366114469668176,450.123,0.4860000014305115,-2.5423070067536067
450.62068999999997,,0.03471546697109534,450.585,0.46799999475479126,-2.581141258582721
451.086207,,0.029872417978476732,451.052,0.46399998664855957,-2.5894518215692046
451.551724,,0.025580040088276794,451.517,0.48399999737739563,-2.5454651229770815
452.017241,,0.0254871972990567,451.982,0.47999998927116394,-2.553768929937644
452.482759,,0.029061426790788172,452.449,0.46799999475479126,-2.5795177899637713
452.94827599999996,,0.03322903621047667,452.915,0.4790000021457672,-2.5551864018073855
453.413793,,0.03582024245568637,453.374,0.47999998927116394,-2.55268157981558
453.87931,,0.03685446923420437,453.84,0.4650000035762787,-2.5850854122996667
454.344828,,0.03749755508240783,454.305,0.4659999907016754,-2.5826904113220763
454.810345,,0.03900774005619937,454.771,0.4869999885559082,-2.5367884810666497
455.27586199999996,,0.042478177724124676,455.234,0.46799999475479126,-2.5781027519457025
455.741379,,0.048336169417746266,455.703,0.47600001096725464,-2.5606662787923757
456.206897,,0.05545737866709164,456.167,0.47200000286102295,-2.56944666650481
456.672414,,0.06153591422768931,456.63,0.4880000054836273,-2.5347245279018127
457.137931,,0.06565842706288373,457.1,0.4880000054836273,-2.5349262829993084
457.603448,,0.07075931934026845,457.563,0.4729999899864197,-2.5678667869394762
458.06896600000005,,0.08202448867085892,458.028,0.47600001096725464,-2.5616426647687365
458.53448299999997,,0.10115868441623457,458.491,0.503000020980835,-2.5031718486670385
459.0,,0.12197592196427687,458.957,0.49799999594688416,-2.5144465754932734
459.465517,,0.13205775507252035,459.422,0.4699999988079071,-2.575847017798621
459.931034,,0.11875152860681082,459.887,0.4819999933242798,-2.5501067326018405
460.39655200000004,,0.07458795492817456,460.352,0.47200000286102295,-2.5722895057911983
460.86206899999996,,0.0003796480209807997,460.818,0.503000020980835,-2.5051275818881305
461.327586,,0.09303664172803842,461.282,0.46700000762939453,-2.5839030830373435
461.793103,,0.1857901870144228,461.748,0.47200000286102295,-2.5733117321050716
462.258621,,0.2561643226506409,462.211,0.48399999737739563,-2.5474184760193395
462.724138,,0.29243041141246073,462.681,0.47200000286102295,-2.573753302139277
463.18965499999996,,0.29962363689191596,463.141,0.5199999809265137,-2.4693031639503524
463.655172,,0.2927362641229727,463.604,0.47600001096725464,-2.565218001997664
464.12069,,0.28126784701522767,464.075,0.4740000069141388,-2.569558224914923
464.58620699999994,,0.26099235252485437,464.537,0.47699999809265137,-2.562935323045544
465.051724,,0.22212776392009426,465.003,0.48500001430511475,-2.5453518809267894
465.517241,,0.16454197326540182,465.468,0.47200000286102295,-2.5734577538218972
465.98275900000004,,0.10203521229861676,465.934,0.4880000054836273,-2.538327344445504
466.448276,,0.05071736452079779,466.4,0.503000020980835,-2.505328140258
466.913793,,0.01569947888258744,466.866,0.47600001096725464,-2.5637946193242396
467.37931,,0.008936792990233148,467.33,0.4749999940395355,-2.5655906580431713
467.844828,,0.029694492581111627,467.789,0.47600001096725464,-2.563016376256487
468.31034500000004,,0.04680465262575156,468.26,0.4690000116825104,-2.577870963601182
468.77586199999996,,0.056953943807354364,468.726,0.47200000286102295,-2.570951353678655
469.241379,,0.05926560579902136,469.189,0.43799999356269836,-2.644666710882434
469.706897,,0.05711312916259906,469.652,0.4880000054836273,-2.5354118809228807
470.172414,,0.055089266528141695,470.115,0.47600001096725464,-2.56127866613807
470.63793100000004,,0.055413009657681145,470.585,0.46799999475479126,-2.578484418002077
471.10344799999996,,0.05751084489959454,471.051,0.47600001096725464,-2.5608924072805612
471.568966,,0.060057883620589884,471.509,0.4790000021457672,-2.554259068046864
472.034483,,0.06213739241878052,471.975,0.45500001311302185,-2.6065175920759365
472.5,,0.06293435297136354,472.441,0.4779999852180481,-2.556449140632631
472.965517,,0.06213524225406154,472.907,0.4779999852180481,-2.5565570801391146
473.43103399999995,,0.0608235304309092,473.375,0.46700000762939453,-2.580693772428913
473.89655200000004,,0.06036109796204973,473.84,0.46399998664855957,-2.587459880033124
474.362069,,0.05998181264578387,474.305,0.48100000619888306,-2.5507039961156073
474.827586,,0.057126048587742846,474.771,0.4830000102519989,-2.5466693352258787
475.293103,,0.05112902798560323,475.233,0.4819999933242798,-2.5492014734986745
475.758621,,0.04526625979201925,475.696,0.46399998664855957,-2.5887905883424494
476.22413800000004,,0.04352568894992067,476.163,0.4749999940395355,-2.565207536812139
476.689655,,0.045768029499141966,476.626,0.46299999952316284,-2.5917302734532477
477.155172,,0.04764434639846296,477.093,0.47200000286102295,-2.572486448305661
477.62069,,0.045511110590907,477.555,0.4690000116825104,-2.579360052185235
478.086207,,0.04021627528389298,478.021,0.4659999907016754,-2.5861968643296693
478.55172400000004,,0.035587605970698606,478.485,0.48100000619888306,-2.553771616620917
479.01724099999996,,0.03418067593316921,478.951,0.46000000834465027,-2.5997235158265464
479.482759,,0.03521412986815316,479.415,0.4779999852180481,-2.5606479395730126
479.948276,,0.0359363751481204,479.881,0.4959999918937683,-2.521507251812225
480.413793,,0.03399987985785517,480.346,0.5720000267028809,-2.3559352228127723
480.87931000000003,,0.028834916003338772,480.811,0.47699999809265137,-2.5628414524038203
481.344828,,0.02195744508411976,481.278,0.4699999988079071,-2.577960315282349
481.810345,,0.01621862974383192,481.744,0.4819999933242798,-2.55162508999229
482.275862,,0.013718471277897291,482.204,0.47999998927116394,-2.555737353566476
482.74137900000005,,0.013765644037207413,482.674,0.4699999988079071,-2.5772333246032466
483.206897,,0.013301631065146226,483.138,0.5019999742507935,-2.507189948087769
483.672414,,0.009798089332347708,483.6,0.46000000834465027,-2.598340688245067
484.13793100000004,,0.0036839980912917593,484.071,0.47200000286102295,-2.5718307422574473
484.603448,,0.0021522865279722902,484.533,0.492000013589859,-2.5278895080758406
485.068966,,0.005207608120490449,484.999,0.47600001096725464,-2.5623886191604215
485.534483,,0.00569106628400815,485.459,0.48399999737739563,-2.5446205180599204
486.0,,0.005912619152032915,485.925,0.4830000102519989,-2.5464911867566324
486.46551700000003,,0.0074451726257372015,486.39,0.47699999809265137,-2.559295719760481
486.931034,,0.009490419167402406,486.855,0.49399998784065247,-2.5220400460265804
487.396552,,0.010402822345489622,487.322,0.47600001096725464,-2.5610922196968495
487.862069,,0.010169799514095048,487.788,0.49399998784065247,-2.521773212121152
488.327586,,0.010445555923760548,488.249,0.49900001287460327,-2.510839152050938
488.79310300000003,,0.012142419332044541,488.719,0.47600001096725464,-2.5609708172219037
489.258621,,0.013943503861785835,489.182,0.46399998664855957,-2.587200837171513
489.724138,,0.013802649906946372,489.644,0.47699999809265137,-2.5590255852309873
490.189655,,0.011313613502078998,490.115,0.4970000088214874,-2.515655199527831
490.655172,,0.007886392865531083,490.578,0.5009999871253967,-2.5071908824987412
491.12069,,0.005211055533299376,491.044,0.46799999475479126,-2.5793760352484627
491.586207,,0.004520430592356537,491.507,0.49000000953674316,-2.5317663364621694
492.05172400000004,,0.0067188265525124895,491.973,0.5460000038146973,-2.4101019091603657
492.517241,,0.011704121410835452,492.437,0.47600001096725464,-2.562954514521393
492.982759,,0.017549574254942107,492.903,0.5230000019073486,-2.4609021799263755
493.448276,,0.02184447837765279,493.367,0.4819999933242798,-2.5505575116665566
493.913793,,0.024483793964974056,493.833,0.5830000042915344,-2.330819655331263
494.37931000000003,,0.028040480592062482,494.294,0.4790000021457672,-2.5576695504497615
494.844828,,0.034294660094798785,494.76,0.4959999918937683,-2.520861112558854
495.310345,,0.04090593164996255,495.23,0.4819999933242798,-2.551543842414128
495.775862,,0.0428702140109363,495.693,0.492000013589859,-2.5298868225595625
496.241379,,0.03769557334173922,496.156,0.47600001096725464,-2.564819220913467
496.70689699999997,,0.02846829913801845,496.626,0.47200000286102295,-2.5735509687453186
497.172414,,0.0213033274164713,497.086,0.4740000069141388,-2.5691542291398064
497.637931,,0.01981554502645873,497.555,0.47200000286102295,-2.573417177367397
498.103448,,0.022043760607434976,498.014,0.47600001096725464,-2.564556483139672
498.568966,,0.022681093342271127,498.485,0.4819999933242798,-2.5512913800414108
499.03448299999997,,0.018423556656418556,498.95,0.47999998927116394,-2.555414183939514
499.5,,0.01094455990254394,499.415,0.46000000834465027,-2.5987190841078047
499.96551700000003,,0.004301134777744406,499.88,0.4650000035762787,-2.5875332968642892
500.431034,,0.0002139422082018277,500.345,0.46299999952316284,-2.591582767181558
500.89655200000004,,0.0026780384609936397,500.81,0.47699999809265137,-2.5607676454509725
501.362069,,0.005317710640957302,501.275,0.48899999260902405,-2.5343123907172522
501.827586,,0.006378715201371931,501.74,0.4659999907016754,-2.584121456716103
502.293103,,0.004976628311359285,502.204,0.4880000054836273,-2.535912021763159
502.758621,,0.0033878815084717913,502.666,0.5540000200271606,-2.391869390750384
503.224138,,0.005107115015974414,503.13,0.48100000619888306,-2.5506923414654006
503.68965499999996,,0.010739449430127425,503.6,0.4819999933242798,-2.548336461483194
504.15517200000005,,0.017274299465803274,504.06,0.46700000762939453,-2.580886963581186
504.62068999999997,,0.021376003458883935,504.53,0.49000000953674316,-2.530700738716445
505.08620699999994,,0.02265196631786826,504.989,0.4880000054836273,-2.5350342869576616
505.55172400000004,,0.023769268550651906,505.456,0.4790000021457672,-2.55467224879652
506.017241,,0.027569323934643394,505.922,0.47600001096725464,-2.5612914921505068
506.48275899999993,,0.03380966809242895,506.389,0.4860000014305115,-2.5396389252266838
506.948276,,0.038931432503416165,506.855,0.4650000035762787,-2.585570887628116
507.413793,,0.03961188826050056,507.315,0.46700000762939453,-2.5814352651422556
507.87931,,0.03633187608388877,507.781,0.4729999899864197,-2.568619755407808
508.344828,,0.032623474382546425,508.249,0.4880000054836273,-2.536222500939518
508.810345,,0.030621973318696982,508.711,0.48399999737739563,-2.5452364789263404
509.27586199999996,,0.028056952138802604,509.175,0.492000013589859,-2.528113979098622
509.74137900000005,,0.02031630702766535,509.644,0.4729999899864197,-2.569813220319481
510.20689699999997,,0.0053255443451366135,510.105,0.49399998784065247,-2.5243554725970974
510.67241399999995,,0.014181235138613944,510.574,0.5019999742507935,-2.5071997511465685
511.13793100000004,,0.03282077194734307,511.04,0.46700000762939453,-2.5836971615232227
511.603448,,0.04594267975551713,511.502,0.47999998927116394,-2.555584473909675
512.0689659999999,,0.05144199737801258,511.968,0.492000013589859,-2.5296090507717217
512.534483,,0.050266848219992395,512.434,0.47999998927116394,-2.5558746436001503
513.0,,0.0457638197659387,512.899,0.4880000054836273,-2.538517098473201
513.465517,,0.04119922169274121,513.363,0.47200000286102295,-2.573395406667056
513.931034,,0.037125368987270674,513.829,0.4749999940395355,-2.5668276632803937
514.396552,,0.0317298955166873,514.289,0.4880000054836273,-2.5384228015636254
514.862069,,0.024012778319074078,514.755,0.4690000116825104,-2.579686677220144
515.327586,,0.015782227598082264,515.223,0.47699999809265137,-2.5620834895426032
515.793103,,0.009758527328633597,515.685,0.4880000054836273,-2.5379060235824973
516.258621,,0.006190319854318943,516.152,0.4959999918937683,-2.5202321239649073
516.724138,,0.0026561160745247336,516.615,0.4699999988079071,-2.5766073397100455
517.189655,,0.002233195413810717,517.082,0.4779999852180481,-2.5588925499255324
517.655172,,0.005905337116972733,517.545,0.5,-2.510669116749663
518.1206900000001,,0.00399500161277046,518.01,0.4830000102519989,-2.547413765913018
518.5862070000001,,0.0042353576218196656,518.474,0.47999998927116394,-2.553667282269423
519.051724,,0.013658579572827755,518.94,0.49000000953674316,-2.5316169307351104
519.517241,,0.01759594827883426,519.407,0.4909999966621399,-2.5292007547221447
519.982759,,0.014198114082633941,519.873,0.48100000619888306,-2.5507830129024636
520.448276,,0.0075091698484156385,520.338,0.4779999852180481,-2.557154637128705
520.9137929999999,,0.002274248847368046,520.803,0.49399998784065247,-2.522176578932762
521.37931,,0.0009827492839659916,521.271,0.45100000500679016,-2.6157872441144376
521.844828,,0.005407077632701014,521.729,0.47600001096725464,-2.561301066236649
522.310345,,0.01366040379261902,522.2,0.4860000014305115,-2.5395460167779547
522.7758620000001,,0.025098545553573062,522.663,0.47999998927116394,-2.552698796992625
523.241379,,0.03643617955796645,523.126,0.48100000619888306,-2.550647734080152
523.7068969999999,,0.044571487259732506,523.589,0.492000013589859,-2.526852734825683
524.172414,,0.0488605468887019,524.06,0.5130000114440918,-2.48130760986412
524.637931,,0.05087942755083171,524.522,0.48399999737739563,-2.5447244516245227
525.103448,,0.05225696080689533,524.988,0.5149999856948853,-2.4774446813719244
525.568966,,0.05322295175541668,525.452,0.4819999933242798,-2.549612915903193
526.034483,,0.053328805347884235,525.918,0.49000000953674316,-2.5324632900930273
526.5,,0.052701626910388176,526.383,0.49399998784065247,-2.5240269877391843
526.9655170000001,,0.051629600334927264,526.848,0.48399999737739563,-2.546081945139489
527.4310340000001,,0.04932757268521806,527.315,0.49399998784065247,-2.524546351560395
527.8965519999999,,0.044605846906255464,527.78,0.492000013589859,-2.5291293208399814
528.362069,,0.038105815862594004,528.241,0.5009999871253967,-2.5097152276835106
528.827586,,0.03232209700817186,528.711,0.5130000114440918,-2.4837269158135418
529.293103,,0.028355176479065856,529.174,0.5109999775886536,-2.4881966713311403
529.7586210000001,,0.02379502064109989,529.637,0.5170000195503235,-2.475190600612895
530.224138,,0.01507118398597637,530.105,0.49399998784065247,-2.5253176866175147
530.689655,,0.0007711781606062169,530.567,0.5130000114440918,-2.4838938093167346
531.155172,,0.019061531556824735,531.033,0.5040000081062317,-2.5034257874322074
531.62069,,0.04537632486597973,531.495,0.5170000195503235,-2.4749835059046417
532.086207,,0.07783708654085386,531.961,0.5249999761581421,-2.4573941943408677
532.5517239999999,,0.10905708541549809,532.426,0.515999972820282,-2.4768062896255065
533.017241,,0.12522528276744727,532.892,0.5339999794960022,-2.437365431469648
533.482759,,0.11684616185973537,533.356,0.5440000295639038,-2.4153307424699775
533.9482760000001,,0.08873977663908172,533.821,0.515999972820282,-2.4760696892950067
534.413793,,0.056988127953366115,534.286,0.5249999761581421,-2.456192204581765
534.87931,,0.03575230002433368,534.751,0.515999972820282,-2.475532942459871
535.344828,,0.028219933083738564,535.219,0.5419999957084656,-2.4186314123608668
535.810345,,0.029161069175744864,535.681,0.5289999842643738,-2.4467151607260793
536.275862,,0.03283551604682007,536.149,0.5199999809265137,-2.466109687962692
536.7413789999999,,0.03696235829906647,536.611,0.5299999713897705,-2.4441421966863204
537.206897,,0.04123077323440638,537.074,0.5299999713897705,-2.443998747211669
537.672414,,0.044763461700410505,537.544,0.5809999704360962,-2.332784894192939
538.137931,,0.04554486426582604,538.01,0.5419999957084656,-2.41769196241914
538.6034480000001,,0.04152771714143994,538.474,0.5640000104904175,-2.3697458335882535
539.0689659999999,,0.03225080825074248,538.94,0.5529999732971191,-2.3937401530544395
539.5344829999999,,0.01968093592571018,539.405,0.5619999766349792,-2.3742052107475735
540.0,,0.006920503786739474,539.871,0.5529999732971191,-2.393927580703787
540.465517,,0.004513469482069597,540.33,0.5839999914169312,-2.326541658951136
540.931034,,0.01557031380616898,540.796,0.5540000200271606,-2.392086027758462
541.396552,,0.027093216496147737,541.26,0.574999988079071,-2.346546745794467
541.862069,,0.03704596840625098,541.726,0.5669999718666077,-2.3642091917206143
542.327586,,0.04190780726711163,542.189,0.5899999737739563,-2.3143469679816815
542.7931030000001,,0.04131014947740833,542.659,0.5049999952316284,-2.499785915542973
543.258621,,0.03983012829559487,543.119,0.597000002861023,-2.299604623869683
543.7241379999999,,0.04257957771161054,543.589,0.5809999704360962,-2.3347091164423666
544.189655,,0.049435534177769955,544.06,0.5669999718666077,-2.3654397129139646
544.655172,,0.055206020243476005,544.515,0.5669999718666077,-2.3656468126535635
545.12069,,0.055534616583118944,544.98,0.6079999804496765,-2.276500337886232
545.5862070000001,,0.051349827135500424,545.444,0.5709999799728394,-2.357253613207629
546.051724,,0.047477191678373505,545.91,0.6060000061988831,-2.2811050912210837
546.517241,,0.04805377824759443,546.374,0.5730000138282776,-2.353062920516291
546.982759,,0.05325919074059444,546.84,0.5820000171661377,-2.333474500009207
547.448276,,0.05925196412310308,547.304,0.597000002861023,-2.3007709587958507
547.9137929999999,,0.06089137889791882,547.77,0.5669999718666077,-2.3660642553620614
548.3793099999999,,0.055442481361892865,548.241,0.6010000109672546,-2.2918839161334197
548.844828,,0.04461419673934477,548.703,0.6169999837875366,-2.2568819165503498
549.310345,,0.0332745282149066,549.171,0.6200000047683716,-2.2501680428352495
549.775862,,0.025853479426799178,549.633,0.5540000200271606,-2.3937532125055805
550.241379,,0.023324493406061655,550.097,0.5799999833106995,-2.336883368599802
550.706897,,0.023023492804440226,550.559,0.5669999718666077,-2.364968852601858
551.172414,,0.02129483640676731,551.025,0.5669999718666077,-2.3647271518733572
551.637931,,0.016928125202390457,551.496,0.5540000200271606,-2.3928108105395824
552.103448,,0.012409806429218299,551.954,0.5540000200271606,-2.392582696466777
552.568966,,0.011223804630363075,552.419,0.5630000233650208,-2.372763979082426
553.034483,,0.013627512178180331,552.884,0.5669999718666077,-2.363861435843781
553.5,,0.01615830817157641,553.356,0.5809999704360962,-2.333199712159246
553.965517,,0.015809197667110433,553.814,0.5720000267028809,-2.3526780910446163
554.4310340000001,,0.013149765453253658,554.279,0.5789999961853027,-2.337332841465046
554.896552,,0.010239900585987255,554.744,0.5419999957084656,-2.417885537875378
555.3620689999999,,0.006926875495297513,555.215,0.5419999957084656,-2.4178680443638596
555.827586,,0.0009055320112050143,555.677,0.5419999957084656,-2.417890980609904
556.293103,,0.009137825530476623,556.145,0.5299999713897705,-2.444097069306394
556.758621,,0.021907210984906195,556.607,0.5540000200271606,-2.3919083855391254
557.224138,,0.03497419799993053,557.075,0.5929999947547913,-2.307071828625601
557.689655,,0.04678559362493597,557.538,0.5249999761581421,-2.45537724968638
558.155172,,0.056993916693790184,558.003,0.546999990940094,-2.407626847225511
558.6206900000001,,0.0655781240528948,558.468,0.5049999952316284,-2.4993280805043487
559.0862070000001,,0.071945849759498,558.933,0.5170000195503235,-2.4733948621238233
559.5517239999999,,0.07456610077761024,559.4,0.5049999952316284,-2.4997558501647457
560.017241,,0.07174452240333347,559.866,0.5139999985694885,-2.480364856816317
560.482759,,0.06349477880002,560.331,0.5049999952316284,-2.50018251368837
560.948276,,0.052549148967293846,560.789,0.4909999966621399,-2.5308802182671144
561.413793,,0.04283439485531614,561.257,0.49000000953674316,-2.53323684386576
561.87931,,0.03666876256715298,561.722,0.4659999907016754,-2.5856790480900003
562.344828,,0.03306548262167883,562.185,0.49000000953674316,-2.533518202272279
562.8103450000001,,0.028031247215009606,562.655,0.503000020980835,-2.505290002266893
563.275862,,0.016983882037697032,563.116,0.5019999742507935,-2.507526574927861
563.7413789999999,,0.0012848930871437274,563.585,0.4909999966621399,-2.531511179872808
564.206897,,0.022632439082941994,564.051,0.48399999737739563,-2.546742830890804
564.672414,,0.04182025996626772,564.509,0.47699999809265137,-2.5619372195779806
565.137931,,0.060371109612461255,564.974,0.4749999940395355,-2.5662032314000482
565.603448,,0.08772147236812244,565.442,0.492000013589859,-2.5290423657328263
566.068966,,0.13018680914624955,565.908,0.49000000953674316,-2.533246592817649
566.534483,,0.17778515371510825,566.374,0.48500001430511475,-2.5439619745050437
567.0,,0.20483892536093012,566.84,0.4650000035762787,-2.5873384012847063
567.465517,,0.18569516259676339,567.305,0.48500001430511475,-2.5435565779868883
567.931034,,0.11042172472247774,567.77,0.4830000102519989,-2.5476988921154744
568.396552,,0.010956139471267591,568.233,0.4729999899864197,-2.569270726207374
568.862069,,0.1520763443122079,568.696,0.4690000116825104,-2.57777792436679
569.327586,,0.2758592070176437,569.164,0.48500001430511475,-2.542725906981535
569.793103,,0.3454833242895806,569.626,0.4819999933242798,-2.5490874456762946
570.2586210000001,,0.3425718218231797,570.089,0.46700000762939453,-2.581617284904509
570.724138,,0.28009008794938284,570.559,0.47600001096725464,-2.561889173136843
571.189655,,0.19441491919207127,571.025,0.46799999475479126,-2.579231495668185
571.655172,,0.12026985333582813,571.489,0.4830000102519989,-2.546500641991371
572.12069,,0.07081738125601034,571.955,0.47999998927116394,-2.553022540465429
572.586207,,0.038643673354395267,572.42,0.4020000100135803,-2.722981701153218
573.051724,,0.011015324644569943,572.885,0.48399999737739563,-2.5443963227741744
573.517241,,0.017624412792873925,573.345,0.48399999737739563,-2.544495710331845
573.982759,,0.044140685390510116,573.811,0.4620000123977661,-2.592556568928527
574.4482760000001,,0.062374060924305495,574.278,0.48399999737739563,-2.544784402741197
574.913793,,0.06899213718618984,574.744,0.46399998664855957,-2.5885379488542233
575.37931,,0.06568801399947827,575.204,0.4650000035762787,-2.5865569144635203
575.844828,,0.057642472432908425,575.674,0.46700000762939453,-2.5824084999754873
576.310345,,0.050304604594329935,576.137,0.4819999933242798,-2.5499420427636035
576.775862,,0.046770213626097006,576.6,0.46799999475479126,-2.5806537756755934
577.241379,,0.046980884954401635,577.064,0.4749999940395355,-2.5656048741328528
577.706897,,0.048687940707707086,577.533,0.47600001096725464,-2.5636125983745086
578.172414,,0.049294305536857784,577.999,0.4909999966621399,-2.531097913435724
578.6379310000001,,0.04754014560732436,578.463,0.4480000138282776,-2.624918642468664
579.1034480000001,,0.044150077998558614,578.929,0.47999998927116394,-2.555311152718239
579.5689659999999,,0.040876591487654865,579.394,0.47200000286102295,-2.5728164382747263
580.034483,,0.03866315809072335,579.859,0.47699999809265137,-2.56196359958852
580.5,,0.037024042888312736,580.319,0.4790000021457672,-2.5576097879820407
580.965517,,0.035432622717073654,580.785,0.4830000102519989,-2.548861575684771
581.431034,,0.03450540576388963,581.249,0.49000000953674316,-2.5335412365252425
581.896552,,0.03494396293714077,581.718,0.4650000035762787,-2.5879039667444115
582.362069,,0.03583779039473639,582.186,0.46399998664855957,-2.5899496438107255
582.827586,,0.035226480476584894,582.648,0.4749999940395355,-2.5658265722740614
583.2931030000001,,0.03249301170653098,583.112,0.49000000953674316,-2.5329683364356335
583.758621,,0.029318877569916225,583.574,0.49000000953674316,-2.5327742005762004
584.2241379999999,,0.027807762001308033,584.04,0.4690000116825104,-2.5783222595862636
584.689655,,0.02814215018699813,584.51,0.47200000286102295,-2.5715804639891755
585.155172,,0.028591082093497346,584.976,0.48899999260902405,-2.5343416970890194
585.6206900000001,,0.02759175134676961,585.434,0.4869999885559082,-2.538507002568238
586.0862070000001,,0.025273604324024437,585.899,0.4830000102519989,-2.54704510423279
586.551724,,0.022857965873694923,586.367,0.4819999933242798,-2.5490685805272753
587.017241,,0.02103263250022848,586.832,0.515999972820282,-2.474864862434078
587.482759,,0.019329369330963853,587.299,0.48500001430511475,-2.5423020737174133
587.948276,,0.0169730631790451,587.764,0.47699999809265137,-2.559663153472082
588.4137929999999,,0.014022746429240817,588.226,0.4880000054836273,-2.5356653200514803
588.87931,,0.011739072035657595,588.689,0.47200000286102295,-2.570527556083947
589.344828,,0.011911237628360369,589.159,0.47999998927116394,-2.5531388485111375
589.810345,,0.015415137787465902,589.622,0.46799999475479126,-2.5793586125974355
590.2758620000001,,0.02135633689111543,590.09,0.49000000953674316,-2.531537254949028
590.741379,,0.028421693948561134,590.552,0.47600001096725464,-2.562176442626325
591.2068969999999,,0.03715022725970904,591.017,0.4830000102519989,-2.5470887156356987
591.672414,,0.04951830316743151,591.484,0.492000013589859,-2.5276630424046185
592.137931,,0.06593899875554271,591.95,0.4819999933242798,-2.5496450514356317
592.603448,,0.08427028412158791,592.415,0.4860000014305115,-2.541133149278472
593.068966,,0.10214258019294643,592.881,0.4950000047683716,-2.5217287225193323
593.534483,,0.118176414396891,593.346,0.4909999966621399,-2.5306407353800253
594.0,,0.12992300587269653,593.804,0.5040000081062317,-2.5025032000912115
594.4655170000001,,0.132459031424592,594.275,0.49900001287460327,-2.5135628263291756
594.9310340000001,,0.12084381737697626,594.734,0.49000000953674316,-2.5333135124073194
595.3965519999999,,0.09377229541377488,595.204,0.4909999966621399,-2.5312502323961485
595.862069,,0.053945917044638886,595.666,0.49000000953674316,-2.533513384177031
596.327586,,0.005015766157471638,596.134,0.492000013589859,-2.529207292400562
596.793103,,0.050689192802184056,596.597,0.5090000033378601,-2.492186372898053
597.2586210000001,,0.11095129755577832,597.06,0.4880000054836273,-2.537918380950403
597.724138,,0.17163053810994358,597.53,0.4690000116825104,-2.579259006313379
598.189655,,0.22730356533224327,597.995,0.49799999594688416,-2.515992875854453
598.655172,,0.2728244295331135,598.46,0.49900001287460327,-2.5136992991444456
599.12069,,0.30219327433653376,598.925,0.503000020980835,-2.5048433285147342
599.586207,,0.306919839925187,599.385,0.5040000081062317,-2.502501267654025
600.0517239999999,,0.27966727348108184,599.85,0.5080000162124634,-2.4936062032428836
600.517241,,0.22249110702776573,600.316,0.4819999933242798,-2.550059784651253
600.982759,,0.15043210043110425,600.781,0.5149999856948853,-2.4779685324548892
601.448276,,0.08358831489700748,601.249,0.4860000014305115,-2.540955022352161
601.913793,,0.033588282984581004,601.712,0.4869999885559082,-2.538590256839625
602.37931,,0.0017864213119127394,602.174,0.5149999856948853,-2.47741596048412
602.844828,,0.03066091578069717,602.644,0.49000000953674316,-2.5317288427343785
603.310345,,0.055977308738579125,603.108,0.4779999852180481,-2.557743645153157
603.775862,,0.07371089678022721,603.57,0.5009999871253967,-2.507534403772907
604.2413789999999,,0.07984047980465256,604.036,0.49399998784065247,-2.5227159209859713
604.706897,,0.07557372892287924,604.499,0.492000013589859,-2.527037318865372
605.172414,,0.06547843096317828,604.964,0.5040000081062317,-2.5008918270149434
605.637931,,0.053532506758626655,605.433,0.4699999988079071,-2.574998443713483
606.1034480000001,,0.04268294347602844,605.899,0.4970000088214874,-2.516240977351585
606.5689659999999,,0.03591818306793311,606.363,0.5270000100135803,-2.450977916619961
607.0344829999999,,0.03468160187249666,606.829,0.49900001287460327,-2.5121024990168013
607.5,,0.036654649749039654,607.289,0.49300000071525574,-2.5253194038951756
607.965517,,0.037598005385917906,607.755,0.4779999852180481,-2.5581630660088654
608.431034,,0.035760108371724705,608.223,0.4860000014305115,-2.5409118753105377
608.896552,,0.03304437592003964,608.685,0.515999972820282,-2.475738338720838
609.362069,,0.03183979247340779,609.152,0.4830000102519989,-2.5478207845682057
609.827586,,0.032111655672820594,609.615,0.5139999985694885,-2.4804651400336137
610.293103,,0.032048222593993966,610.085,0.492000013589859,-2.528567289504326
610.758621,,0.03076411821398472,610.548,0.49000000953674316,-2.533080811100422
611.2241379999999,,0.029581409150179892,611.014,0.48100000619888306,-2.552824963125714
611.689655,,0.03032519113855486,611.477,0.49799999594688416,-2.515900151481024
612.155172,,0.03256721874362242,611.943,0.45899999141693115,-2.600952372335296
612.62069,,0.03338586285215651,612.408,0.4880000054836273,-2.5378270724751584
613.0862070000001,,0.03053756865340978,612.873,0.49000000953674316,-2.5334938864777903
613.551724,,0.025393303520413493,613.338,0.4830000102519989,-2.548735894264568
614.017241,,0.021589536301116773,613.803,0.48399999737739563,-2.5465165829888368
614.4827590000001,,0.020650355469541453,614.268,0.48399999737739563,-2.546445136745072
614.948276,,0.020190615538302203,614.734,0.5,-2.5114864904530307
615.4137929999999,,0.017187517365208564,615.196,0.4830000102519989,-2.5483973415778296
615.8793099999999,,0.012086633353362426,615.659,0.47200000286102295,-2.5722149665169516
616.344828,,0.00851368080755132,616.13,0.49000000953674316,-2.5328354219952582
616.810345,,0.00906195971500741,616.593,0.5130000114440918,-2.4825505971644946
617.275862,,0.01214985343876486,617.063,0.4779999852180481,-2.5586204525654277
617.741379,,0.013339242650568142,617.526,0.48399999737739563,-2.545365126916971
618.206897,,0.009580566113213857,617.984,0.48100000619888306,-2.5517234669860525
618.672414,,0.002037845442575439,618.452,0.4909999966621399,-2.529770647220911
619.137931,,0.005118732885260305,618.917,0.46799999475479126,-2.579729835668013
619.603448,,0.008536119846495636,619.382,0.47600001096725464,-2.562172692519321
620.068966,,0.00847422012928336,619.848,0.48899999260902405,-2.533748097460374
620.534483,,0.00810613524602324,620.312,0.46700000762939453,-2.581604811278604
621.0,,0.01005236430995646,620.778,0.46399998664855957,-2.588098805558915
621.465517,,0.01365948674265025,621.241,0.4699999988079071,-2.57501805259596
621.9310340000001,,0.016103497126844644,621.711,0.46399998664855957,-2.5881143905795017
622.396552,,0.016150105437709172,622.171,0.47999998927116394,-2.5533125267677166
622.862069,,0.01593287823229092,622.641,0.46799999475479126,-2.579542705512095
623.327586,,0.018340838546558286,623.104,0.4830000102519989,-2.5469761391406105
623.793103,,0.02306039460278194,623.567,0.4650000035762787,-2.5863280740788834
624.258621,,0.026089858153230647,624.033,0.48100000619888306,-2.551624538861621
624.724138,,0.02362066442300777,624.495,0.48100000619888306,-2.55179268576669
625.189655,,0.016240450829092156,624.961,0.4699999988079071,-2.575933715315363
625.655172,,0.008942939276941488,625.426,0.4950000047683716,-2.5216453288352274
626.1206900000001,,0.006815070691620504,625.892,0.46399998664855957,-2.589357478729474
626.5862070000001,,0.010565927262579268,626.356,0.47600001096725464,-2.5633786672148284
627.0517239999999,,0.016005694572129945,626.821,0.4650000035762787,-2.5874950097778155
627.5172409999999,,0.017896696309027366,627.286,0.46299999952316284,-2.5919851048806954
627.982759,,0.014678847774703432,627.752,0.46799999475479126,-2.5812022676555224
628.448276,,0.00960375682170394,628.219,0.4699999988079071,-2.5769293192135887
628.913793,,0.00720900595327253,628.681,0.48399999737739563,-2.546483493829947
629.37931,,0.008849132983281546,629.145,0.492000013589859,-2.5290780321325355
629.844828,,0.011757800770740623,629.615,0.46700000762939453,-2.5835358078218285
630.3103450000001,,0.012137264120573718,630.078,0.46399998664855957,-2.5900323476741405
630.7758620000001,,0.008873528584553588,630.541,0.47600001096725464,-2.563819822665329
631.2413789999999,,0.00435262498342466,631.007,0.4880000054836273,-2.5375798446257765
631.706897,,0.001896902794890135,631.471,0.46399998664855957,-2.58974673250899
632.172414,,0.002545463559524885,631.936,0.48500001430511475,-2.5438540420517795
632.637931,,0.004289424088379851,632.4,0.4620000123977661,-2.5938064492620607
633.103448,,0.004211997892823012,632.865,0.46399998664855957,-2.589282690974943
633.568966,,0.0012913521822667498,633.331,0.4779999852180481,-2.5586106035660268
634.034483,,0.0026922863813594704,633.796,0.4880000054836273,-2.53665335229475
634.5,,0.00501472699516343,634.263,0.4779999852180481,-2.5582745083197995
634.9655170000001,,0.00495748301537097,634.729,0.45500001311302185,-2.608229273032762
635.431034,,0.004519479793820328,635.19,0.47200000286102295,-2.5710550962899075
635.8965519999999,,0.005539542963043559,635.66,0.4099999964237213,-2.706016458483499
636.362069,,0.006645161964121906,636.123,0.46799999475479126,-2.579566655202804
636.827586,,0.004607669365958803,636.585,0.4729999899864197,-2.5686135573026383
637.293103,,0.0009230057565386136,637.051,0.4620000123977661,-2.592547691851921
637.7586210000001,,0.0056710422831770645,637.516,0.4819999933242798,-2.54897337641697
638.224138,,0.005073275635177291,637.982,0.4659999907016754,-2.5838595273924194
638.689655,,0.00040659600003640876,638.449,0.4830000102519989,-2.546878105073257
639.155172,,0.00563039513848483,638.915,0.45899999141693115,-2.5992473868092927
639.62069,,0.0061054490258349026,639.375,0.47200000286102295,-2.571030098695393
640.086207,,0.0019521299227550466,639.841,0.47200000286102295,-2.571155203013703
640.551724,,0.0029015035794582975,640.308,0.4909999966621399,-2.529901150347299
641.017241,,0.004242318109243416,640.774,0.47600001096725464,-2.5627312592261764
641.482759,,0.0006391460923197483,641.234,0.46799999475479126,-2.5803165105579944
641.9482760000001,,0.005480999446438284,641.703,0.45399999618530273,-2.610975086187157
642.413793,,0.009337077658175496,642.164,0.47099998593330383,-2.574092371521242
642.87931,,0.00734104130082392,642.634,0.47699999809265137,-2.5611661833115695
643.344828,,0.00016580873926407846,643.097,0.44699999690055847,-2.6266582599836092
643.810345,,0.007526151824663351,643.559,0.49000000953674316,-2.5330918377427394
644.275862,,0.010858532652954103,644.025,0.4650000035762787,-2.5876523720476596
644.7413789999999,,0.008815501595275249,644.496,0.46700000762939453,-2.5833653457071066
645.206897,,0.004808342122781884,644.954,0.47600001096725464,-2.563801910862877
645.672414,,0.0031074332269582987,645.42,0.4620000123977661,-2.5943201941707317
646.1379310000001,,0.004643033930034449,645.885,0.46700000762939453,-2.5834168364115406
646.6034480000001,,0.006406979606963637,646.352,0.46399998664855957,-2.5899160273084374
647.0689659999999,,0.0049295480780270195,646.818,0.48500001430511475,-2.5441018250708316
647.534483,,5.885417216545865e-05,647.282,0.46399998664855957,-2.5897671329994285
648.0,,0.005724684413787173,647.747,0.4959999918937683,-2.519942800564752
648.465517,,0.009419078941848163,648.215,0.44699999690055847,-2.626571610035783
648.931034,,0.010956823760712006,648.678,0.47600001096725464,-2.5632531521879693
649.396552,,0.011505937313583745,649.141,0.47600001096725464,-2.5631072985008974
649.862069,,0.011255494986676664,649.611,0.4729999899864197,-2.5694934526247404
650.327586,,0.009156393378604202,650.071,0.4690000116825104,-2.5780592257599584
650.7931030000001,,0.004854348116949383,650.541,0.46399998664855957,-2.588809912810538
651.258621,,0.00011893090427970381,650.999,0.4650000035762787,-2.586499587204065
651.7241379999999,,0.0021626416072186815,651.464,0.48399999737739563,-2.544988476869732
652.189655,,0.0005325085975662932,651.929,0.47600001096725464,-2.5623187937726737
652.655172,,0.003452312199082658,652.397,0.4819999933242798,-2.5491689431436555
653.12069,,0.006243207501343003,652.863,0.5299999713897705,-2.4445381261930033
653.5862070000001,,0.0053759961011537755,653.33,0.45100000500679016,-2.616619225452721
654.051724,,0.0020142360821732994,653.796,0.4959999918937683,-2.51857372325433
654.517241,,0.00015960791567951914,654.261,0.46799999475479126,-2.5795958860262944
654.982759,,0.0026847570169349494,654.719,0.47099998593330383,-2.573105743816015
655.448276,,0.008196796719115886,655.189,0.47600001096725464,-2.562282850993501
655.9137929999999,,0.012347053867408893,655.652,0.49000000953674316,-2.5318739961006074
656.37931,,0.012201547990398083,656.115,0.4740000069141388,-2.5668431342591362
656.844828,,0.00892366613820867,656.585,0.47600001096725464,-2.5626118079617464
657.310345,,0.0063521594977044345,657.051,0.46399998664855957,-2.588893255980008
657.7758620000001,,0.0075377002786826686,657.516,0.4790000021457672,-2.5563583985570193
658.241379,,0.012578721535794113,657.974,0.4650000035762787,-2.5870069454410594
658.7068969999999,,0.018979147198548273,658.442,0.4819999933242798,-2.550115080668844
659.172414,,0.02372757033918207,658.908,0.47699999809265137,-2.561146161553647
659.637931,,0.025796686386203707,659.374,0.4729999899864197,-2.56998678318369
660.103448,,0.027459661248412138,659.84,0.47600001096725464,-2.5635610532886735
660.568966,,0.032829268723554586,660.304,0.4699999988079071,-2.576723984321714
661.034483,,0.04417394542348197,660.77,0.4690000116825104,-2.5789715790425642
661.5,,0.05950614308307976,661.23,0.4659999907016754,-2.585552450667032
661.965517,,0.07421749211858926,661.7,0.4869999885559082,-2.5398198426152305
662.4310340000001,,0.08490585399253395,662.163,0.48399999737739563,-2.5463475936986297
662.8965519999999,,0.09091795456243248,662.626,0.5009999871253967,-2.5092748302002854
663.362069,,0.09231471097152559,663.089,0.4729999899864197,-2.5702147753802023
663.827586,,0.08771894671269036,663.559,0.4749999940395355,-2.5657714926917694
664.293103,,0.07517745583274887,664.025,0.46799999475479126,-2.580915713447914
664.7586210000001,,0.05437608439860152,664.488,0.4009999930858612,-2.726763497681643
665.224138,,0.026795125974275438,664.954,0.47600001096725464,-2.5632328116138496
665.689655,,0.0056821981152390365,665.419,0.4790000021457672,-2.5565572686003337
666.155172,,0.04057262151155167,665.885,0.4429999887943268,-2.634844951268322
666.62069,,0.07312469316596527,666.345,0.48899999260902405,-2.534484207131758
667.086207,,0.09660586557358006,666.811,0.47999998927116394,-2.5539536429289464
667.5517239999999,,0.10567436759670733,667.275,0.47600001096725464,-2.5625381451618505
668.017241,,0.09980493597711809,667.741,0.46799999475479126,-2.579850282781367
668.482759,,0.08370977981587586,668.204,0.47600001096725464,-2.5623208694681456
668.948276,,0.06508512254273705,668.674,0.46700000762939453,-2.5818486630602746
669.413793,,0.05169788133051224,669.134,0.4650000035762787,-2.5861488356408393
669.87931,,0.0483196175451542,669.604,0.46700000762939453,-2.5817593658023013
670.3448279999999,,0.05375158241938479,670.067,0.47099998593330383,-2.5730385609207214
670.810345,,0.061059786483648314,670.53,0.47699999809265137,-2.5599862147445864
671.275862,,0.06352793045259582,670.995,0.4650000035762787,-2.5861747331089764
671.7413789999999,,0.06144480210520835,671.46,0.46399998664855957,-2.5884222919251365
672.206897,,0.06130568550713622,671.926,0.4729999899864197,-2.568905385013719
672.672414,,0.06768687138004681,672.393,0.45899999141693115,-2.599516564623685
673.137931,,0.0776634741306585,672.858,0.4169999957084656,-2.691146722939587
673.6034480000001,,0.08391297095891222,673.322,0.47200000286102295,-2.5714614503335183
674.068966,,0.08163593247530755,673.788,0.4959999918937683,-2.519321627674223
674.5344829999999,,0.07153404161230945,674.249,0.4650000035762787,-2.587008610081351
675.0,,0.05752305092988591,674.718,0.47600001096725464,-2.5631891821184025
675.465517,,0.04316168705792437,675.179,0.47600001096725464,-2.5633272440366945
675.931034,,0.030021212073051532,675.648,0.46799999475479126,-2.5808823849036178
676.396552,,0.018220506081722525,676.111,0.5019999742507935,-2.5069177571175487
676.862069,,0.00782547090131749,676.574,0.46399998664855957,-2.5897954095971167
677.327586,,0.00042357413360267094,677.039,0.4819999933242798,-2.5506459848953065
677.793103,,0.005960658018540564,677.509,0.47699999809265137,-2.5615808544016847
678.2586210000001,,0.009812237395815564,677.975,0.46299999952316284,-2.592097803996056
678.7241379999999,,0.014311029479765893,678.434,0.4699999988079071,-2.5768374296364343
