Trial: ,3
Threshold: ,0.0
Maximum EMG: ,0.3083637951993488
Success: ,True

EMG Time,Raw EMG,Filtered EMG,Force Time,Raw Force (V),Filtered Force (N)
0.0,samples,2.0935141278437554e-08,0.466,0.5199999809265137,-2.4673843091111314
0.46551699999999996,time,2.1629408207117637e-08,0.933,0.5239999890327454,-2.4588501227345296
0.9310339999999999,value,2.227656759619997e-08,1.399,0.5239999890327454,-2.459016179044373
1.396552,,2.2872278387952274e-08,1.864,0.515999972820282,-2.476592087722415
1.862069,,2.341219541725897e-08,2.33,0.5299999713897705,-2.4462138587725057
2.327586,,2.3891984721213278e-08,2.789,0.5339999794960022,-2.437594080603618
2.793103,,2.430733946996686e-08,3.254,0.5389999747276306,-2.426764279180455
3.258621,,2.465399648888703e-08,3.722,0.5460000038146973,-2.41154342548489
3.724138,,2.4927753338670683e-08,4.185,0.5379999876022339,-2.4289677088964896
4.189654999999999,,2.5124485916634974e-08,4.656,0.5320000052452087,-2.4420004905120516
4.655172,,2.5240166538958938e-08,5.118,0.546999990940094,-2.409249037986692
5.12069,,2.5270882460198576e-08,5.586,0.5289999842643738,-2.4483626015340763
5.586207,,2.521285478295321e-08,6.048,0.5419999957084656,-2.419911096416307
6.051723999999999,,2.5062457707135182e-08,6.513,0.5299999713897705,-2.445903244908912
6.517241,,2.48162380649016e-08,6.974,0.5210000276565552,-2.4653418545175074
6.982759,,2.447093508395901e-08,7.439,0.5529999732971191,-2.39544401551387
7.448276,,2.4023500318663807e-08,7.904,0.5210000276565552,-2.464972719781529
7.913793000000001,,2.347111768512682e-08,8.37,0.5419999957084656,-2.419032557203774
8.379309999999998,,2.281122353340503e-08,8.841,0.5400000214576721,-2.4232063210190793
8.844828000000001,,2.2041526686840962e-08,9.299,0.5210000276565552,-2.4644280527681905
9.310345,,2.1160028375707096e-08,9.767,0.5130000114440918,-2.4817018424687123
9.775862,,2.016504198954324e-08,10.23,0.5249999761581421,-2.4554250506692283
10.241379,,1.9055212569955724e-08,10.7,0.49399998784065247,-2.522856738540543
10.706897,,1.7829535963193625e-08,11.163,0.5440000295639038,-2.413847563598739
11.172414,,1.6487377549545168e-08,11.63,0.5199999809265137,-2.4660897182549752
11.637931,,1.5028490464523173e-08,12.092,0.550000011920929,-2.400716274070587
12.103447999999998,,1.3453033224947448e-08,12.558,0.5429999828338623,-2.4159842295102107
12.568966000000001,,1.1761586671400404e-08,13.02,0.5220000147819519,-2.4617836856170934
13.034483,,9.955170137145626e-09,13.485,0.5339999794960022,-2.435717378459694
13.5,,8.03525675247316e-09,13.951,0.5260000228881836,-2.4532508688428503
13.965517,,6.00378779258513e-09,14.417,0.5249999761581421,-2.455557641452224
14.431034,,3.863185976575975e-09,14.882,0.5189999938011169,-2.468777286597095
14.896552,,1.616367624807549e-09,15.348,0.5249999761581421,-2.455868353741671
15.362069,,7.332464179552054e-10,15.815,0.5329999923706055,-2.4386117085119157
15.827586000000002,,3.181721185883957e-09,16.28,0.5299999713897705,-2.4453241049612173
16.293103,,5.724599413393601e-09,16.741,0.515999972820282,-2.476000074593681
16.758621,,8.356894864804743e-09,17.211,0.5139999985694885,-2.4805258192710364
17.224138,,1.1073087261278636e-08,17.671,0.5419999957084656,-2.4196803240437292
17.689655,,1.386711889208824e-08,18.141,0.527999997138977,-2.4503206534923803
18.155172,,1.67323929950459e-08,18.604,0.5210000276565552,-2.465688799248019
18.62069,,1.9661773988265667e-08,19.067,0.5270000100135803,-2.4527098859784213
19.086207,,2.2647589632388925e-08,19.532,0.5260000228881836,-2.4549538902897083
19.551724,,2.5681635198938758e-08,19.996,0.5099999904632568,-2.4898485154302454
20.017241000000002,,2.8755179716586137e-08,20.461,0.5320000052452087,-2.4419243984087324
20.482758999999998,,3.1858974362805075e-08,20.926,0.5379999876022339,-2.428828115437465
20.948276,,3.4983263063661445e-08,21.392,0.5299999713897705,-2.4462027563983377
21.413793000000002,,3.81177953593198e-08,21.86,0.4909999966621399,-2.5310880950649723
21.87931,,4.1251841587264006e-08,22.325,0.5299999713897705,-2.4460151936258714
22.344828,,4.437421042921231e-08,22.789,0.5180000066757202,-2.4720325070960287
22.810344999999998,,4.74732688612687e-08,23.255,0.527999997138977,-2.450102468618409
23.275862,,5.053696453999438e-08,23.718,0.5339999794960022,-2.436874194852698
23.741379,,5.355285064981273e-08,24.181,0.531000018119812,-2.4432453989676572
24.206897,,5.6508113229486e-08,24.649,0.5299999713897705,-2.4452564766149707
24.672414,,5.938960098733216e-08,25.111,0.5419999957084656,-2.4189471080030005
25.137931,,6.21838576063976e-08,25.582,0.527999997138977,-2.449289867532621
25.603448,,6.48771565319793e-08,26.044,0.5460000038146973,-2.409927988453689
26.068966,,6.745553822471371e-08,26.51,0.5249999761581421,-2.4555502375877647
26.534483,,6.990484985293748e-08,26.975,0.5170000195503235,-2.472871297105155
27.0,,7.22107873881951e-08,27.44,0.5419999957084656,-2.418322090254313
27.465517,,7.435894005764342e-08,27.9,0.5329999923706055,-2.437873880586673
27.931034,,7.633483709670502e-08,28.365,0.5410000085830688,-2.420416996609658
28.396552,,7.812399673467752e-08,28.83,0.5339999794960022,-2.4356691832061714
28.862069,,7.971197733514082e-08,29.295,0.5339999794960022,-2.4357000210265225
29.327586,,8.10844306019487e-08,29.763,0.5419999957084656,-2.418329867331812
29.793103000000002,,8.222715675037669e-08,30.226,0.5519999861717224,-2.396628338005978
30.258620999999998,,8.312616153165589e-08,30.689,0.5329999923706055,-2.4381306214553753
30.724138,,8.376771498769017e-08,31.159,0.5090000033378601,-2.4905467506176615
31.189655000000002,,8.413841180126641e-08,31.619,0.5170000195503235,-2.4732637711281362
31.655172000000004,,8.422523309556354e-08,32.089,0.5070000290870667,-2.4952098808810907
32.12069,,8.401560952528734e-08,32.554,0.5270000100135803,-2.4518047209374707
32.586207,,8.349748549034458e-08,33.017,0.5329999923706055,-2.4389027296312973
33.051724,,8.265938429166686e-08,33.482,0.5299999713897705,-2.445604655568132
33.517241000000006,,8.149047403764562e-08,33.949,0.5379999876022339,-2.428331927247885
33.982759,,7.998063409869252e-08,34.415,0.5230000019073486,-2.461153698620643
34.448276,,7.812052189674115e-08,34.875,0.5339999794960022,-2.4373118617382326
34.913793,,7.590163980610495e-08,35.34,0.5389999747276306,-2.426518874596848
35.37931,,7.331640193205351e-08,35.804,0.5460000038146973,-2.4113417528078362
35.844828,,7.035820052381481e-08,36.27,0.5189999938011169,-2.4702098220589463
36.310345,,6.702147176950668e-08,36.737,0.5289999842643738,-2.4484381794269146
36.775862,,6.330176071179942e-08,37.2,0.5419999957084656,-2.4201002784928103
37.241378999999995,,5.9195785014964204e-08,37.67,0.5239999890327454,-2.459270446966988
37.706897000000005,,5.470149730642402e-08,38.133,0.5249999761581421,-2.457018083318951
38.172414,,4.981814580904615e-08,38.597,0.5239999890327454,-2.4590974443708875
38.637931,,4.454633297425277e-08,39.059,0.5260000228881836,-2.454618454800828
39.103448,,3.888807182063052e-08,39.525,0.5509999990463257,-2.400011661612399
39.568965999999996,,3.284683967814376e-08,39.989,0.5230000019073486,-2.460858269503919
40.034483,,2.642762903435134e-08,40.455,0.531000018119812,-2.4432639439562793
40.5,,1.963699517624402e-08,40.919,0.5419999957084656,-2.4191295413673304
40.965517,,1.2483100319508802e-08,41.385,0.5320000052452087,-2.440747555675589
41.431034,,4.975753916235709e-09,41.852,0.5360000133514404,-2.4318708561605757
41.896552,,2.8735511676410876e-09,42.318,0.453000009059906,-2.6125498587635136
42.362069000000005,,1.1051606912487053e-08,42.786,0.531000018119812,-2.442485838988402
42.827586000000004,,1.95434631474714e-08,43.244,0.5370000004768372,-2.429306753440981
43.293103,,2.8332405596466667e-08,43.711,0.5419999957084656,-2.418329974503393
43.758621,,3.739993926340428e-08,44.181,0.5019999742507935,-2.5054191673388404
44.224138,,4.672577744690201e-08,44.641,0.5199999809265137,-2.4661761663055954
44.689655,,5.628783666643195e-08,45.104,0.5339999794960022,-2.4356778930166425
45.155172,,6.606223777341811e-08,45.569,0.527999997138977,-2.448781731739829
45.620689999999996,,7.602331351041558e-08,46.04,0.4869999885559082,-2.538167128440775
46.086206999999995,,8.614362276990623e-08,46.506,0.5630000233650208,-2.3726774269142443
46.551724,,9.639397179122992e-08,46.97,0.5669999718666077,-2.364072556309572
47.017241,,1.0674344251974294e-07,47.429,0.5419999957084656,-2.4186655884080763
47.482759,,1.1715942833644527e-07,47.9,0.5299999713897705,-2.4449505857237255
47.948276,,1.2760767734904233e-07,48.359,0.5230000019073486,-2.4603531418078646
48.413793,,1.3805234341670402e-07,48.826,0.527999997138977,-2.449618553923084
48.879310000000004,,1.4845604506065904e-07,49.292,0.5289999842643738,-2.4476001280525925
49.344828,,1.5877993239122595e-07,49.759,0.550000011920929,-2.402004663092229
49.810345,,1.689837621589513e-07,50.222,0.5460000038146973,-2.4108659663902934
50.275862,,1.7902598101321892e-07,50.685,0.5440000295639038,-2.415355643097867
50.741379,,1.8886381702604202e-07,51.155,0.5199999809265137,-2.467758088412792
51.206897,,1.9845337951178335e-07,51.619,0.5339999794960022,-2.437351310435477
51.672414,,2.0774976714530834e-07,52.081,0.5260000228881836,-2.4548515363035976
52.137931,,2.1670718435160718e-07,52.547,0.5419999957084656,-2.4200388003909543
52.603448,,2.2527906590927625e-07,53.01,0.5299999713897705,-2.4462011813007947
53.068966,,2.3341820967848546e-07,53.475,0.5360000133514404,-2.433120258644028
53.534483,,2.410769173312413e-07,53.941,0.5139999985694885,-2.48101497251562
54.0,,2.482071429279565e-07,54.407,0.5260000228881836,-2.454810553568096
54.465517,,2.547606491496338e-07,54.874,0.5249999761581421,-2.456905684959711
54.931034,,2.606891709594512e-07,55.34,0.5260000228881836,-2.454622691194157
55.396552,,2.6594458643128596e-07,55.804,0.5339999794960022,-2.437071793891866
55.862069,,2.704790944458351e-07,56.269,0.5170000195503235,-2.4739731452112985
56.327586,,2.742453989175854e-07,56.73,0.531000018119812,-2.443327041904187
56.793102999999995,,2.771968991780642e-07,57.199,0.5789999961853027,-2.338600811215451
57.258621000000005,,2.7928788610268624e-07,57.66,0.5429999828338623,-2.4168782361521752
57.724138,,2.8047374353021377e-07,58.129,0.5230000019073486,-2.4602999162980006
58.189655,,2.807111544855097e-07,58.593,0.5460000038146973,-2.4100481154809477
58.655172,,2.79958311678009e-07,59.055,0.5630000233650208,-2.372880201884372
59.120689999999996,,2.7817513171031096e-07,59.521,0.515999972820282,-2.4751619166189465
59.586207,,2.753234723936438e-07,59.986,0.5249999761581421,-2.455459961293864
60.051724,,2.7136735252982695e-07,60.451,0.5479999780654907,-2.4052807895451203
60.517241,,2.662731734829086e-07,60.919,0.5519999861717224,-2.396520904349048
60.982758999999994,,2.6000994182804756e-07,61.384,0.5299999713897705,-2.444432180966062
61.448276,,2.525494923306009e-07,61.848,0.5130000114440918,-2.481478026568277
61.913793,,2.438667104749393e-07,62.314,0.531000018119812,-2.4422996235787053
62.379310000000004,,2.3393975373040902e-07,62.778,0.5419999957084656,-2.4183985119294418
62.84482800000001,,2.2275027071126736e-07,63.244,0.515999972820282,-2.4751318379160567
63.310345000000005,,2.1028361735851058e-07,63.704,0.5740000009536743,-2.348879838033502
63.775862000000004,,1.9652906924446447e-07,64.174,0.5339999794960022,-2.43615252134658
64.241379,,1.8148002907599583e-07,64.637,0.5329999923706055,-2.4384712512576
64.706897,,1.6513422844940424e-07,65.1,0.5220000147819519,-2.462586543622117
65.172414,,1.4749392288964582e-07,65.565,0.5189999938011169,-2.4692786450545534
65.637931,,1.285660791886991e-07,66.029,0.5170000195503235,-2.4737933777350642
66.103448,,1.0836255404278275e-07,66.494,0.4429999887943268,-2.635168907944607
66.56896599999999,,8.69002629759466e-08,66.963,0.5260000228881836,-2.4544905627417317
67.03448300000001,,6.420133852845262e-08,67.428,0.515999972820282,-2.476414528699979
67.5,,4.029327668250491e-08,67.893,0.5210000276565552,-2.465640407879752
67.965517,,1.5209070495439374e-08,68.358,0.5329999923706055,-2.4395935434291594
68.431034,,1.1012670088399564e-08,68.822,0.5479999780654907,-2.406984116893354
68.896552,,3.8327613271036636e-08,69.288,0.5270000100135803,-2.45277651259047
69.362069,,6.668561629474924e-08,69.756,0.5490000247955322,-2.4048561570189717
69.827586,,9.60306531990249e-08,70.218,0.5630000233650208,-2.374332977427214
70.293103,,1.2630076042635577e-07,70.686,0.5299999713897705,-2.446174646176006
70.75862099999999,,1.574280012415897e-07,71.148,0.5389999747276306,-2.4264836363821494
71.22413800000001,,1.8933844990416647e-07,71.611,0.546999990940094,-2.4089447607524153
71.689655,,2.2195219650273173e-07,72.074,0.5270000100135803,-2.4523850444626194
72.15517200000001,,2.551833733272558e-07,72.539,0.5230000019073486,-2.4609490095343394
72.62069,,2.889402036148149e-07,73.006,0.5529999732971191,-2.395425871296377
73.086207,,3.231250734615611e-07,73.472,0.5080000162124634,-2.4932933862997664
73.551724,,3.5763462764506404e-07,73.937,0.550000011920929,-2.401616645118069
74.017241,,3.923598900481275e-07,74.402,0.5170000195503235,-2.473342326958052
74.482759,,4.2718640931734666e-07,74.867,0.515999972820282,-2.4753612057513514
74.94827599999999,,4.619944303270803e-07,75.333,0.5419999957084656,-2.418571731462694
75.41379300000001,,4.966590919521809e-07,75.801,0.5419999957084656,-2.418446359545412
75.87931,,5.310506515807959e-07,76.259,0.5429999828338623,-2.416165219796865
76.344828,,5.650347367218737e-07,76.73,0.5239999890327454,-2.457483659436543
76.810345,,5.984726239807522e-07,77.192,0.5289999842643738,-2.4465443859564315
77.275862,,6.312215455904729e-07,77.66,0.5419999957084656,-2.418207285948426
77.741379,,6.631350235963486e-07,78.122,0.49000000953674316,-2.531514776312949
78.206897,,6.940632316969676e-07,78.585,0.5759999752044678,-2.344200787388552
78.67241399999999,,7.238533846463794e-07,79.055,0.5180000066757202,-2.470641450397731
79.137931,,7.523501550198609e-07,79.514,0.5370000004768372,-2.429353211954822
79.603448,,7.793961170395989e-07,79.981,0.5509999990463257,-2.3989819402521078
80.068966,,8.048322170470627e-07,80.447,0.5170000195503235,-2.4732050989156975
80.53448300000001,,8.284982700960242e-07,80.911,0.5339999794960022,-2.4363324725588495
81.0,,8.502334820243595e-07,81.377,0.5189999938011169,-2.4691866426033724
81.465517,,8.698769962442402e-07,81.844,0.5239999890327454,-2.458472454390637
81.931034,,8.872684643693762e-07,82.31,0.5460000038146973,-2.4107195586941796
82.396552,,9.022486396749566e-07,82.771,0.5270000100135803,-2.4522832375313204
82.86206899999999,,9.146599922611723e-07,83.24,0.527999997138977,-2.450260561906426
83.327586,,9.243473446650886e-07,83.7,0.5189999938011169,-2.4700062197131807
83.79310299999999,,9.311585265385426e-07,84.17,0.5239999890327454,-2.459228224761691
84.258621,,9.349450468820868e-07,84.633,0.527999997138977,-2.450602240532771
84.72413800000001,,9.355627821972137e-07,85.096,0.5339999794960022,-2.4375889395107047
85.189655,,9.328726787916272e-07,85.562,0.5299999713897705,-2.4463296722299077
85.65517200000001,,9.267414673456521e-07,86.024,0.531000018119812,-2.4441435402308302
86.12069,,9.170423877224592e-07,86.491,0.5400000214576721,-2.4244946998775956
86.586207,,9.036559218811531e-07,86.956,0.5230000019073486,-2.461458277984054
87.051724,,8.864705326304258e-07,87.422,0.5389999747276306,-2.4264963241936
87.517241,,8.653834058419558e-07,87.889,0.5210000276565552,-2.465581430472809
87.98275899999999,,8.403011936275845e-07,88.354,0.5540000200271606,-2.393532608319736
88.448276,,8.111407558730671e-07,88.819,0.5080000162124634,-2.4935790021591706
88.913793,,7.778298974144574e-07,89.284,0.5339999794960022,-2.4367508267890563
89.37931,,7.403080980415049e-07,89.744,0.5249999761581421,-2.4561694330026644
89.844828,,6.985272324164096e-07,90.214,0.5329999923706055,-2.4385509825120617
90.310345,,6.524522769064745e-07,90.674,0.5170000195503235,-2.4732265068601085
90.775862,,6.020620002462137e-07,91.144,0.515999972820282,-2.47523538514002
91.241379,,5.473496348688954e-07,91.607,0.515999972820282,-2.475084422337644
91.706897,,4.883235256799267e-07,92.07,0.5289999842643738,-2.4466347114572615
92.17241399999999,,4.250077529854929e-07,92.536,0.550000011920929,-2.400782877839212
92.63793100000001,,3.574427262400403e-07,92.999,0.5249999761581421,-2.455179007220546
93.103448,,2.8568574523610904e-07,93.465,0.5540000200271606,-2.391960343131276
93.568966,,2.0981152533023729e-07,93.932,0.5479999780654907,-2.405027984068287
94.03448300000001,,1.2991268327973382e-07,94.397,0.5210000276565552,-2.463881057057625
94.5,,4.6100180257577816e-08,94.864,0.5299999713897705,-2.444337277036734
94.965517,,4.1496281382921695e-08,95.33,0.5299999713897705,-2.4444338932994256
95.431034,,1.327279110052935e-07,95.789,0.5260000228881836,-2.453274712980969
95.896552,,2.2742653563082058e-07,96.255,0.5509999990463257,-2.3989604143154803
96.36206899999999,,3.2540436226212714e-07,96.723,0.5680000185966492,-2.362094874174093
96.827586,,4.264537998715994e-07,97.185,0.5370000004768372,-2.4298183675532314
97.293103,,5.303473442658963e-07,97.656,0.5370000004768372,-2.4300125341917473
97.758621,,6.36837528952391e-07,98.118,0.5299999713897705,-2.4454607588210733
98.224138,,7.456569450331428e-07,98.586,0.5410000085830688,-2.421690399121347
98.689655,,8.56518333036637e-07,99.048,0.5299999713897705,-2.445841429385892
99.155172,,9.69114749466817e-07,99.513,0.5379999876022339,-2.4285830167871896
99.62069,,1.08311981070267e-06,99.978,0.5299999713897705,-2.4461625605944843
100.086207,,1.1981880167196646e-06,100.444,0.5339999794960022,-2.4375728679877713
100.551724,,1.3139551569265653e-06,100.904,0.5339999794960022,-2.437668192602256
101.017241,,1.4300388002175312e-06,101.369,0.5180000066757202,-2.4725891679229655
101.482759,,1.5460388711299297e-06,101.834,0.5090000033378601,-2.4922254471301755
101.948276,,1.6615383137730515e-06,102.299,0.5249999761581421,-2.4573603958539105
102.413793,,1.7761038449519915e-06,102.767,0.5440000295639038,-2.415923083519934
102.87931,,1.889286797654576e-06,103.23,0.5460000038146973,-2.411486728305226
103.344828,,2.0006240557975748e-06,103.7,0.47999998927116394,-2.5551651555703017
103.810345,,2.1096390808418842e-06,104.163,0.5400000214576721,-2.4243048263636386
104.275862,,2.215843030585254e-06,104.626,0.515999972820282,-2.4764258912425854
104.741379,,2.318735970125931e-06,105.089,0.531000018119812,-2.4435585248439162
105.206897,,2.417808174661791e-06,105.555,0.5640000104904175,-2.371459578234229
105.672414,,2.5125415234477226e-06,106.025,0.546999990940094,-2.408282126781818
106.13793100000001,,2.6024109838798843e-06,106.49,0.5210000276565552,-2.464708585686171
106.603448,,2.6868861843096747e-06,106.949,0.5289999842643738,-2.4470653821018553
107.068966,,2.765433073813687e-06,107.414,0.5410000085830688,-2.4207184867677545
107.534483,,2.8375156667593703e-06,107.879,0.5419999957084656,-2.418353830928434
108.0,,2.902597869610606e-06,108.344,0.5170000195503235,-2.4726573282436966
108.46551699999999,,2.9601453870139183e-06,108.811,0.5360000133514404,-2.4311297060820687
108.931034,,3.0096277037956652e-06,109.277,0.5180000066757202,-2.4702461723454383
109.396552,,3.0505201390844654e-06,109.74,0.5239999890327454,-2.457112902058031
109.862069,,3.082305968352551e-06,110.21,0.5189999938011169,-2.467985124218289
110.32758600000001,,3.1044786087460107e-06,110.671,0.5529999732971191,-2.3939310173107518
110.793103,,3.1165438626483646e-06,111.14,0.5270000100135803,-2.4506357913647587
111.258621,,3.11802221399601e-06,111.604,0.5210000276565552,-2.46380667077604
111.724138,,3.1084511714393403e-06,112.066,0.5429999828338623,-2.4160121539915234
112.189655,,3.0873876520212986e-06,112.532,0.5130000114440918,-2.481539838166771
112.655172,,3.0544103986274186e-06,112.996,0.5199999809265137,-2.466485835449311
113.12069,,3.0091224240497002e-06,113.462,0.5540000200271606,-2.392630085025082
113.586207,,2.951153474102694e-06,113.929,0.5210000276565552,-2.4647583503901562
114.051724,,2.880162501835701e-06,114.395,0.5299999713897705,-2.4453911504974712
114.51724100000001,,2.795840144501842e-06,114.86,0.5249999761581421,-2.4565254151595743
114.982759,,2.6979111945747807e-06,115.325,0.5180000066757202,-2.472009949213604
115.448276,,2.5861370557489795e-06,115.79,0.5509999990463257,-2.400333862330604
115.913793,,2.460318174521423e-06,116.255,0.531000018119812,-2.4441035501800012
116.37931,,2.320296437633739e-06,116.719,0.5270000100135803,-2.452986082779461
116.84482799999999,,2.1659575253555015e-06,117.181,0.5230000019073486,-2.4618347883771228
117.310345,,1.9972332103141807e-06,117.645,0.5460000038146973,-2.411821320575918
117.77586199999999,,1.8141035913267162e-06,118.115,0.5460000038146973,-2.4118739688320985
118.241379,,1.6165992514639266e-06,118.585,0.5429999828338623,-2.418417344072239
118.70689700000001,,1.4048033293839583e-06,119.04,0.5210000276565552,-2.466309536851427
119.172414,,1.1788534928066044e-06,119.506,0.5299999713897705,-2.4466199697241913
119.63793100000001,,9.389438028685156e-07,119.97,0.5270000100135803,-2.4530324609118024
120.103448,,6.853264580019668e-07,120.436,0.515999972820282,-2.4768364513350765
120.568966,,4.1831340591875023e-07,120.9,0.5270000100135803,-2.4526771250899495
121.034483,,1.3827781225773878e-07,121.366,0.5339999794960022,-2.4372051203482314
121.5,,1.5434462552858476e-07,121.831,0.5249999761581421,-2.4565704120339893
121.96551699999999,,4.5905453041513804e-07,122.296,0.5490000247955322,-2.4040263019570682
122.431034,,7.752878754380712e-07,122.759,0.527999997138977,-2.4495152958085233
122.896552,,1.1024152018409534e-06,123.229,0.531000018119812,-2.4427188115531617
123.362069,,1.4397410366611716e-06,123.689,0.550000011920929,-2.401074354977609
123.827586,,1.7865035204455046e-06,124.159,0.5440000295639038,-2.413913761415376
124.293103,,2.1418742554965185e-06,124.622,0.5419999957084656,-2.4180637991559384
124.758621,,2.5049583847146357e-06,125.085,0.5540000200271606,-2.3917445328720444
125.22413800000001,,2.8747949107135037e-06,125.551,0.5210000276565552,-2.46350255537319
125.68965500000002,,3.250357264447865e-06,126.021,0.5419999957084656,-2.4176570526502763
126.15517200000001,,3.6305541321028388e-06,126.479,0.5260000228881836,-2.4524684894407223
126.62069000000001,,4.014230548450876e-06,126.945,0.5370000004768372,-2.4285055609392936
127.086207,,4.40016926428731e-06,127.411,0.5230000019073486,-2.459058487880105
127.55172400000001,,4.787092394907228e-06,127.878,0.5270000100135803,-2.4504445255902243
128.017241,,5.1736633558854445e-06,128.344,0.5249999761581421,-2.4549488294035444
128.48275900000002,,5.558489091667771e-06,128.804,0.5419999957084656,-2.418100448488357
128.948276,,5.940122601676015e-06,129.269,0.4880000054836273,-2.535972791424718
129.413793,,6.317065767771836e-06,129.737,0.5329999923706055,-2.4381895668248452
129.87931,,6.687772486016557e-06,130.199,0.5180000066757202,-2.4711476114332096
130.344828,,7.050652104706316e-06,130.667,0.5299999713897705,-2.44529539830259
130.81034499999998,,7.404073169655808e-06,131.129,0.5130000114440918,-2.4826279400938387
131.275862,,7.74636747665078e-06,131.6,0.5170000195503235,-2.474203890795027
131.741379,,8.075834429891236e-06,132.063,0.5270000100135803,-2.452693534825297
132.206897,,8.390745704105813e-06,132.529,0.5180000066757202,-2.47255372073553
132.67241399999997,,8.689350206835273e-06,132.993,0.5289999842643738,-2.448808742475074
133.13793099999998,,8.969879336162e-06,133.458,0.5289999842643738,-2.4489889548441877
133.60344800000001,,9.230552527905342e-06,133.922,0.5210000276565552,-2.4665520796926703
134.06896600000002,,9.469583085012746e-06,134.388,0.5299999713897705,-2.447027525324555
134.53448300000002,,9.685184280556812e-06,134.853,0.5299999713897705,-2.4470564292137396
135.0,,9.875575724402308e-06,135.318,0.5249999761581421,-2.4579227322810344
135.465517,,1.0038989982238315e-05,135.785,0.5450000166893005,-2.4142669899168374
135.931034,,1.0173679434282989e-05,136.244,0.5669999718666077,-2.3661994278347818
136.396552,,1.0277923359566067e-05,136.711,0.5249999761581421,-2.457514104907858
136.862069,,1.0350035230281551e-05,137.181,0.46799999475479126,-2.5814651498842136
137.327586,,1.0388370199284628e-05,137.641,0.5270000100135803,-2.452658436395341
137.793103,,1.039133276238747e-05,138.104,0.5210000276565552,-2.4654366188421433
138.258621,,1.0357384575693335e-05,138.569,0.5410000085830688,-2.4215505481405595
138.724138,,1.0285052406802468e-05,139.041,0.5040000081062317,-2.5018378522471743
139.189655,,1.0172936197332086e-05,139.499,0.5460000038146973,-2.410012713649669
139.655172,,1.0019717212821815e-05,139.964,0.5540000200271606,-2.3922716886831403
140.12069,,9.824166254751176e-06,140.43,0.5389999747276306,-2.4246590841606555
140.586207,,9.585151908082896e-06,140.897,0.5170000195503235,-2.4723265990812147
141.05172399999998,,9.301648796471157e-06,141.362,0.5370000004768372,-2.428530242192195
141.51724099999998,,8.9727458160434e-06,141.83,0.5419999957084656,-2.4174600069774743
141.982759,,8.5976543174844e-06,142.296,0.5260000228881836,-2.452193674127045
142.44827600000002,,8.175716205028368e-06,142.756,0.503000020980835,-2.5022358059483767
142.913793,,7.706411919905248e-06,143.219,0.515999972820282,-2.4739082032881936
143.37931,,7.189368274797831e-06,143.689,0.503000020980835,-2.502287779543068
143.844828,,6.624366104953113e-06,144.151,0.5299999713897705,-2.4435825947270846
144.310345,,6.0113477007611796e-06,144.619,0.5339999794960022,-2.4350431229852516
144.77586200000002,,5.350423985874375e-06,145.081,0.4779999852180481,-2.557274799595943
145.241379,,4.64188140429503e-06,145.547,0.5270000100135803,-2.4507947103836902
145.706897,,3.8861884793181155e-06,146.01,0.5249999761581421,-2.4554631208616904
146.172414,,3.0840020067821273e-06,146.476,0.5519999861717224,-2.39697679682305
146.637931,,2.2361728447636257e-06,146.941,0.5389999747276306,-2.4256513172021745
147.103448,,1.34375126165417e-06,147.406,0.5260000228881836,-2.454329601127489
147.568966,,4.0799180448895635e-07,147.87,0.5339999794960022,-2.4372495778618024
148.034483,,5.696423505400896e-07,148.336,0.5139999985694885,-2.481153837128313
148.5,,1.5874756032521032e-06,148.8,0.5389999747276306,-2.426990619214366
148.965517,,2.6436167278456855e-06,149.266,0.5789999961853027,-2.340107995422101
149.43103399999998,,3.7359563014933684e-06,149.734,0.527999997138977,-2.451433232351777
149.89655199999999,,4.8621647995399535e-06,150.196,0.5379999876022339,-2.4298054704394083
150.362069,,6.019691392877248e-06,150.659,0.5170000195503235,-2.475655914702036
150.82758600000003,,7.205763482100822e-06,151.129,0.4950000047683716,-2.523622769067816
151.293103,,8.417387001922417e-06,151.593,0.5419999957084656,-2.4211992144575856
151.758621,,9.651347528011366e-06,152.055,0.5339999794960022,-2.4385369644033594
152.224138,,1.0904212216967306e-05,152.52,0.5180000066757202,-2.4732415308367233
152.68965500000002,,1.2172332608482272e-05,152.985,0.5410000085830688,-2.4229212798317468
153.155172,,1.345184831693161e-05,153.451,0.5299999713897705,-2.44662354790447
153.62069,,1.47386916376387e-05,153.919,0.5270000100135803,-2.4528528091482587
154.086207,,1.6028593090887935e-05,154.385,0.527999997138977,-2.4503336375795715
154.551724,,1.731708792441372e-05,154.844,0.5509999990463257,-2.3998603338300897
155.017241,,1.8599523592571463e-05,155.31,0.5320000052452087,-2.4408773306743536
155.482759,,1.987106822770075e-05,155.782,0.5379999876022339,-2.427427255292312
155.948276,,2.112672011632343e-05,156.241,0.5260000228881836,-2.453204240421187
156.413793,,2.2361318189782883e-05,156.704,0.5400000214576721,-2.4223597461905815
156.87931,,2.35695535357288e-05,157.174,0.5249999761581421,-2.4547305819981777
157.34482799999998,,2.47459819334888e-05,157.634,0.5249999761581421,-2.454466380823836
157.81034499999998,,2.588503741284892e-05,158.104,0.5210000276565552,-2.4629705586924193
158.275862,,2.6981046832095444e-05,158.57,0.5260000228881836,-2.4519280413440367
158.741379,,2.8028245467357205e-05,159.033,0.515999972820282,-2.473631632143207
159.20689700000003,,2.9020793601337772e-05,159.499,0.5299999713897705,-2.443116910444568
159.672414,,2.995279409544895e-05,159.964,0.5320000052452087,-2.4388157930292262
160.137931,,3.0818310925159794e-05,160.429,0.5410000085830688,-2.4193322559818697
160.60344800000001,,3.161138865406877e-05,160.889,0.36399999260902405,-2.8051450189993608
161.06896600000002,,3.2326072817801426e-05,161.355,0.531000018119812,-2.4415674464613177
161.534483,,3.295643118434302e-05,161.819,0.5270000100135803,-2.4505932083080526
162.0,,3.349657585284788e-05,162.284,0.5339999794960022,-2.4356951761983967
162.465517,,3.3940686148337126e-05,162.752,0.5370000004768372,-2.429541488903293
162.931034,,3.428303226501829e-05,163.215,0.5299999713897705,-2.445191976417992
163.396552,,3.4517999606248465e-05,163.685,0.5270000100135803,-2.4521327942080684
163.862069,,3.4640113764432276e-05,164.148,0.503000020980835,-2.50481811650977
164.327586,,3.464406607941355e-05,164.616,0.5299999713897705,-2.446372939422598
164.793103,,3.45247397092013e-05,165.078,0.5429999828338623,-2.418396177118021
165.258621,,3.427723614218457e-05,165.543,0.5299999713897705,-2.4470198386192443
165.72413799999998,,3.3896902075354554e-05,166.007,0.492000013589859,-2.5300562489082687
166.189655,,3.337935657848475e-05,166.473,0.5230000019073486,-2.4627055543567367
166.655172,,3.272051845974064e-05,166.938,0.5329999923706055,-2.441039158265668
167.12069,,3.1916633743818014e-05,167.403,0.5230000019073486,-2.4628734538386508
167.58620699999997,,3.096430316946542e-05,167.87,0.5460000038146973,-2.4127379956218156
168.051724,,2.9860509609150508e-05,168.329,0.5249999761581421,-2.4583890794904653
168.517241,,2.8602645309704234e-05,168.801,0.5230000019073486,-2.4625749480180463
168.98275900000002,,2.7188538849041757e-05,169.259,0.6110000014305115,-2.2706157263752167
169.44827600000002,,2.5616481700536362e-05,169.73,0.5289999842643738,-2.4489659038027325
169.913793,,2.3885254293334124e-05,170.192,0.5210000276565552,-2.4660459627919873
170.37931,,2.1994151453864535e-05,170.66,0.5180000066757202,-2.4721960328769463
170.844828,,1.994300711104782e-05,171.122,0.5379999876022339,-2.428212554435792
171.310345,,1.773221814524455e-05,171.59,0.5410000085830688,-2.42125386752382
171.775862,,1.536276725885955e-05,172.052,0.5009999871253967,-2.507978931480555
172.241379,,1.2836244744721335e-05,172.518,0.5339999794960022,-2.4356787553805668
172.706897,,1.0154869026931513e-05,172.982,0.5339999794960022,-2.435302805053617
173.172414,,7.321505847836752e-06,173.448,0.527999997138977,-2.4480392448770485
173.637931,,4.33968597413903e-06,173.915,0.5170000195503235,-2.4717208378263966
174.103448,,1.213621294948226e-06,174.38,0.5410000085830688,-2.4192110814340313
174.568966,,2.0517808151866432e-06,174.845,0.5299999713897705,-2.44302227667328
175.034483,,5.4509049945365775e-06,175.304,0.531000018119812,-2.4407628011937184
175.5,,8.977417378836493e-06,175.778,0.5199999809265137,-2.4647238262472073
175.96551699999998,,1.2624257195737135e-05,176.237,0.5249999761581421,-2.453903610548426
176.43103399999998,,1.6383630590305174e-05,176.705,0.5649999976158142,-2.3669050007176007
176.896552,,2.0247006800102275e-05,177.167,0.527999997138977,-2.447731425158127
177.36206900000002,,2.4205116795125074e-05,177.63,0.5879999995231628,-2.3172906815023033
177.827586,,2.824795449408807e-05,178.1,0.5210000276565552,-2.4635911911841055
178.293103,,3.236478066416992e-05,178.565,0.5379999876022339,-2.4269288969300478
178.758621,,3.654412960641227e-05,179.028,0.5260000228881836,-2.4534799345472025
179.224138,,4.077381872345134e-05,179.494,0.5329999923706055,-2.438656591818582
179.68965500000002,,4.504096106017133e-05,179.96,0.5529999732971191,-2.3955166323807346
180.155172,,4.933198090119099e-05,180.426,0.5540000200271606,-2.3937620225244327
180.62069,,5.363263250183006e-05,180.885,0.527999997138977,-2.450808780476759
181.086207,,5.792802202135027e-05,181.35,0.527999997138977,-2.4511763782831557
181.551724,,6.220263271882891e-05,181.816,0.527999997138977,-2.4514983933824026
182.01724099999998,,6.64403534630068e-05,182.281,0.5329999923706055,-2.440871039962695
182.482759,,7.062451059786319e-05,182.749,0.5220000147819519,-2.465037168672038
182.948276,,7.47379031955181e-05,183.211,0.5299999713897705,-2.4477377027657146
183.413793,,7.876284171735868e-05,183.674,0.515999972820282,-2.478292685405551
183.87931,,8.268119009304501e-05,184.144,0.5419999957084656,-2.4216236658724424
184.34482799999998,,8.647441121528932e-05,184.604,0.5429999828338623,-2.4193425577121617
184.81034499999998,,9.01236158360398e-05,185.074,0.5270000100135803,-2.4540225941557297
185.27586200000002,,9.360961483695834e-05,185.54,0.5199999809265137,-2.469025067349758
185.74137900000002,,9.691297483388493e-05,185.999,0.5320000052452087,-2.442571075819228
186.206897,,0.00010001407706135827,186.464,0.5230000019073486,-2.46181610439145
186.672414,,0.00010289317946924088,186.933,0.5180000066757202,-2.4723052499363978
187.137931,,0.0001055304819491115,187.399,0.5429999828338623,-2.417406155913009
187.60344800000001,,0.0001079061945933732,187.864,0.5419999957084656,-2.419135744613352
188.06896600000002,,0.00011000060887502011,188.329,0.5529999732971191,-2.3947189959239226
188.534483,,0.00011179417162074892,188.789,0.48899999260902405,-2.5337133506348457
189.0,,0.00011326756163463883,189.255,0.5540000200271606,-2.391689423141852
189.465517,,0.00011440176881399927,189.726,0.5389999747276306,-2.4239973328127378
189.931034,,0.00011517817558324875,190.189,0.46799999475479126,-2.5783618949276286
190.39655199999999,,0.00011557864045589009,190.652,0.5299999713897705,-2.443030832573574
190.862069,,0.0001155855835188415,191.115,0.5170000195503235,-2.4711705596040336
191.327586,,0.00011518207361762439,191.585,0.5230000019073486,-2.4579936522011585
191.793103,,0.00011435191700525712,192.048,0.5339999794960022,-2.4340045348894903
192.25862099999998,,0.00011307974720221666,192.514,0.5210000276565552,-2.462384698877758
192.72413799999998,,0.00011135111579957174,192.979,0.515999972820282,-2.473416650988516
193.189655,,0.00010915258392242352,193.444,0.5180000066757202,-2.469274982816843
193.655172,,0.00010647181405618024,193.904,0.5049999952316284,-2.4978840287828596
194.12069000000002,,0.00010329766192400661,194.37,0.515999972820282,-2.47426784390083
194.586207,,9.962026809009633e-05,194.834,0.5249999761581421,-2.4550600645381713
195.051724,,9.54311489502864e-05,195.3,0.5339999794960022,-2.4358902319308795
195.517241,,9.072328675903453e-05,195.77,0.5230000019073486,-2.460317237282624
195.98275900000002,,8.549121832998938e-05,196.233,0.5239999890327454,-2.4586100971966696
196.448276,,7.973112203636769e-05,196.696,0.5540000200271606,-2.393716308382182
196.913793,,7.344090272718528e-05,197.159,0.527999997138977,-2.450805855997534
197.37931,,6.662027416614359e-05,197.63,0.531000018119812,-2.4446795842586213
197.844828,,5.9270838591720885e-05,198.092,0.5009999871253967,-2.510401848878627
198.310345,,5.139616298982979e-05,198.558,0.5299999713897705,-2.447525688217601
198.775862,,4.300185166435069e-05,199.02,0.5379999876022339,-2.430332495556471
199.241379,,3.4095614686005e-05,199.486,0.5379999876022339,-2.4304913854830374
199.706897,,2.4687331796460176e-05,199.953,0.5809999704360962,-2.336885016042968
200.172414,,1.4789111342327594e-05,200.418,0.5210000276565552,-2.4675928715478928
200.63793099999998,,4.41534381289019e-06,200.885,0.5239999890327454,-2.4609610901055876
201.103448,,6.417250443959208e-06,201.351,0.5339999794960022,-2.4389974353676407
201.568966,,1.768957975091421e-05,201.815,0.5180000066757202,-2.4736026051158237
202.034483,,2.9380146295171473e-05,202.281,0.5299999713897705,-2.4471377672422623
202.5,,4.146501840125313e-05,202.741,0.503000020980835,-2.5055824292228293
202.965517,,5.391781028982966e-05,203.211,0.5170000195503235,-2.4746572653962917
203.431034,,6.670966972080964e-05,203.671,0.531000018119812,-2.4436997200072663
203.896552,,7.980927390835468e-05,204.14,0.5180000066757202,-2.4715470467853726
204.36206900000002,,9.318283408305286e-05,204.604,0.5329999923706055,-2.438388325445058
204.827586,,0.00010679410906220884,205.066,0.5130000114440918,-2.4814934497539842
205.293103,,0.00012060442817305537,205.532,0.5389999747276306,-2.424406704105275
205.758621,,0.00013457272385563858,205.996,0.5540000200271606,-2.3913238379635042
206.224138,,0.00014865557425216113,206.462,0.5019999742507935,-2.504262268946819
206.689655,,0.00016280725606767344,206.929,0.527999997138977,-2.447329881788406
207.155172,,0.00017697980796318023,207.395,0.5199999809265137,-2.4645449846511482
207.62069,,0.00019112310471648155,207.86,0.531000018119812,-2.4404454930625072
208.086207,,0.00020518494235840444,208.319,0.5289999842643738,-2.444752657969709
208.551724,,0.00021911113446252125,208.786,0.5120000243186951,-2.4818254546819127
209.01724099999998,,0.0002328456197350196,209.252,0.5270000100135803,-2.4492671495401366
209.482759,,0.0002463305810181194,209.715,0.515999972820282,-2.473435702191411
209.948276,,0.0002595065757853673,210.185,0.5540000200271606,-2.3909254262427915
210.413793,,0.0002723126781703262,210.648,0.5419999957084656,-2.417413397498519
210.87930999999998,,0.0002846866325316777,211.111,0.515999972820282,-2.4744577122045155
211.344828,,0.0002965650185176326,211.578,0.5210000276565552,-2.4640077589582456
211.810345,,0.00030788342755087785,212.041,0.5180000066757202,-2.471017796614122
212.27586200000002,,0.0003185766506121585,212.506,0.5339999794960022,-2.436649097729741
212.741379,,0.00032857887715609943,212.971,0.5189999938011169,-2.4698184525335605
213.206897,,0.0003378239049471078,213.436,0.5339999794960022,-2.437613038675508
213.672414,,0.00034624536055628374,213.901,0.5249999761581421,-2.457664799631289
214.137931,,0.0003537769302123186,214.367,0.5260000228881836,-2.455885607096166
214.60344800000001,,0.0003603526006505096,214.833,0.5299999713897705,-2.4475137282212023
215.068966,,0.00036590690955440314,215.299,0.5249999761581421,-2.4586816326685557
215.534483,,0.00037037520513434635,215.759,0.527999997138977,-2.45234361425131
216.0,,0.0003736939143365313,216.229,0.5339999794960022,-2.439386471974862
216.465517,,0.0003758008191251253,216.689,0.527999997138977,-2.4524857720282567
216.93103399999998,,0.0003766353402289622,217.158,0.5370000004768372,-2.4328169241923185
217.39655199999999,,0.00037613882769321213,217.619,0.5529999732971191,-2.3978102993275674
217.862069,,0.00037425485752562817,218.089,0.5460000038146973,-2.412828976155287
218.327586,,0.00037092953367659444,218.555,0.5299999713897705,-2.4473794877600255
218.793103,,0.0003661117945424666,219.018,0.5210000276565552,-2.4666135472002364
219.25862099999998,,0.0003597537231328155,219.483,0.5249999761581421,-2.4574718706170344
219.724138,,0.00035181085999436883,219.948,0.5260000228881836,-2.4548257136986025
220.18965500000002,,0.00034224251793791796,220.414,0.5419999957084656,-2.419473949552385
220.65517200000002,,0.00033101209756944205,220.878,0.5410000085830688,-2.4211479513160588
221.12069,,0.00031808740258343175,221.344,0.5460000038146973,-2.40975440233118
221.586207,,0.00030344095373509874,221.804,0.5210000276565552,-2.4637406439022747
222.051724,,0.0002870503003690742,222.27,0.5080000162124634,-2.4916198120868707
222.517241,,0.0002688983283455666,222.737,0.5130000114440918,-2.4803348276689006
222.98275900000002,,0.0002489735631710101,223.2,0.527999997138977,-2.4473271157040055
223.448276,,0.00022727046710922907,223.671,0.5370000004768372,-2.4274645943010853
223.913793,,0.0002037897290213134,224.133,0.5249999761581421,-2.4534348299132778
224.37931,,0.00017853854565797147,224.597,0.4440000057220459,-2.62982019520331
224.844828,,0.00015153089310735517,225.059,0.5320000052452087,-2.438106741838628
225.31034499999998,,0.00012278778708446736,225.525,0.515999972820282,-2.473064025073283
225.775862,,9.233753073550435e-05,225.992,0.5249999761581421,-2.453641810390989
226.241379,,6.021594862205645e-05,226.458,0.5339999794960022,-2.4343003452769034
226.706897,,2.6466605546194494e-05,226.924,0.5410000085830688,-2.4193878463501095
227.172414,,8.858991121651693e-06,227.39,0.5440000295639038,-2.413250576438447
227.63793099999998,,4.570120694420938e-05,227.849,0.5339999794960022,-2.435483965491521
228.103448,,8.39921150693446e-05,228.315,0.5519999861717224,-2.396749128040566
228.56896600000002,,0.00012365535133719447,228.782,0.527999997138977,-2.4495365800654127
229.03448300000002,,0.00016460599112536972,229.248,0.5370000004768372,-2.4304324706600573
229.5,,0.0002067504491876501,229.711,0.5289999842643738,-2.448353865837747
229.965517,,0.00024998640370793476,230.181,0.5410000085830688,-2.422675201221794
230.431034,,0.00029420274575143296,230.645,0.5130000114440918,-2.484101317563428
230.896552,,0.00033927955524980274,231.107,0.5320000052452087,-2.443076980170428
231.362069,,0.0003850881046062955,231.573,0.5789999961853027,-2.340983921843209
231.827586,,0.00043149089094955337,232.038,0.5379999876022339,-2.4305346653587776
232.293103,,0.0004783416979989729,232.504,0.5289999842643738,-2.450285135803342
232.758621,,0.0005254856884319621,232.964,0.5299999713897705,-2.448162381227361
233.224138,,0.0005727595275682728,233.429,0.5630000233650208,-2.3762338167655477
233.689655,,0.0006199915391092409,233.896,0.5170000195503235,-2.4763304966027877
234.155172,,0.0006670018935816882,234.361,0.5329999923706055,-2.4412674856290226
234.62069,,0.0007136028300299529,234.826,0.5419999957084656,-2.421378019533532
235.086207,,0.0007595989113867365,235.292,0.5180000066757202,-2.4733156810868158
235.55172399999998,,0.0008047873138590583,235.76,0.48899999260902405,-2.5360905806796956
236.01724099999998,,0.0008489581505856413,236.222,0.5370000004768372,-2.431066653610972
236.482759,,0.0008918948297024869,236.685,0.5419999957084656,-2.4196944417480424
236.94827600000002,,0.0009333744467596718,237.155,0.5370000004768372,-2.4300922955228526
237.413793,,0.0009731682112485087,237.619,0.531000018119812,-2.442667895673708
237.87931,,0.001011041906962702,238.081,0.5379999876022339,-2.426935826654467
238.344828,,0.001046756385968483,238.547,0.5109999775886536,-2.4853077039339757
238.810345,,0.0010800680957635553,239.01,0.5289999842643738,-2.445684743690775
239.27586200000002,,0.001110729638624452,239.475,0.5379999876022339,-2.42572626616324
239.741379,,0.0011384903617522655,239.941,0.5199999809265137,-2.464658420361552
240.206897,,0.0011630969773728708,240.407,0.5230000019073486,-2.4579151116813276
240.672414,,0.0011842942128412722,240.874,0.5419999957084656,-2.4163959041403507
241.137931,,0.0012018254900400928,241.34,0.5070000290870667,-2.4926097563449052
241.603448,,0.0012154336305647152,241.804,0.5260000228881836,-2.451264422596853
242.068966,,0.0012248615821601541,242.27,0.5260000228881836,-2.4513995104837525
242.534483,,0.0012298531664473302,242.733,0.5419999957084656,-2.4167574091705353
243.0,,0.001230153853375505,243.196,0.5440000295639038,-2.412689962406307
243.465517,,0.0012255115623815722,243.659,0.5339999794960022,-2.434830947043099
243.93103399999998,,0.0012156774744244735,244.129,0.531000018119812,-2.4417750360222583
244.39655199999999,,0.0012004068373142422,244.593,0.5210000276565552,-2.464011417525224
244.862069,,0.0011794597775257694,245.055,0.5339999794960022,-2.43616694658727
245.327586,,0.0011526021594872955,245.521,0.5320000052452087,-2.441014974298111
245.793103,,0.0011196064919052732,245.986,0.43700000643730164,-2.6484768031876462
246.258621,,0.0010802527901559945,246.452,0.5130000114440918,-2.483375965038601
246.724138,,0.001034329316438501,246.919,0.5429999828338623,-2.4184629556876316
247.18965500000002,,0.0009816333153487768,247.384,0.527999997138977,-2.4515427385141133
247.655172,,0.0009219719925403486,247.849,0.515999972820282,-2.478028044661049
248.12069,,0.000855163684631831,248.315,0.5329999923706055,-2.441263552443568
248.586207,,0.0007810386620555145,248.781,0.5199999809265137,-2.4697810330830783
249.051724,,0.0006994392181884992,249.24,0.5249999761581421,-2.458999206149543
249.517241,,0.0006102199081803939,249.708,0.527999997138977,-2.4524875114409026
249.982759,,0.0005132493308038869,250.17,0.5070000290870667,-2.498175663527395
250.44827600000002,,0.00040841278102843445,250.638,0.5210000276565552,-2.4675258628649095
250.913793,,0.00029561236357345005,251.099,0.515999972820282,-2.478189759447201
251.37931000000003,,0.00017476322147115037,251.565,0.5289999842643738,-2.4495638417548795
251.844828,,4.579180879179577e-05,252.035,0.5210000276565552,-2.4666246543148076
252.31034499999998,,9.135630362679958e-05,252.494,0.515999972820282,-2.477096468402918
252.77586200000002,,0.0002367053158589321,252.959,0.5419999957084656,-2.41998965868395
253.241379,,0.00039025515389035136,253.425,0.5289999842643738,-2.4478236368731334
253.706897,,0.0005520079489465179,253.889,0.5339999794960022,-2.4364304309886844
254.172414,,0.0007219759126576722,254.355,0.5299999713897705,-2.444649334477981
254.63793099999998,,0.0009001322946788089,254.82,0.527999997138977,-2.4485307294166057
255.10344800000001,,0.001086355325770222,255.285,0.5249999761581421,-2.4546258650210353
255.56896600000002,,0.0012804837421465493,255.755,0.49399998784065247,-2.5217726752422567
256.03448299999997,,0.0014824758867897471,256.218,0.5170000195503235,-2.4713350340669304
256.5,,0.0016924221455324687,256.685,0.5329999923706055,-2.43622045632304
256.965517,,0.0019102275662343639,257.148,0.5199999809265137,-2.4643663254176076
257.431034,,0.0021353331283252516,257.611,0.5339999794960022,-2.433773791931479
257.896552,,0.0023671461948772065,258.074,0.5239999890327454,-2.4555567951382606
258.362069,,0.0026059573647276837,258.539,0.5249999761581421,-2.453462967079585
258.827586,,0.002852787231780563,259.006,0.5249999761581421,-2.453633612180289
259.29310300000003,,0.003107379551062518,259.471,0.5210000276565552,-2.462599411077544
259.758621,,0.003366916363265944,259.938,0.5419999957084656,-2.4171718257400996
260.224138,,0.0036291206416897235,260.404,0.5339999794960022,-2.4349871092476154
260.689655,,0.003897374456475741,260.87,0.515999972820282,-2.4746392274421347
261.155172,,0.004178423203459148,261.336,0.5339999794960022,-2.4358972680648723
261.62068999999997,,0.004470021556653418,261.8,0.5230000019073486,-2.460358591760075
262.086207,,0.004755801107678476,262.259,0.5339999794960022,-2.4368966682153146
262.551724,,0.005026581159941972,262.726,0.5460000038146973,-2.4112468526479662
263.017241,,0.00530792346575938,263.195,0.4970000088214874,-2.5184704347126123
263.482759,,0.00563829404259797,263.656,0.5429999828338623,-2.4186842805984154
263.94827599999996,,0.00599498596491928,264.119,0.5419999957084656,-2.4212421759118996
264.413793,,0.006279936534740927,264.586,0.5239999890327454,-2.460772435970529
264.87931,,0.006460737622733304,265.049,0.5329999923706055,-2.441405122093653
265.34482799999995,,0.00671227405747927,265.515,0.550000011920929,-2.4045267046351686
265.810345,,0.007239708872146925,265.981,0.5120000243186951,-2.487387058695268
266.27586199999996,,0.007845953307918534,266.447,0.5230000019073486,-2.4634053463382855
266.741379,,0.007950895256512778,266.911,0.5210000276565552,-2.4676584319527444
267.206897,,0.007498540253168416,267.377,0.5210000276565552,-2.467469760575601
267.672414,,0.007648664589018902,267.842,0.5540000200271606,-2.395306350426973
268.137931,,0.009465137603467563,268.307,0.5270000100135803,-2.4537900726982613
268.603448,,0.011351394588154491,268.77,0.5379999876022339,-2.429424001679266
269.06896600000005,,0.009228179177341806,269.24,0.5249999761581421,-2.4572970918616885
269.53448299999997,,0.001071344636129864,269.704,0.5009999871253967,-2.5091015434813775
270.0,,0.009579688776412212,270.166,0.5299999713897705,-2.4454194917558034
270.465517,,0.016816715207619813,270.634,0.5260000228881836,-2.453629533970793
270.931034,,0.018540794405325783,271.097,0.5419999957084656,-2.418278513302024
271.396552,,0.0174606039694701,271.562,0.5299999713897705,-2.4439563986588
271.86206899999996,,0.016727098799505447,272.025,0.5339999794960022,-2.434817116889424
272.327586,,0.01682691965057767,272.49,0.5189999938011169,-2.467127033289956
272.793103,,0.016493853428122256,272.956,0.5090000033378601,-2.4886108058967404
273.258621,,0.014765486555972356,273.421,0.515999972820282,-2.4731347003773263
273.724138,,0.011772122213297959,273.886,0.5230000019073486,-2.457742375042694
274.18965499999996,,0.008449931442642217,274.352,0.5210000276565552,-2.462045878210359
274.655172,,0.0058763377870184085,274.818,0.5170000195503235,-2.470796435318899
275.12069,,0.004639679479827678,275.284,0.5460000038146973,-2.407739805533682
275.586207,,0.004632177817677921,275.744,0.5419999957084656,-2.4166620315999823
276.051724,,0.005172466163690757,276.214,0.5329999923706055,-2.4365543163579613
276.517241,,0.005207187793691345,276.674,0.5339999794960022,-2.434728594274539
276.98275900000004,,0.004026139031979452,277.144,0.5170000195503235,-2.472176501938733
277.448276,,0.002375819350871328,277.604,0.5239999890327454,-2.4573828739464836
277.913793,,0.0021432040222707674,278.074,0.515999972820282,-2.4753009609785077
278.37931,,0.0038745583468119084,278.54,0.5320000052452087,-2.4409481306800758
278.844828,,0.005160363206045918,278.999,0.5419999957084656,-2.4196677741752954
279.31034500000004,,0.002964793984058997,279.464,0.5210000276565552,-2.4659099913798412
279.77586199999996,,0.0023563785907875557,279.93,0.531000018119812,-2.444583932576618
280.241379,,0.006697144821939375,280.396,0.5299999713897705,-2.4471786319284523
280.706897,,0.006493249690493447,280.863,0.5180000066757202,-2.4736810076373597
281.172414,,0.0025465937709921653,281.329,0.5289999842643738,-2.450006414258252
281.637931,,0.0012386630782084728,281.794,0.527999997138977,-2.4523981572796294
282.10344799999996,,0.0023148080670969736,282.259,0.5210000276565552,-2.467777675955324
282.568966,,0.0013908878181385779,282.722,0.5410000085830688,-2.424245523764042
283.034483,,6.061953369177462e-06,283.185,0.5299999713897705,-2.44816152853861
283.5,,0.0019168344846299482,283.653,0.5289999842643738,-2.450202424892102
283.965517,,0.004943333907860735,284.115,0.5239999890327454,-2.46087395988215
284.431034,,0.007922236796629449,284.585,0.5299999713897705,-2.4475033159651316
284.89655200000004,,0.008906168581636295,285.048,0.5450000166893005,-2.4144563795338376
285.362069,,0.00805675165657038,285.513,0.5249999761581421,-2.457605057437013
285.827586,,0.007710347892296715,285.978,0.527999997138977,-2.450600898079062
286.293103,,0.008949255610046348,286.444,0.5,-2.511106402295808
286.758621,,0.00969527901902416,286.907,0.5400000214576721,-2.4234508182322543
287.22413800000004,,0.00737091932699312,287.373,0.5249999761581421,-2.455623243967393
287.689655,,0.0023476735403253593,287.838,0.42500001192092896,-2.673000199702837
288.155172,,0.0026605165606148175,288.304,0.5339999794960022,-2.4350761524092652
288.62069,,0.005957951123558765,288.767,0.5249999761581421,-2.4542809701422197
289.086207,,0.007964293120222083,289.229,0.5400000214576721,-2.4212567261477274
289.55172400000004,,0.008995295367050847,289.7,0.4880000054836273,-2.5342718216874616
290.01724099999996,,0.007844705174514115,290.162,0.5239999890327454,-2.4556448481040767
290.482759,,0.003742912914335068,290.63,0.5419999957084656,-2.416317781395227
290.948276,,0.0015105266465018914,291.092,0.5239999890327454,-2.4555087111393097
291.413793,,0.005044706142597015,291.558,0.5189999938011169,-2.4664649061775497
291.87931,,0.005984338680994093,292.02,0.5339999794960022,-2.4339341673228585
292.344828,,0.005528905187426796,292.486,0.5370000004768372,-2.4276280425933083
292.81034500000004,,0.004627067675704185,292.953,0.5289999842643738,-2.4453607604542693
293.275862,,0.003413879619816875,293.418,0.4490000009536743,-2.620022246932757
293.74137900000005,,0.002554189752261573,293.885,0.5419999957084656,-2.4178336531037288
294.206897,,0.002950657077908897,294.35,0.5260000228881836,-2.453159178943881
294.672414,,0.003732370945747735,294.816,0.5360000133514404,-2.4318656351475543
295.13793100000004,,0.0023888600430953997,295.274,0.5299999713897705,-2.4454411905336184
295.603448,,0.0020473342287318772,295.744,0.5260000228881836,-2.454654572983052
296.068966,,0.006910796109367395,296.207,0.5429999828338623,-2.4180965393492464
296.534483,,0.008089589501078537,296.674,0.5879999995231628,-2.320500206972092
297.0,,0.004272740141772963,297.137,0.503000020980835,-2.5060784111648493
297.46551700000003,,0.0013817089265718632,297.6,0.5239999890327454,-2.460660152433589
297.931034,,0.003945710276864785,298.07,0.5210000276565552,-2.4674604138793454
298.396552,,0.0013832244141693648,298.529,0.5400000214576721,-2.4262530298890357
298.862069,,0.0031266002713846047,299.0,0.5540000200271606,-2.3958549526580266
299.327586,,0.004108988826427924,299.466,0.5299999713897705,-2.448158319147856
299.79310300000003,,1.4570654712908716e-05,299.929,0.5210000276565552,-2.467694912632918
300.258621,,0.0041698034796339885,300.395,0.5419999957084656,-2.4217881774498826
300.724138,,0.002344728099987463,300.86,0.5429999828338623,-2.419374624125
301.189655,,0.004895422357112667,301.325,0.550000011920929,-2.403816108585204
301.65517200000005,,0.010106386559348129,301.785,0.5080000162124634,-2.4949485668895015
302.12069,,0.007254955989465933,302.251,0.5320000052452087,-2.4422397886528597
302.586207,,0.0015511864667715155,302.719,0.5199999809265137,-2.4679250779698747
303.05172400000004,,0.00848799550908288,303.181,0.5260000228881836,-2.454371148289002
303.517241,,0.008109254832920916,303.649,0.515999972820282,-2.4756673224419603
303.982759,,0.002058161874557777,304.111,0.5189999938011169,-2.4686475392086784
304.448276,,0.0036629006751669035,304.582,0.5289999842643738,-2.4463984540438526
304.913793,,0.004718887632520656,305.044,0.5180000066757202,-2.4699358339086235
305.37931000000003,,0.001496503870195277,305.51,0.5249999761581421,-2.4543054760909624
305.844828,,0.0023725421489316297,305.974,0.5170000195503235,-2.471413962544058
306.310345,,0.0033135042780211297,306.439,0.5419999957084656,-2.4166956365899157
306.775862,,0.000400834786588162,306.904,0.5230000019073486,-2.457913241239095
307.241379,,0.003958509777148843,307.37,0.5139999985694885,-2.47742531169949
307.70689699999997,,0.0058217603186965705,307.834,0.5379999876022339,-2.4251257852208985
308.172414,,0.0028834851426508914,308.3,0.5429999828338623,-2.414303651070794
308.637931,,0.0036729509671970533,308.763,0.5070000290870667,-2.4928867159387265
309.103448,,0.0102221142161238,309.225,0.5230000019073486,-2.4582569899775097
309.568966,,0.013589289669847144,309.693,0.5210000276565552,-2.462912602385079
310.034483,,0.013239889928933563,310.155,0.515999972820282,-2.4741647163574143
310.5,,0.010905122731274636,310.623,0.5149999856948853,-2.4767516381757106
310.96551700000003,,0.008475542474976673,311.085,0.5450000166893005,-2.4118369659368173
311.431034,,0.006840575539963415,311.551,0.5130000114440918,-2.4820210703600427
311.896552,,0.006407553912241531,312.014,0.5239999890327454,-2.45853192119023
312.362069,,0.007316174456707563,312.48,0.5249999761581421,-2.4568235735692525
312.827586,,0.008535999976640415,312.944,0.5230000019073486,-2.4616309625602204
313.29310300000003,,0.007755298533740502,313.41,0.5289999842643738,-2.448975473596849
313.758621,,0.003240390646586409,313.875,0.515999972820282,-2.4776680578752384
314.224138,,0.004146964890418621,314.34,0.5260000228881836,-2.4561944296509877
314.689655,,0.011152405300877345,314.808,0.5189999938011169,-2.471691543492478
315.155172,,0.014404417437642432,315.274,0.5299999713897705,-2.447899076523321
315.62068999999997,,0.012568154457230194,315.737,0.5540000200271606,-2.3957043874391317
316.086207,,0.006967868942070247,316.2,0.5210000276565552,-2.4676101139562716
316.551724,,0.0009989513350399056,316.667,0.5419999957084656,-2.421786562297865
317.017241,,0.0013313853484377017,317.129,0.5370000004768372,-2.4325279327300002
317.482759,,0.0020514756755808257,317.6,0.5329999923706055,-2.441015613141573
317.94827599999996,,0.008879116813618656,318.063,0.5410000085830688,-2.4232916995455684
318.413793,,0.013264448707319817,318.528,0.5189999938011169,-2.470869042735565
318.87931000000003,,0.01054010632475918,318.993,0.515999972820282,-2.4770055264754314
319.344828,,0.0021354281419912135,319.458,0.5410000085830688,-2.4221056088707815
319.810345,,0.005126599012787607,319.923,0.5170000195503235,-2.473938384823905
320.275862,,0.005466167293184138,320.389,0.5180000066757202,-2.4712981612901466
320.741379,,0.000245550277541347,320.856,0.5419999957084656,-2.418556221458695
321.20689699999997,,0.005722930383027555,321.314,0.5130000114440918,-2.481303267657816
321.672414,,0.0058207424524842665,321.785,0.5429999828338623,-2.415543915914327
322.137931,,0.0014319675238645838,322.244,0.5170000195503235,-2.47183451205162
322.603448,,0.001913793543969775,322.712,0.5299999713897705,-2.4432144489002527
323.068966,,8.78869526232102e-06,323.174,0.5329999923706055,-2.4364459572840746
323.53448299999997,,0.005647586980262973,323.641,0.5360000133514404,-2.4297490727423225
324.0,,0.009528148925637704,324.104,0.5419999957084656,-2.4165922450283337
324.465517,,0.00873539820579623,324.57,0.5149999856948853,-2.475409255091109
324.931034,,0.006228867246046133,325.04,0.5419999957084656,-2.41665788784103
325.396552,,0.006394079578460804,325.505,0.5260000228881836,-2.451664431250666
325.86206899999996,,0.008654561090819888,325.971,0.515999972820282,-2.4736707727533567
326.327586,,0.008177338365474568,326.429,0.5419999957084656,-2.4173103499375497
326.793103,,0.002878198377696245,326.896,0.5210000276565552,-2.4634019011796786
327.258621,,0.003155364335835902,327.362,0.4650000035762787,-2.585792573786617
327.724138,,0.00464532824575627,327.828,0.5329999923706055,-2.4380662492631777
328.189655,,0.0015159145574080264,328.294,0.5389999747276306,-2.425437062802
328.655172,,0.0017051757886241857,328.756,0.5249999761581421,-2.4563867905703662
329.12068999999997,,0.0016091208905195929,329.226,0.5410000085830688,-2.4219692758021294
329.586207,,0.0012317613351847897,329.689,0.5400000214576721,-2.4245673502194918
330.051724,,0.004381587441600266,330.152,0.5239999890327454,-2.4598110690242336
330.517241,,0.006056088805367081,330.615,0.5130000114440918,-2.4841164299372833
330.982759,,0.005533887397970271,331.085,0.5379999876022339,-2.4299355692371845
331.44827599999996,,0.003257997408597869,331.551,0.515999972820282,-2.478087446276237
331.913793,,0.0011526474595956848,332.013,0.5299999713897705,-2.447737749792905
332.37931,,0.0013048178120144195,332.479,0.5199999809265137,-2.469601171754461
332.844828,,0.0034463650246295894,332.944,0.5389999747276306,-2.4282070619119414
333.310345,,0.004635755732600729,333.41,0.515999972820282,-2.4782396768757873
333.77586199999996,,0.0024134642333895405,333.875,0.5460000038146973,-2.412729859754557
334.241379,,0.0019758989624715146,334.341,0.5230000019073486,-2.4626192057718876
334.706897,,0.004322810681296325,334.8,0.5149999856948853,-2.4797669794242134
335.17241399999995,,0.0017439407091030055,335.266,0.5249999761581421,-2.457646595302783
335.637931,,0.003998697575080434,335.729,0.5180000066757202,-2.4725210277387335
336.103448,,0.00791706163906865,336.199,0.5299999713897705,-2.4459706333471702
336.56896600000005,,0.006833633159296467,336.66,0.5170000195503235,-2.4738681060419285
337.034483,,0.002646368487374903,337.13,0.5509999990463257,-2.39936368513312
337.5,,6.629582611932325e-05,337.593,0.5410000085830688,-2.420726545789756
337.965517,,0.0007739164656058908,338.055,0.5299999713897705,-2.444287803536194
338.431034,,0.003244184847074534,338.521,0.515999972820282,-2.4744177324899272
338.89655200000004,,0.004877333144038107,338.986,0.5260000228881836,-2.4523045818107287
339.36206899999996,,0.005636844982023229,339.452,0.5630000233650208,-2.3714216573259876
339.827586,,0.006572729408771529,339.919,0.5139999985694885,-2.477963793002559
340.293103,,0.007186571253163933,340.385,0.5239999890327454,-2.45603401743284
340.758621,,0.005938548656087042,340.845,0.515999972820282,-2.473393249291441
341.224138,,0.002787798605554194,341.311,0.5350000262260437,-2.43200377404474
341.68965499999996,,0.00044225359435457265,341.782,0.5519999861717224,-2.3950454919515525
342.155172,,0.0020127652159753822,342.24,0.5329999923706055,-2.436588889744817
342.62069,,0.0011600254130268127,342.708,0.5249999761581421,-2.4542333793105495
343.086207,,0.002246890540420452,343.171,0.5170000195503235,-2.4719379646539923
343.551724,,0.006763575865257996,343.641,0.5070000290870667,-2.4940521875746837
344.01724099999996,,0.00865448573715686,344.104,0.5270000100135803,-2.450849211302761
344.48275900000004,,0.005141110203847856,344.569,0.5419999957084656,-2.418569351720891
344.948276,,0.0010481583916378662,345.033,0.5210000276565552,-2.4647377196977036
345.413793,,0.0031668607684794876,345.498,0.5410000085830688,-2.421585809534263
345.87931,,0.0017426748420831708,345.964,0.5249999761581421,-2.4568565334896437
346.344828,,0.008182695579119733,346.429,0.5149999856948853,-2.479034288723763
346.81034500000004,,0.007728166399801156,346.889,0.5709999799728394,-2.357387925866943
347.275862,,0.0009274280914437098,347.355,0.5170000195503235,-2.475347801801528
347.741379,,0.009683652764660693,347.822,0.5210000276565552,-2.466892474634796
348.206897,,0.009881688722305606,348.288,0.515999972820282,-2.4779847095767407
348.672414,,0.0019551170781747238,348.756,0.5210000276565552,-2.467223912757876
349.13793100000004,,0.005389368042861794,349.218,0.5239999890327454,-2.460750293104201
349.60344799999996,,0.004847018179752166,349.682,0.5389999747276306,-2.4280602922718515
350.068966,,0.0024552213861356808,350.144,0.5419999957084656,-2.421441293953878
350.534483,,0.009528294352702677,350.615,0.5450000166893005,-2.4147518788963707
351.0,,0.011303922558655576,351.077,0.5230000019073486,-2.462463522972444
351.465517,,0.008816530246382147,351.543,0.5419999957084656,-2.4207926247494744
351.93103399999995,,0.006419962358375392,352.007,0.5199999809265137,-2.4683972710850095
352.396552,,0.006353194833417229,352.473,0.5460000038146973,-2.41138774586363
352.862069,,0.006873402694865858,352.938,0.5299999713897705,-2.4458537758149808
353.32758600000005,,0.005316417926387358,353.403,0.5180000066757202,-2.471589748546171
353.793103,,0.0017762454290727932,353.87,0.527999997138977,-2.4493933999548525
354.258621,,0.0010421907037773894,354.336,0.5189999938011169,-2.46860188239705
354.72413800000004,,0.0011295745287126621,354.8,0.531000018119812,-2.4420813499217253
355.189655,,0.0007632567419325251,355.266,0.515999972820282,-2.474418671007754
355.655172,,0.002435848404625542,355.726,0.5419999957084656,-2.4174756393250894
356.12069,,0.0025691942966387647,356.189,0.4950000047683716,-2.519627616573973
356.586207,,0.0013996240093898475,356.659,0.527999997138977,-2.4475492222200397
357.05172400000004,,8.357059437338188e-05,357.122,0.48899999260902405,-2.53240081755304
357.517241,,0.00011580481028043048,357.585,0.5180000066757202,-2.469174996093778
357.982759,,0.002654881891791248,358.055,0.527999997138977,-2.4474147829260517
358.448276,,0.007243444308950632,358.514,0.5199999809265137,-2.4649395003868
358.913793,,0.011032135127100651,358.986,0.5170000195503235,-2.471636902729093
359.37931000000003,,0.010383511595529518,359.444,0.5419999957084656,-2.417392746250472
359.844828,,0.004450919671507122,359.912,0.5299999713897705,-2.4438112568345103
360.310345,,0.0030284692261165615,360.377,0.5239999890327454,-2.457201777551221
360.775862,,0.0068168082937501324,360.844,0.5429999828338623,-2.416160187351142
361.241379,,0.005488455953735834,361.31,0.5189999938011169,-2.468823401125864
361.706897,,0.0026659641413179377,361.77,0.5339999794960022,-2.4365309188179447
362.172414,,0.002401453467243542,362.24,0.5059999823570251,-2.4979204010393725
362.63793100000004,,0.004319295197552346,362.704,0.5400000214576721,-2.42422193355735
363.103448,,0.004400728547817171,363.166,0.5090000033378601,-2.4921125865270244
363.568966,,0.00015714903839652964,363.63,0.531000018119812,-2.444501017918987
364.034483,,0.006165067718400001,364.1,0.5429999828338623,-2.4186322825362416
364.5,,0.009753395109198119,364.565,0.5339999794960022,-2.438462492291709
364.96551700000003,,0.007758663345193062,365.028,0.5090000033378601,-2.493092512614343
365.431034,,0.0013118858815698905,365.494,0.5400000214576721,-2.425655552367003
365.896552,,0.006170576307596424,365.955,0.527999997138977,-2.451834795526985
366.362069,,0.01186152736004969,366.421,0.5170000195503235,-2.475768885846516
366.827586,,0.014813731337062359,366.885,0.5239999890327454,-2.460422874178695
367.29310300000003,,0.015092115199529368,367.351,0.531000018119812,-2.445015334568766
367.758621,,0.01244070561208685,367.816,0.5210000276565552,-2.466588440492864
368.224138,,0.006561087749879317,368.282,0.5410000085830688,-2.4227524290511147
368.689655,,0.001173368293692173,368.745,0.515999972820282,-2.4769142168579914
369.155172,,0.007153726832418553,369.214,0.515999972820282,-2.476578367892384
369.62068999999997,,0.007773636124181177,369.678,0.5419999957084656,-2.4195766962392056
370.086207,,0.0026896812148274806,370.141,0.5419999957084656,-2.419209110971446
370.55172400000004,,0.0042343380383451715,370.608,0.46000000834465027,-2.5974922383351604
371.017241,,0.007572724635214537,371.07,0.5289999842643738,-2.4468138596867406
371.482759,,0.004607685082366776,371.536,0.5249999761581421,-2.455200918556607
371.948276,,0.0022086788727056625,371.999,0.5130000114440918,-2.481050003684832
372.413793,,0.006827900073143786,372.465,0.5149999856948853,-2.476440236001353
372.87931000000003,,0.004471931866400456,372.929,0.5180000066757202,-2.469701250133898
373.344828,,0.0038967868601131514,373.395,0.5270000100135803,-2.4499453856115347
373.810345,,0.01177403596674303,373.863,0.5339999794960022,-2.434605395521176
374.275862,,0.012653422029192821,374.328,0.5299999713897705,-2.443290898815638
374.741379,,0.006044872915017853,374.793,0.5419999957084656,-2.4171785664677525
375.20689699999997,,0.002068390074321722,375.259,0.5210000276565552,-2.4630208995344067
375.672414,,0.004918813350352508,375.719,0.515999972820282,-2.4740618019137064
376.137931,,0.0011957091050719037,376.189,0.527999997138977,-2.4481177852287765
376.603448,,0.004128836938635736,376.652,0.5540000200271606,-2.391717747604344
377.068966,,0.004929823891972697,377.115,0.515999972820282,-2.474788308820737
377.53448299999997,,0.00032391769760563706,377.585,0.527999997138977,-2.4489551412228994
378.0,,0.007941607965721815,378.048,0.5299999713897705,-2.4449281701586743
378.465517,,0.013427470274325552,378.513,0.527999997138977,-2.449624974850275
378.931034,,0.015420473947769171,378.978,0.5389999747276306,-2.425998319984085
379.396552,,0.015058123098633885,379.443,0.515999972820282,-2.4764344930131057
379.862069,,0.012887272889479945,379.907,0.5410000085830688,-2.4222746864329956
380.327586,,0.008251785016224384,380.373,0.5320000052452087,-2.4421589408992608
380.79310300000003,,0.0018513514735052999,380.841,0.5370000004768372,-2.431503735004869
381.258621,,0.0030085865112506427,381.299,0.5189999938011169,-2.4709125798738856
381.724138,,0.0033949050200674136,381.767,0.5379999876022339,-2.429661309999913
382.189655,,0.0005212755932061339,382.23,0.515999972820282,-2.4776807294138354
382.655172,,0.0010198230536513798,382.7,0.5669999718666077,-2.3666020360606104
383.12068999999997,,0.0017487084285942498,383.163,0.515999972820282,-2.4776877986007646
383.586207,,0.006830280295285592,383.631,0.5170000195503235,-2.4754280952746193
384.051724,,0.009431176006461234,384.092,0.515999972820282,-2.477474093697428
384.517241,,0.0069860000336660535,384.558,0.5199999809265137,-2.468579235324716
384.982759,,0.0014260580117465825,385.021,0.5339999794960022,-2.437855740302734
385.44827599999996,,0.0032481190133486046,385.486,0.515999972820282,-2.4768135193151783
385.913793,,0.004700155301716462,385.955,0.546999990940094,-2.4089896608436354
386.37931,,0.0032510860233692976,386.421,0.5299999713897705,-2.4457214485174763
386.84482799999995,,0.0002553525318475213,386.885,0.5410000085830688,-2.42144039301707
387.310345,,0.0030970290516338247,387.351,0.5339999794960022,-2.4363741367295013
387.775862,,0.005445310311842553,387.815,0.4399999976158142,-2.6408604889074376
388.241379,,0.005259412659816278,388.274,0.5849999785423279,-2.3246699513312814
388.70689699999997,,0.002345494698532587,388.744,0.5289999842643738,-2.4464137443970624
389.172414,,0.0010547311156681276,389.207,0.5019999742507935,-2.5050100051754707
389.637931,,0.002038802541750256,389.674,0.5720000267028809,-2.352317623612508
390.103448,,0.0004232027929807232,390.136,0.5429999828338623,-2.415355842512641
390.56896600000005,,0.0008822004881440979,390.604,0.5460000038146973,-2.4087248950632185
391.03448299999997,,0.00011326160736549871,391.066,0.5260000228881836,-2.45225396375226
391.5,,0.0014854076869437254,391.533,0.5379999876022339,-2.4261189467556687
391.965517,,0.00023078358972949175,391.996,0.5299999713897705,-2.4436089932406873
392.431034,,0.0031013539241594957,392.462,0.5210000276565552,-2.4633278357346224
392.896552,,0.005237774505855804,392.927,0.5210000276565552,-2.463486210995564
393.36206899999996,,0.005169714794459208,393.392,0.4519999921321869,-2.6140152367743537
393.827586,,0.005262963070559945,393.86,0.5299999713897705,-2.4443214235288915
394.293103,,0.006742042253340275,394.326,0.5210000276565552,-2.4641996336684566
394.75862099999995,,0.006965418482258035,394.79,0.5239999890327454,-2.457954437583871
395.224138,,0.0031156569505868064,395.256,0.5170000195503235,-2.473507036640385
395.68965499999996,,0.0032209108159302864,395.718,0.5419999957084656,-2.4193449657402235
396.155172,,0.007414018392081643,396.181,0.515999972820282,-2.4762864708400913
396.62069,,0.006910778380711876,396.644,0.5339999794960022,-2.4373510759636043
397.086207,,0.003238089308064669,397.114,0.531000018119812,-2.444142498038019
397.551724,,0.00043656963146191703,397.582,0.527999997138977,-2.450901599067253
398.017241,,0.0020163502062356636,398.044,0.5,-2.5120886262255353
398.48275900000004,,0.0010311420222755283,398.509,0.5260000228881836,-2.4555856112413377
398.94827599999996,,0.0017661807046938742,398.974,0.49000000953674316,-2.5341122129962574
399.413793,,0.004652153426383382,399.44,0.5370000004768372,-2.4317615870991354
399.87931,,0.005712777418089336,399.905,0.5189999938011169,-2.470971952943348
400.344828,,0.004491771666623723,400.37,0.5249999761581421,-2.4578436577664076
400.810345,,0.0027976467409920034,400.83,0.5379999876022339,-2.4294154803533616
401.27586199999996,,0.0030057927183007945,401.296,0.5370000004768372,-2.4314419798164773
401.741379,,0.0053188646201811395,401.764,0.5270000100135803,-2.453034751583291
402.206897,,0.0071374590072473395,402.226,0.5239999890327454,-2.4593420183356463
402.672414,,0.005265651045641938,402.689,0.527999997138977,-2.45037101228648
403.137931,,0.001087562089658775,403.159,0.5270000100135803,-2.4522734393493923
403.60344799999996,,0.008842290076878433,403.622,0.5360000133514404,-2.4323778811788
404.068966,,0.012771917130514938,404.085,0.5180000066757202,-2.471303182465392
404.534483,,0.009970153096165007,404.551,0.5180000066757202,-2.471019436625496
405.0,,0.0027527994943461393,405.021,0.5419999957084656,-2.418463256057763
405.465517,,0.003986358715125743,405.479,0.5339999794960022,-2.43564630796829
405.931034,,0.007874063094179389,405.944,0.5389999747276306,-2.4245364566883665
406.39655200000004,,0.009729303113917596,406.41,0.515999972820282,-2.4744651758636445
406.862069,,0.009719164881084071,406.874,0.5260000228881836,-2.4525406482845478
407.327586,,0.006074515917113379,407.34,0.5249999761581421,-2.454627833320719
407.793103,,0.0009777450496853428,407.804,0.5239999890327454,-2.456763671511648
408.258621,,0.006613928973217539,408.27,0.5419999957084656,-2.4175547412664526
408.72413800000004,,0.005692646904259526,408.738,0.5040000081062317,-2.500399305387912
409.18965499999996,,0.0007831903640147725,409.2,0.531000018119812,-2.441679450011822
409.655172,,0.005818274048195956,409.67,0.5419999957084656,-2.4178619136773953
410.12069,,0.0038507243314168786,410.133,0.5339999794960022,-2.4354770662450367
410.586207,,0.003024262350671242,410.594,0.5379999876022339,-2.42698091164706
411.05172400000004,,0.007255748278012453,411.064,0.5289999842643738,-2.446833140716151
411.51724099999996,,0.0041029990451061146,411.529,0.5249999761581421,-2.455810865688983
411.982759,,0.0033348061668740927,411.989,0.48899999260902405,-2.5345169839688966
412.448276,,0.0077636196969461824,412.454,0.5329999923706055,-2.4389350780913293
412.913793,,0.005107042364163085,412.919,0.5199999809265137,-2.467530843794602
413.37931,,0.002608518633973666,413.384,0.515999972820282,-2.476504810641054
413.844828,,0.01002743780913956,413.855,0.5419999957084656,-2.420097315316227
414.31034500000004,,0.012276471926149049,414.314,0.5210000276565552,-2.466056714526391
414.775862,,0.007569982454252886,414.785,0.531000018119812,-2.444442355176291
415.241379,,0.0011916005981160009,415.244,0.5149999856948853,-2.4794324099855656
415.706897,,0.007519075857630003,415.711,0.5429999828338623,-2.418517352237225
416.172414,,0.006199961593419736,416.174,0.5049999952316284,-2.501346113539035
416.63793100000004,,0.001902854268724964,416.644,0.5419999957084656,-2.4207283851213908
417.103448,,0.010322147934988571,417.107,0.515999972820282,-2.4773180303790436
417.568966,,0.012689672925761723,417.573,0.5410000085830688,-2.4227505542208525
418.034483,,0.008089455553791142,418.039,0.5429999828338623,-2.418249061372145
418.5,,0.0009068579698642233,418.504,0.5199999809265137,-2.4681751610854783
418.96551700000003,,0.004045200337465642,418.964,0.5299999713897705,-2.446173693097906
419.43103399999995,,0.005456571789645228,419.43,0.5370000004768372,-2.4306826101819183
419.896552,,0.0048008195798025155,419.897,0.5389999747276306,-2.4260664403788494
420.362069,,0.0033290198171596493,420.363,0.531000018119812,-2.4432261650616516
420.827586,,0.0011708975669769434,420.831,0.5170000195503235,-2.473456315877791
421.293103,,0.0011496303167689878,421.289,0.5249999761581421,-2.455763618838933
421.758621,,0.0020842817915260226,421.759,0.5370000004768372,-2.429371351676003
422.22413800000004,,0.0006694457196332116,422.222,0.5339999794960022,-2.4356811418093023
422.689655,,0.0019442626390594453,422.689,0.5239999890327454,-2.4572705815279154
423.15517200000005,,0.0030217438158325403,423.151,0.515999972820282,-2.474538482083985
423.62069,,0.0001689524495621906,423.615,0.5109999775886536,-2.4853114861928174
424.086207,,0.006594268963582319,424.085,0.531000018119812,-2.441662740003578
424.55172400000004,,0.013718155331866719,424.55,0.515999972820282,-2.4743131726003424
425.017241,,0.01584027524594079,425.014,0.5170000195503235,-2.472152086229652
425.482759,,0.010387234199470822,425.479,0.4429999887943268,-2.6334377146096974
425.948276,,0.0007912723760765744,425.945,0.5239999890327454,-2.457079353179294
426.413793,,0.005869565966325018,426.411,0.5389999747276306,-2.4245527610548514
426.87931000000003,,0.005099655893454907,426.87,0.5170000195503235,-2.4726701133064197
427.344828,,0.0009532030820173767,427.336,0.5540000200271606,-2.3922749813837796
427.810345,,0.005605360031324974,427.801,0.5249999761581421,-2.4556911244412234
428.275862,,0.004050801314239604,428.266,0.5419999957084656,-2.4189021635154444
428.741379,,0.002141608509015272,428.734,0.5270000100135803,-2.4518352678517528
429.20689699999997,,0.007021047862193103,429.197,0.5109999775886536,-2.4869450654625127
429.672414,,0.006523049951452519,429.659,0.5199999809265137,-2.467579470230909
430.137931,,0.0023614880985415683,430.129,0.515999972820282,-2.476519894972581
430.603448,,0.00025371265639985614,430.593,0.503000020980835,-2.5050449802352945
431.068966,,0.0015887743510535003,431.055,0.5299999713897705,-2.4463952189280027
431.534483,,0.005608354248313894,431.521,0.515999972820282,-2.4770352175964927
432.0,,0.00794822639510812,431.986,0.5210000276565552,-2.466241903205886
432.46551700000003,,0.008793109173490837,432.452,0.5450000166893005,-2.4140123603302017
432.931034,,0.01184796615335752,432.919,0.515999972820282,-2.4772073499530913
433.396552,,0.017858387942677547,433.384,0.515999972820282,-2.4771780360894584
433.862069,,0.021903442589446775,433.849,0.5210000276565552,-2.466213710622296
434.327586,,0.01937759983471409,434.315,0.5400000214576721,-2.42470880185113
434.79310300000003,,0.01256733438065358,434.781,0.5170000195503235,-2.4746709274353447
435.258621,,0.00839293789657153,435.24,0.5460000038146973,-2.411311948097713
435.724138,,0.010251184737132157,435.708,0.5210000276565552,-2.465574219177904
436.189655,,0.014477797068746004,436.17,0.5249999761581421,-2.45663703331817
436.655172,,0.014900808916638038,436.638,0.5299999713897705,-2.4455096790856024
437.12068999999997,,0.009075342737319896,437.1,0.515999972820282,-2.4757726790249497
437.586207,,0.00020704109889770322,437.566,0.515999972820282,-2.4755385639929406
438.051724,,0.008109275576930745,438.029,0.5339999794960022,-2.4360999531219423
438.517241,,0.011820981561360949,438.495,0.5,-2.509969123217182
438.982759,,0.012170409437335898,438.959,0.5249999761581421,-2.4553228494827337
439.448276,,0.011979795326433057,439.425,0.531000018119812,-2.4421005159181415
439.913793,,0.013346038411942965,439.89,0.5239999890327454,-2.4572343693098504
440.37931000000003,,0.01649093629625142,440.356,0.515999972820282,-2.474584053125985
440.844828,,0.020077062193614107,440.823,0.5339999794960022,-2.4353282318874427
441.310345,,0.02168104857587594,441.288,0.5289999842643738,-2.4462212086915756
441.775862,,0.01912831996492902,441.749,0.5339999794960022,-2.435366951908759
442.241379,,0.013068503985905464,442.219,0.5289999842643738,-2.4463368159205308
442.70689699999997,,0.0075568195238070075,442.681,0.5460000038146973,-2.409411054226644
443.172414,,0.006243185303264768,443.144,0.5090000033378601,-2.4901634605305984
443.637931,,0.00823768831781943,443.612,0.5299999713897705,-2.4445813229094604
444.103448,,0.009347680665852988,444.074,0.5199999809265137,-2.466558856976182
444.568966,,0.007144320544845645,444.539,0.5320000052452087,-2.4406213329347617
445.03448299999997,,0.0030956096199638242,445.006,0.5210000276565552,-2.4648013869687695
445.5,,0.00029302178878085424,445.471,0.5170000195503235,-2.4737330929879193
445.965517,,0.0025098243201250223,445.937,0.5189999938011169,-2.4695886014349253
446.431034,,0.00436669986212429,446.402,0.5320000052452087,-2.4414676937522555
446.896552,,0.005702473874709548,446.867,0.5370000004768372,-2.4307579931981538
447.36206899999996,,0.005260736382029233,447.333,0.5210000276565552,-2.4657761172499053
447.827586,,0.002743152176792584,447.8,0.5249999761581421,-2.4571933338865644
448.29310300000003,,3.8274802592480465e-05,448.259,0.531000018119812,-2.4442211292870497
448.758621,,0.00021609736876060078,448.73,0.5199999809265137,-2.468251290771163
449.224138,,0.00249224622712994,449.192,0.5270000100135803,-2.4530292315970756
449.689655,,0.005427377993366551,449.66,0.5180000066757202,-2.4726287887602965
450.155172,,0.005152903162011514,450.122,0.5180000066757202,-2.472584445692641
450.62068999999997,,0.001456523716219947,450.585,0.5230000019073486,-2.4616125891655067
451.086207,,0.0019206681297761704,451.055,0.5189999938011169,-2.4702169345226412
451.551724,,0.0009414558475374977,451.514,0.5249999761581421,-2.4570068009588937
452.017241,,0.004553467214209044,451.979,0.5170000195503235,-2.474274150157887
452.482759,,0.010494302113609945,452.444,0.5419999957084656,-2.419627690224659
452.94827599999996,,0.012205829569963276,452.912,0.5680000185966492,-2.3627884411066105
453.413793,,0.008345910556005597,453.377,0.5360000133514404,-2.4323022244094705
453.87931,,0.0018048393655350071,453.842,0.5230000019073486,-2.4604204309041497
454.344828,,0.0025343015501408197,454.307,0.527999997138977,-2.4493291709879785
454.810345,,0.0011447726096760875,454.771,0.5230000019073486,-2.460037022361842
455.27586199999996,,0.005472370526635452,455.24,0.5239999890327454,-2.4576915356633324
455.741379,,0.012338433324220693,455.703,0.5299999713897705,-2.444476443245187
456.206897,,0.01316131356004476,456.166,0.5170000195503235,-2.472683546195451
456.672414,,0.005807860049029286,456.634,0.5239999890327454,-2.4573495271966688
457.137931,,0.004908711166389472,457.096,0.5320000052452087,-2.4398706815516817
457.603448,,0.011043833515003196,457.562,0.5130000114440918,-2.481250534433063
458.06896600000005,,0.009086450252760746,458.025,0.515999972820282,-2.474736018244782
458.53448299999997,,0.0033017295656740924,458.49,0.5109999775886536,-2.4856857603233413
459.0,,0.0006987035583246448,458.955,0.5440000295639038,-2.4138792708076386
459.465517,,0.003176481533605322,459.421,0.5270000100135803,-2.451033957658855
459.931034,,0.00614171859141034,459.886,0.5199999809265137,-2.4664268464888854
460.39655200000004,,0.0049348676624440336,460.352,0.5410000085830688,-2.420837515556169
460.86206899999996,,0.0006075708081707428,460.818,0.5320000052452087,-2.4406219540043046
461.327586,,0.0020095007824362647,461.284,0.5210000276565552,-2.4647722464671458
461.793103,,0.0006107155701592838,461.745,0.5299999713897705,-2.4453527740242746
462.258621,,0.0022932817034409087,462.214,0.515999972820282,-2.476039269681229
462.724138,,0.003065034684850014,462.675,0.5170000195503235,-2.4740375469788374
463.18965499999996,,0.0008357314096461709,463.144,0.5370000004768372,-2.430627528844619
463.655172,,0.002618852648963764,463.608,0.5440000295639038,-2.415519764013807
464.12069,,0.004874958942408885,464.07,0.5130000114440918,-2.4831762541348468
464.58620699999994,,0.003957128295074945,464.535,0.5299999713897705,-2.4462302772737328
465.051724,,0.0005004286501045397,464.999,0.5249999761581421,-2.4571845336196683
465.517241,,0.005716395626828496,465.465,0.5379999876022339,-2.428891102090923
465.98275900000004,,0.006936074244667259,465.932,0.5289999842643738,-2.4484951571531215
466.448276,,0.0020767643233206364,466.397,0.531000018119812,-2.4441016666442965
466.913793,,0.0052096053681056935,466.863,0.527999997138977,-2.450570858563191
467.37931,,0.00857218230145506,467.328,0.4819999933242798,-2.5506946436896767
467.844828,,0.005343859647959565,467.793,0.515999972820282,-2.476503669687896
468.31034500000004,,0.000914103642200749,468.259,0.5239999890327454,-2.4589380182751297
468.77586199999996,,0.004599066248729971,468.722,0.5389999747276306,-2.4261056855881384
469.241379,,0.003890407800025215,469.185,0.5320000052452087,-2.441191719417052
469.706897,,0.00160198741438032,469.653,0.5249999761581421,-2.4562714883974244
470.172414,,0.0012691219040486005,470.115,0.4880000054836273,-2.5367107789142436
470.63793100000004,,0.003870715161456317,470.585,0.5339999794960022,-2.436328543182189
471.10344799999996,,0.0078414099450901,471.048,0.5149999856948853,-2.4775691415253855
471.568966,,0.010682422211422323,471.513,0.531000018119812,-2.44257195085023
472.034483,,0.01050506232127629,471.979,0.5429999828338623,-2.416308247045953
472.5,,0.007130552127925962,472.444,0.5260000228881836,-2.453247120189628
472.965517,,0.002063603177565398,472.905,0.49799999594688416,-2.514177026823607
473.43103399999995,,0.0028539300252073112,473.37,0.5210000276565552,-2.464024431476637
473.89655200000004,,0.006463289012345713,473.837,0.527999997138977,-2.448759732141365
474.362069,,0.007718232838867645,474.303,0.5460000038146973,-2.4095583042567665
474.827586,,0.005307350143714935,474.77,0.5289999842643738,-2.446636925328649
475.293103,,0.0005208980805444358,475.233,0.5239999890327454,-2.4575977957953206
475.758621,,0.0063645985257445034,475.696,0.5400000214576721,-2.4228309106609545
476.22413800000004,,0.008083970427502979,476.159,0.5320000052452087,-2.440372213581941
476.689655,,0.005036795275281037,476.63,0.5400000214576721,-2.4230717255688057
477.155172,,0.00029743414929121124,477.092,0.5149999856948853,-2.4776796061980653
477.62069,,0.0031754438733976624,477.558,0.515999972820282,-2.475651641839111
478.086207,,0.0047997781036520195,478.021,0.574999988079071,-2.347265604945318
478.55172400000004,,0.005088696807738925,478.486,0.515999972820282,-2.475957933487978
479.01724099999996,,0.004380902336874587,478.955,0.503000020980835,-2.50442660538156
479.482759,,0.0034784648704784746,479.42,0.5400000214576721,-2.423953690067329
479.948276,,0.003863959107080678,479.885,0.5180000066757202,-2.472006981980653
480.413793,,0.00597472782833174,480.344,0.5419999957084656,-2.4198242452400183
480.87931000000003,,0.007841229527038767,480.815,0.531000018119812,-2.443872614926813
481.344828,,0.006822976334468014,481.281,0.5180000066757202,-2.472254616156166
481.810345,,0.003102193803079851,481.742,0.5070000290870667,-2.4962547614952344
482.275862,,0.0004568183000572952,482.204,0.5210000276565552,-2.465763751143832
482.74137900000005,,0.0024900932530072554,482.674,0.5299999713897705,-2.446140510995043
483.206897,,0.00810687582242177,483.137,0.5339999794960022,-2.4373847550908465
483.672414,,0.011569646920506337,483.604,0.5289999842643738,-2.448212444246658
484.13793100000004,,0.008015259427937946,484.067,0.5260000228881836,-2.4546607229662114
484.603448,,0.0007789196633098623,484.532,0.5210000276565552,-2.4654475091798695
485.068966,,0.007178543229668079,484.996,0.5130000114440918,-2.4827552543531226
485.534483,,0.0053782453558016904,485.462,0.5370000004768372,-2.4303349897729953
486.0,,0.00243191875241357,485.927,0.5299999713897705,-2.4454452302307277
486.46551700000003,,0.008874189292558628,486.393,0.527999997138977,-2.449658688157151
486.931034,,0.009480849276753198,486.859,0.5329999923706055,-2.438622843764672
487.396552,,0.0061219513688288586,487.325,0.5180000066757202,-2.4711656712888446
487.862069,,0.0027566217593309756,487.79,0.5339999794960022,-2.4361805782033286
488.327586,,0.0003359814344714132,488.255,0.515999972820282,-2.4752835237167887
488.79310300000003,,0.0025698945459916526,488.719,0.5389999747276306,-2.4250791970819043
489.258621,,0.005612483062417018,489.181,0.4259999990463257,-2.67119291692082
489.724138,,0.005934238814375571,489.649,0.5139999985694885,-2.4794242409294895
490.189655,,0.0022609688366202565,490.111,0.515999972820282,-2.475045457178301
490.655172,,0.0022395889590321556,490.582,0.5199999809265137,-2.46633379302568
491.12069,,0.0028953514755553638,491.044,0.5239999890327454,-2.4576458626120874
491.586207,,0.0010843810410511654,491.51,0.5299999713897705,-2.4446228588892653
492.05172400000004,,0.005436551966111594,491.975,0.5180000066757202,-2.4708356303988834
492.517241,,0.005420439925978477,492.441,0.5419999957084656,-2.418634745764056
492.982759,,0.0008651576873184833,492.9,0.5230000019073486,-2.460130070116533
493.448276,,0.003924312504971558,493.365,0.5130000114440918,-2.4820289783358853
493.913793,,0.004800293664629762,493.83,0.4519999921321869,-2.6150487263590048
494.37931000000003,,0.0016037780168297931,494.296,0.5299999713897705,-2.445242985548981
494.844828,,0.0021652970421005054,494.759,0.5080000162124634,-2.4933032722812505
495.310345,,0.0026140431841211397,495.229,0.5299999713897705,-2.4454992383265726
495.775862,,0.001382451996085775,495.693,0.5419999957084656,-2.4194729991416803
496.241379,,0.007431928254321639,496.155,0.5210000276565552,-2.4653295434523064
496.70689699999997,,0.011670272113441028,496.623,0.5180000066757202,-2.4719553868690682
497.172414,,0.011589950049697704,497.085,0.515999972820282,-2.4763854454638348
497.637931,,0.007318214900459243,497.55,0.515999972820282,-2.4764391105337915
498.103448,,0.0010920350389745234,498.021,0.5339999794960022,-2.4372563987104603
498.568966,,0.004298126698383979,498.479,0.5120000243186951,-2.485197962301675
499.03448299999997,,0.007589362223206731,498.944,0.5149999856948853,-2.4786523294991216
499.5,,0.010154614740850885,499.41,0.527999997138977,-2.4502997085274068
499.96551700000003,,0.014354697790237557,499.874,0.5230000019073486,-2.4611432910497486
500.431034,,0.020426436422392266,500.339,0.5360000133514404,-2.4327533199673077
500.89655200000004,,0.025674126340282082,500.806,0.5090000033378601,-2.491494118890861
501.362069,,0.027114395811444217,501.272,0.5170000195503235,-2.473970456527612
501.827586,,0.024327386685887357,501.734,0.5009999871253967,-2.50872656922675
502.293103,,0.01923881764627451,502.203,0.5230000019073486,-2.460689470051438
502.758621,,0.013632479049548441,502.664,0.5180000066757202,-2.471474548279041
503.224138,,0.00771347769028838,503.134,0.5249999761581421,-2.4561176456925238
503.68965499999996,,0.001260014328379946,503.597,0.5299999713897705,-2.4451227983605475
504.15517200000005,,0.004313617074470586,504.059,0.5339999794960022,-2.436314125168023
504.62068999999997,,0.005867262426842884,504.525,0.515999972820282,-2.4754462635974774
505.08620699999994,,0.0015898910660541781,504.99,0.5299999713897705,-2.444874923294237
505.55172400000004,,0.005490605406687916,505.455,0.5289999842643738,-2.446998440151875
506.017241,,0.008498392126201048,505.922,0.5199999809265137,-2.4665677752356943
506.48275899999993,,0.0030159606435833123,506.388,0.5080000162124634,-2.4926910854932443
506.948276,,0.007777566200966474,506.852,0.515999972820282,-2.475260497171589
507.413793,,0.01563298559332602,507.318,0.5419999957084656,-2.418632133121102
507.87931,,0.015092449920135281,507.782,0.5260000228881836,-2.453523378387721
508.344828,,0.008204582044037529,508.248,0.5249999761581421,-2.455750148848011
508.810345,,0.0017445051317037008,508.711,0.5299999713897705,-2.4449184502262433
509.27586199999996,,0.0007533756821589152,509.174,0.5239999890327454,-2.458063082065577
509.74137900000005,,0.004805244630875346,509.645,0.5210000276565552,-2.4646806055008876
510.20689699999997,,0.009353983682462342,510.107,0.515999972820282,-2.475662054761085
510.67241399999995,,0.009870221029224864,510.573,0.5180000066757202,-2.471396451683686
511.13793100000004,,0.005427441724895708,511.038,0.5189999938011169,-2.469310261933822
511.603448,,0.0005394563446338856,511.504,0.5299999713897705,-2.445434978985071
512.0689659999999,,0.003113174336980299,511.971,0.5199999809265137,-2.467305525656581
512.534483,,0.00035748984909186876,512.429,0.503000020980835,-2.5044186694542336
513.0,,0.005101313437480066,512.894,0.5199999809265137,-2.467448197312979
513.465517,,0.009186106916065612,513.359,0.5379999876022339,-2.4282865996978966
513.931034,,0.010286185230540017,513.826,0.515999972820282,-2.476256494014678
514.396552,,0.009440360519192514,514.292,0.503000020980835,-2.5046035533181423
514.862069,,0.007720165600933271,514.759,0.48500001430511475,-2.5438297938985266
515.327586,,0.005113641645983331,515.222,0.527999997138977,-2.450144254301111
515.793103,,0.002015220799892528,515.69,0.5429999828338623,-2.417445437245236
516.258621,,0.00023798436600159996,516.152,0.515999972820282,-2.4762343725424074
516.724138,,0.0013962803612624455,516.615,0.5170000195503235,-2.4740075344889796
517.189655,,0.00451752771841937,517.085,0.5239999890327454,-2.458697593967833
517.655172,,0.0060483820898100385,517.55,0.5299999713897705,-2.4455566180746584
518.1206900000001,,0.002887815714733642,518.013,0.5249999761581421,-2.456373228313391
518.5862070000001,,0.00410298607727146,518.479,0.5320000052452087,-2.4410410768773856
519.051724,,0.009856405443012846,518.944,0.5299999713897705,-2.4453146492988247
519.517241,,0.009522402729368391,519.41,0.5370000004768372,-2.429980651267801
519.982759,,0.003656642092362861,519.875,0.5299999713897705,-2.445151014623841
520.448276,,0.0019792096323007994,520.334,0.5320000052452087,-2.440719351751291
520.9137929999999,,0.002347337012922121,520.801,0.5189999938011169,-2.4689762839924785
521.37931,,0.0019954199519091683,521.267,0.5170000195503235,-2.4732794296684673
521.844828,,0.006151692786599827,521.73,0.5370000004768372,-2.429665548821861
522.310345,,0.005802397830755589,522.199,0.5389999747276306,-2.4252810916840866
522.7758620000001,,0.0005385178228705422,522.663,0.531000018119812,-2.4426972450449322
523.241379,,0.006372596328423702,523.126,0.5360000133514404,-2.4318058707040255
523.7068969999999,,0.010572158281310997,523.589,0.515999972820282,-2.475395825082684
524.172414,,0.009658364980923935,524.059,0.5329999923706055,-2.4383903501831976
524.637931,,0.004994688485600205,524.524,0.5230000019073486,-2.4602219367343667
525.103448,,0.0008966308170575158,524.988,0.5249999761581421,-2.455921737632724
525.568966,,0.0011763057307435042,525.454,0.5529999732971191,-2.394986118790011
526.034483,,0.005624137559025834,525.919,0.5210000276565552,-2.464776034530608
526.5,,0.010191880209594413,526.385,0.5139999985694885,-2.4801048838580115
526.9655170000001,,0.011217081668128405,526.844,0.5249999761581421,-2.4562209770524963
527.4310340000001,,0.008883165933765482,527.31,0.5170000195503235,-2.473731270770985
527.8965519999999,,0.005791894440727844,527.782,0.5419999957084656,-2.419343104223862
528.362069,,0.0031372620157167365,528.241,0.5379999876022339,-2.4281291311948645
528.827586,,9.657567613986727e-05,528.704,0.5669999718666077,-2.3650098264925434
529.293103,,0.004540537978841271,529.174,0.5540000200271606,-2.39338087756241
529.7586210000001,,0.008896583499045846,529.637,0.5529999732971191,-2.39559394659819
530.224138,,0.011437287054097248,530.099,0.5339999794960022,-2.4370077862500614
530.689655,,0.01180245365761302,530.565,0.5440000295639038,-2.415225950173186
531.155172,,0.01081278850179518,531.035,0.5419999957084656,-2.419573383966645
531.62069,,0.009538640578857529,531.494,0.5540000200271606,-2.393405106996981
532.086207,,0.008995103049135185,531.959,0.5680000185966492,-2.3628654779270812
532.5517239999999,,0.009594166418478258,532.424,0.5540000200271606,-2.393314993763386
533.017241,,0.010153687553814371,532.889,0.5239999890327454,-2.4586128084070884
533.482759,,0.00843229243295446,533.355,0.5630000233650208,-2.3735765771026816
533.9482760000001,,0.0036527680062320156,533.819,0.5529999732971191,-2.395289152673805
534.413793,,0.0019614082056255366,534.285,0.5429999828338623,-2.4169990372749655
534.87931,,0.005064733909898022,534.755,0.5820000171661377,-2.331955202399663
535.344828,,0.004653438621753902,535.218,0.5429999828338623,-2.4168486260177606
535.810345,,0.003103001151120985,535.685,0.550000011920929,-2.401529888592576
536.275862,,0.0035268989520623397,536.148,0.5759999752044678,-2.344825337539682
536.7413789999999,,0.0065024497712480745,536.611,0.5680000185966492,-2.3622043554521435
537.206897,,0.009660232892720636,537.074,0.5509999990463257,-2.3992030587988245
537.672414,,0.010009716004111727,537.539,0.5809999704360962,-2.3338186877311666
538.137931,,0.006401342432687731,538.006,0.5540000200271606,-2.39263128250419
538.6034480000001,,0.0004021455783322789,538.472,0.5799999833106995,-2.335990252823415
539.0689659999999,,0.0047740639893791344,538.937,0.5899999737739563,-2.314221479355028
539.5344829999999,,0.006641230860107422,539.402,0.5669999718666077,-2.364361111797767
540.0,,0.005122632671913779,539.867,0.5759999752044678,-2.34479651330407
540.465517,,0.0020360075495131453,540.333,0.574999988079071,-2.347029663804412
540.931034,,0.0005197221992517346,540.797,0.5789999961853027,-2.33837885238967
541.396552,,0.001086731090883402,541.263,0.574999988079071,-2.3471643533600757
541.862069,,0.0008702741595193653,541.726,0.574999988079071,-2.347240000629413
542.327586,,0.004608149447301203,542.196,0.5830000042915344,-2.329888521876553
542.7931030000001,,0.008100948670643803,542.659,0.5860000252723694,-2.323429350275091
543.258621,,0.00907495755483292,543.122,0.6039999723434448,-2.2842864165953722
543.7241379999999,,0.006586911873845727,543.585,0.6060000061988831,-2.279994219172232
544.189655,,0.0019301683290653426,544.055,0.6169999837875366,-2.256083988408793
544.655172,,0.0018160933305903912,544.52,0.6060000061988831,-2.280091544949848
545.12069,,0.0016453918686834882,544.985,0.6079999804496765,-2.2757631609973337
545.5862070000001,,0.0026987725161595243,545.444,0.6079999804496765,-2.275777672086111
546.051724,,0.007496426229839752,545.911,0.6209999918937683,-2.2474547393707573
546.517241,,0.007849547217772188,546.377,0.6069999933242798,-2.277940349327534
546.982759,,0.002740213327002346,546.842,0.6039999723434448,-2.284446935445366
547.448276,,0.00349255805487047,547.308,0.5879999995231628,-2.3192638351831754
547.9137929999999,,0.0054174033064561386,547.77,0.6129999756813049,-2.2647460375744615
548.3793099999999,,0.0016794509199669204,548.241,0.6150000095367432,-2.2603281647716913
548.844828,,0.004061208915174131,548.704,0.6359999775886536,-2.2145085666624396
549.310345,,0.006426702861157001,549.166,0.6000000238418579,-2.2928666795456984
549.775862,,0.0028229327543364447,549.63,0.6039999723434448,-2.284077536582876
550.241379,,0.004140460153257364,550.1,0.628000020980835,-2.2317165546196813
550.706897,,0.00859996725504539,550.565,0.6050000190734863,-2.281755742485011
551.172414,,0.006519134474333702,551.028,0.6179999709129333,-2.2533699629357478
551.637931,,0.000729135002358554,551.494,0.6449999809265137,-2.1944910686838512
552.103448,,0.007445409718415462,551.959,0.6370000243186951,-2.211873897507094
552.568966,,0.008219638625207071,552.425,0.609000027179718,-2.2728409670872076
553.034483,,0.0023642453810524076,552.89,0.6299999952316284,-2.2270676698135787
553.5,,0.005625988009154622,553.356,0.5860000252723694,-2.3229212879929313
553.965517,,0.010325677045934737,553.815,0.6370000243186951,-2.2118188151840985
554.4310340000001,,0.009929271494814134,554.281,0.5929999947547913,-2.307703126289595
554.896552,,0.00610398636759144,554.748,0.6010000109672546,-2.290312384178662
555.3620689999999,,0.0005063190400852145,555.211,0.6159999966621399,-2.2576848638102542
555.827586,,0.006391916176235106,555.678,0.5889999866485596,-2.3165722077724946
556.293103,,0.012943285498192153,556.141,0.6069999933242798,-2.2774299472021213
556.758621,,0.015267924582568216,556.604,0.6060000061988831,-2.2796887568780386
557.224138,,0.01059800716733957,557.074,0.5929999947547913,-2.3080950608179442
557.689655,,0.0012392214640809477,557.539,0.6200000047683716,-2.249355779873891
558.155172,,0.00644510194062229,557.999,0.5929999947547913,-2.308260494065526
558.6206900000001,,0.0076736007272766036,558.464,0.6119999885559082,-2.2669411782811166
559.0862070000001,,0.0035654615602642064,558.929,0.6019999980926514,-2.2887934719710894
559.5517239999999,,0.00017179349444207496,559.395,0.6190000176429749,-2.2518100282181654
560.017241,,0.0014610947501673146,559.859,0.6050000190734863,-2.282350101019109
560.482759,,0.008478729166714254,560.325,0.6079999804496765,-2.2758369750476133
560.948276,,0.016016961396468864,560.79,0.6209999918937683,-2.247519745811521
561.413793,,0.018274809313383003,561.256,0.6110000014305115,-2.269293082312179
561.87931,,0.013155431221847891,561.719,0.6230000257492065,-2.2431178175683475
562.344828,,0.004229787050820719,562.189,0.5860000252723694,-2.323679441026847
562.8103450000001,,0.0019135219061864168,562.652,0.5960000157356262,-2.3018300892766344
563.275862,,0.001468348126374955,563.115,0.5929999947547913,-2.3082911648907
563.7413789999999,,0.0030546326775591276,563.585,0.5920000076293945,-2.3103852962949047
564.206897,,0.005854780182376818,564.048,0.6050000190734863,-2.281971512585738
564.672414,,0.004290715309853329,564.513,0.5849999785423279,-2.32544951893182
565.137931,,0.0011847563653853079,564.978,0.5979999899864197,-2.2970318531530296
565.603448,,0.0007981663206713311,565.443,0.5960000157356262,-2.3012970858067616
566.068966,,0.003928954250875477,565.904,0.574999988079071,-2.3469635170499354
566.534483,,0.007470386195110311,566.369,0.5979999899864197,-2.296779588443266
567.0,,0.007971769756681107,566.841,0.5839999914169312,-2.32721854628299
567.465517,,0.005062955689183759,567.299,0.5989999771118164,-2.2944917618231804
567.931034,,0.0014414935050658002,567.767,0.574999988079071,-2.3467493178257195
568.396552,,0.0003905708536626984,568.229,0.5540000200271606,-2.3924902579993113
568.862069,,0.0009564213554924968,568.7,0.5540000200271606,-2.3925008452011878
569.327586,,0.0026437234338608376,569.163,0.550000011920929,-2.4012475331281786
569.793103,,0.005848854989602813,569.626,0.5809999704360962,-2.3337616148105305
570.2586210000001,,0.007738573110512843,570.089,0.5839999914169312,-2.327294869843297
570.724138,,0.0058041503830134344,570.554,0.5419999957084656,-2.4188821908409435
571.189655,,0.0015035079092180002,571.024,0.5419999957084656,-2.418979610278816
571.655172,,0.001146087394990941,571.49,0.5630000233650208,-2.3733355705583943
572.12069,,4.990287477188988e-05,571.949,0.5460000038146973,-2.4104861134387066
572.586207,,0.003188863822987083,572.415,0.5440000295639038,-2.4149586704726453
573.051724,,0.005402282632640562,572.882,0.5669999718666077,-2.3649626148424105
573.517241,,0.004504700326712154,573.348,0.5419999957084656,-2.4195342711750745
573.982759,,0.0007034989332624518,573.815,0.5529999732971191,-2.3956635285569163
574.4482760000001,,0.003288448321148975,574.281,0.5529999732971191,-2.3957429973398665
574.913793,,0.0034789301134116302,574.742,0.5299999713897705,-2.4459134179250355
575.37931,,0.0020529203784462146,575.205,0.5460000038146973,-2.4110962893407604
575.844828,,0.010206652787311813,575.675,0.5419999957084656,-2.419829931718596
576.310345,,0.014615207049326357,576.136,0.5379999876022339,-2.4285399093436992
576.775862,,0.01168872020065123,576.6,0.550000011920929,-2.402367308079672
577.241379,,0.004266714383751109,577.07,0.5479999780654907,-2.406671875954402
577.706897,,0.0016923425073935511,577.536,0.5339999794960022,-2.4370975191928332
578.172414,,0.003107422731772887,578.0,0.550000011920929,-2.40214338737073
578.6379310000001,,0.0014663082097861966,578.466,0.5649999976158142,-2.369350082293654
579.1034480000001,,8.07310176185362e-05,578.93,0.546999990940094,-2.408437383203385
579.5689659999999,,0.0004264002553979395,579.389,0.5529999732971191,-2.395226885991777
580.034483,,0.003089125382280316,579.855,0.5419999957084656,-2.419048176718463
580.5,,0.006627904813548973,580.321,0.4490000009536743,-2.6215206722633733
580.965517,,0.009338047512580001,580.785,0.5379999876022339,-2.4274880486651695
581.431034,,0.010179501960326498,581.251,0.550000011920929,-2.401223284017824
581.896552,,0.008930653283854038,581.719,0.5419999957084656,-2.4185459836654357
582.362069,,0.005418179625505677,582.181,0.5400000214576721,-2.422815205111406
582.827586,,0.0003991173050118501,582.645,0.5260000228881836,-2.4532507236280416
583.2931030000001,,0.007014569539831186,583.115,0.5490000247955322,-2.4031015581601447
583.758621,,0.011092932330631343,583.574,0.5440000295639038,-2.413981335608546
584.2241379999999,,0.010074558386891832,584.045,0.527999997138977,-2.4488542270348743
584.689655,,0.0051467741065169895,584.511,0.5460000038146973,-2.4096813434300834
585.155172,,0.000803452337080362,584.97,0.5299999713897705,-2.4446100973503095
585.6206900000001,,0.001143148686490477,585.436,0.5230000019073486,-2.45995695446301
586.0862070000001,,0.006358519270199264,585.9,0.5630000233650208,-2.3729304923371353
586.551724,,0.012220103646509566,586.365,0.5299999713897705,-2.4449644442447345
587.017241,,0.013386220882784693,586.83,0.531000018119812,-2.442939167215297
587.482759,,0.008624075123296125,587.296,0.5299999713897705,-2.4452821903339736
587.948276,,0.0027169223886313204,587.759,0.5260000228881836,-2.4541665035625857
588.4137929999999,,0.001740161865028206,588.229,0.5379999876022339,-2.4281924743206056
588.87931,,0.006454985278079592,588.693,0.5669999718666077,-2.365174544440273
589.344828,,0.011777646283610834,589.156,0.527999997138977,-2.4502916409436284
589.810345,,0.012654338071650575,589.619,0.5210000276565552,-2.465674686437178
590.2758620000001,,0.008873161573175742,590.089,0.5899999737739563,-2.3154582124904377
590.741379,,0.003976146665328833,590.554,0.5460000038146973,-2.4114008018027104
591.2068969999999,,0.0011879847617478052,591.017,0.5170000195503235,-2.4746332400183118
591.672414,,0.0012468333799858454,591.482,0.5189999938011169,-2.4702968211901
592.137931,,0.002925508396259852,591.948,0.5180000066757202,-2.472464641678583
592.603448,,0.004279967506649289,592.414,0.46799999475479126,-2.581355332120833
593.068966,,0.003648460546089173,592.878,0.5339999794960022,-2.4374930244905353
593.534483,,0.00045679798095757797,593.343,0.5339999794960022,-2.4373918757470077
594.0,,0.004536450646751453,593.808,0.5239999890327454,-2.4590490416788247
594.4655170000001,,0.009752817349252317,594.274,0.5109999775886536,-2.4872181868448986
594.9310340000001,,0.013417862232535492,594.737,0.5130000114440918,-2.4826884925879296
595.3965519999999,,0.013986433269292553,595.199,0.5120000243186951,-2.484681041765463
595.862069,,0.010856310957412825,595.667,0.4869999885559082,-2.5389535880970633
596.327586,,0.0052024176785846745,596.129,0.5379999876022339,-2.4276469506530978
596.793103,,0.00021594971490938668,596.6,0.515999972820282,-2.4753850213372535
597.2586210000001,,0.0026727839328390336,597.063,0.5239999890327454,-2.45777265094757
597.724138,,0.0012890376616583317,597.528,0.5210000276565552,-2.464140592965555
598.189655,,0.0024957464916463587,597.993,0.4650000035762787,-2.5859989017258247
598.655172,,0.005984305936186513,598.458,0.503000020980835,-2.503092341138071
599.12069,,0.006845426322066718,598.923,0.5090000033378601,-2.4899345327991713
599.586207,,0.004614938574055037,599.388,0.5299999713897705,-2.444130758670362
600.0517239999999,,0.0014734162250070195,599.855,0.5070000290870667,-2.494222793421585
600.517241,,0.0008526907022495978,600.314,0.5210000276565552,-2.463741682590418
600.982759,,0.00389797513511573,600.786,0.5120000243186951,-2.4834063127397754
601.448276,,0.007564860910022183,601.244,0.5109999775886536,-2.485677578975543
601.913793,,0.007572402409104258,601.715,0.49000000953674316,-2.531555695923463
602.37931,,0.0033104055027324167,602.178,0.5090000033378601,-2.4903190011135674
602.844828,,0.001206884138960168,602.641,0.515999972820282,-2.4752523141853007
603.310345,,0.0014499471899241266,603.104,0.515999972820282,-2.475456290870306
603.775862,,0.00325249538483257,603.569,0.515999972820282,-2.4756742524865696
604.2413789999999,,0.009496425982210994,604.041,0.515999972820282,-2.475899610692404
604.706897,,0.0130112956283221,604.499,0.5080000162124634,-2.4935547061847623
605.172414,,0.011602163068388054,604.964,0.5239999890327454,-2.458915986741717
605.637931,,0.0061614050886869,605.429,0.5019999742507935,-2.5070525631179326
606.1034480000001,,0.0004173655247985132,605.897,0.5360000133514404,-2.43316460203459
606.5689659999999,,0.0008900059649402732,606.362,0.5049999952316284,-2.5008625597934135
607.0344829999999,,0.0041959029334867615,606.827,0.503000020980835,-2.5053484359011406
607.5,,0.012343057676675224,607.293,0.515999972820282,-2.4771195688931935
607.965517,,0.017735267593347755,607.755,0.5059999823570251,-2.498960682942248
608.431034,,0.017754524452566922,608.225,0.546999990940094,-2.409648984209522
608.896552,,0.014402510321756296,608.689,0.5210000276565552,-2.4662631976854335
609.362069,,0.010022234459685446,609.151,0.4749999940395355,-2.566408501913222
609.827586,,0.004185533938953162,609.619,0.5120000243186951,-2.4856869764147524
610.293103,,0.0036563895519081476,610.082,0.5099999904632568,-2.4898965430710116
610.758621,,0.010704286111472923,610.548,0.5049999952316284,-2.50060914695355
611.2241379999999,,0.012836933721121126,611.011,0.5149999856948853,-2.4786143826753055
611.689655,,0.009490810265135001,611.476,0.5040000081062317,-2.5023494938391995
612.155172,,0.004351203802699076,611.942,0.5180000066757202,-2.471603494141969
612.62069,,0.0013820664764868087,612.407,0.503000020980835,-2.504030663338301
613.0862070000001,,0.0016282374885236532,612.875,0.515999972820282,-2.4754558981419086
613.551724,,0.003511345903516028,613.34,0.492000013589859,-2.527499084434053
614.017241,,0.004800302152721365,613.804,0.5210000276565552,-2.46408976958077
614.4827590000001,,0.004219111501392214,614.269,0.5009999871253967,-2.5074571886654575
614.948276,,0.0021406667921862145,614.73,0.49399998784065247,-2.522531815581376
615.4137929999999,,0.00032080513934140757,615.199,0.4880000054836273,-2.535463994705411
615.8793099999999,,0.0007142599486967169,615.66,0.5049999952316284,-2.498328254462594
616.344828,,0.0037000536906231915,616.13,0.5049999952316284,-2.498273400170585
616.810345,,0.0070027978075388785,616.593,0.5090000033378601,-2.4895495300473987
617.275862,,0.0071731511775213865,617.055,0.48899999260902405,-2.533159847939459
617.741379,,0.0032462733122445952,617.521,0.492000013589859,-2.5267076607192864
618.206897,,0.0011727942454340075,617.989,0.4909999966621399,-2.5290147872604583
618.672414,,0.0006093303402911822,618.455,0.515999972820282,-2.47471763383449
619.137931,,0.006540052776313592,618.915,0.5049999952316284,-2.498886769421445
619.603448,,0.015170388546219653,619.38,0.4880000054836273,-2.5361571328744077
620.068966,,0.01766732231863297,619.844,0.503000020980835,-2.5037336476394447
620.534483,,0.01165222665120396,620.31,0.4869999885559082,-2.538863676767842
621.0,,0.0025105999448272413,620.782,0.5090000033378601,-2.4912118561220304
621.465517,,0.002711629221016466,621.24,0.492000013589859,-2.5285255197672547
621.9310340000001,,0.002580493791299268,621.708,0.4970000088214874,-2.51789862980717
622.396552,,0.000679226864523138,622.171,0.5049999952316284,-2.5007171372203048
622.862069,,0.0009420001408768871,622.641,0.4830000102519989,-2.548868549595291
623.327586,,0.004189613476972714,623.103,0.4880000054836273,-2.5381634348687316
623.793103,,0.00991115132962531,623.569,0.492000013589859,-2.529597878598242
624.258621,,0.013892507135136341,624.033,0.49399998784065247,-2.5253453111943007
624.724138,,0.011095017300027136,624.499,0.4779999852180481,-2.5602604205444064
625.189655,,0.0027320605867138053,624.959,0.5669999718666077,-2.366366036340157
625.655172,,0.003993667324058799,625.425,0.47200000286102295,-2.573289722656537
626.1206900000001,,0.0035468133264594266,625.89,0.48500001430511475,-2.544868691093678
626.5862070000001,,0.002465949740866377,626.356,0.47600001096725464,-2.5643313838037898
627.0517239999999,,0.007810178161019343,626.823,0.4699999988079071,-2.5772157921077405
627.5172409999999,,0.008087828764632201,627.289,0.4650000035762787,-2.5878849827355817
627.982759,,0.004147261849304425,627.752,0.47200000286102295,-2.572380499140443
628.448276,,0.00020819374257251435,628.215,0.4699999988079071,-2.5764612413329884
628.913793,,0.0004935462589822699,628.685,0.48399999737739563,-2.545668775587181
629.37931,,0.0014008207242166995,629.148,0.4909999966621399,-2.530120057776726
629.844828,,0.0022209271803049838,629.611,0.46399998664855957,-2.588647544803042
630.3103450000001,,0.0008280121525744185,630.081,0.5090000033378601,-2.490323325075215
630.7758620000001,,0.006505429250860879,630.539,0.46399998664855957,-2.588097071165383
631.2413789999999,,0.010735011396163438,631.006,0.46399998664855957,-2.5878600738464965
631.706897,,0.010723678724910021,631.471,0.4819999933242798,-2.5484437980106462
632.172414,,0.006980901186240598,631.937,0.4779999852180481,-2.5570000137200655
632.637931,,0.0018181078817301867,632.403,0.48100000619888306,-2.550352681498574
633.103448,,0.0024131476164914543,632.867,0.503000020980835,-2.502361391856177
633.568966,,0.003782480519548808,633.332,0.46399998664855957,-2.5873203077548115
634.034483,,0.0015476749007223727,633.797,0.4650000035762787,-2.585187396854245
634.5,,0.0028618307906037783,634.262,0.36399999260902405,-2.805332684297408
634.9655170000001,,0.0066599844957230545,634.726,0.4749999940395355,-2.5636591970751406
635.431034,,0.007945606690767036,635.196,0.46399998664855957,-2.587829249846576
635.8965519999999,,0.006838010051374266,635.656,0.4779999852180481,-2.5575733583163798
636.362069,,0.004595415214203729,636.119,0.4699999988079071,-2.575280486024036
636.827586,,0.0021553504846165287,636.589,0.492000013589859,-2.5276521288351317
637.293103,,0.00022304899043948888,637.052,0.4749999940395355,-2.565005644743185
637.7586210000001,,0.0020762928952542917,637.517,0.49000000953674316,-2.5326471061235916
638.224138,,0.002238079401185613,637.982,0.46399998664855957,-2.5896085186843756
638.689655,,0.00012806266419734423,638.448,0.49399998784065247,-2.52455122675478
639.155172,,0.0024648601707010927,638.915,0.46399998664855957,-2.5901892552108627
639.62069,,0.002191653084972155,639.38,0.46299999952316284,-2.5926147871013767
640.086207,,0.0019381263883330557,639.844,0.4830000102519989,-2.549249619683427
640.551724,,0.005910123432848635,640.31,0.46700000762939453,-2.5842698440396283
641.017241,,0.00404754158015914,640.771,0.5809999704360962,-2.336012694988759
641.482759,,0.0040944504769757015,641.234,0.5009999871253967,-2.5103543895603164
641.9482760000001,,0.011931926291725799,641.704,0.4690000116825104,-2.5800618004273677
642.413793,,0.012610874860396274,642.166,0.46700000762939453,-2.584353725090124
642.87931,,0.006429885612019778,642.63,0.42800000309944153,-2.669203008187304
643.344828,,0.00013590222031794756,643.1,0.48399999737739563,-2.547031959531997
643.810345,,0.0017312907029715678,643.565,0.4869999885559082,-2.5402842304742164
644.275862,,0.00153674931933542,644.029,0.47600001096725464,-2.5639978073841334
644.7413789999999,,0.006127758486381684,644.495,0.4699999988079071,-2.5767865210853
645.206897,,0.008631520737895724,644.959,0.43799999356269836,-2.646197959257523
645.672414,,0.006937546181938252,645.425,0.46700000762939453,-2.5826995521515537
646.1379310000001,,0.0006810759464241009,645.89,0.46399998664855957,-2.588914873068593
646.6034480000001,,0.00745279849613313,646.355,0.4650000035762787,-2.5864215179641965
647.0689659999999,,0.012377061386171171,646.815,0.46799999475479126,-2.5795862740235753
647.534483,,0.011008297437415921,647.28,0.47999998927116394,-2.553167101597584
648.0,,0.005895633526847981,647.749,0.460999995470047,-2.594318017040918
648.465517,,0.0027550555033311165,648.211,0.4620000123977661,-2.591935647779359
648.931034,,0.0042702115356624305,648.674,0.421999990940094,-2.678924848182829
649.396552,,0.007709474077727773,649.144,0.492000013589859,-2.5263142171754542
649.862069,,0.008924182956930059,649.608,0.47200000286102295,-2.5698353422989504
650.327586,,0.007138709200915081,650.07,0.48399999737739563,-2.543693631633649
650.7931030000001,,0.0046223670804025245,650.536,0.4740000069141388,-2.5655361423254806
651.258621,,0.002656754073679747,651.0,0.44699999690055847,-2.624468686193524
651.7241379999999,,0.00014545394239210771,651.466,0.47600001096725464,-2.5614471885755266
652.189655,,0.004992054984686127,651.93,0.4729999899864197,-2.568187639418616
652.655172,,0.009711038625296134,652.395,0.4740000069141388,-2.5662519712819027
653.12069,,0.009862142640047184,652.86,0.4729999899864197,-2.5687050543305157
653.5862070000001,,0.0035696774905262826,653.325,0.4699999988079071,-2.5755386956878725
654.051724,,0.005191651991933944,653.79,0.47200000286102295,-2.5714936902686487
654.517241,,0.009268492865790116,654.256,0.4729999899864197,-2.5696326749786538
654.982759,,0.005138581740371015,654.726,0.46399998664855957,-2.58955412860038
655.448276,,0.003318540981054802,655.188,0.47200000286102295,-2.5724253873471916
655.9137929999999,,0.008613806901610285,655.652,0.43799999356269836,-2.646778460574637
656.37931,,0.006998525115026029,656.114,0.46399998664855957,-2.5903834169818274
656.844828,,0.0014693387347610447,656.582,0.4699999988079071,-2.5775242510817047
657.310345,,0.002086480252409909,657.044,0.4699999988079071,-2.57769284373092
657.7758620000001,,0.0007269995967125165,657.51,0.47699999809265137,-2.5625614044063796
658.241379,,0.003475777065340075,657.974,0.4659999907016754,-2.586592512178796
658.7068969999999,,0.0060007439224617,658.44,0.4580000042915344,-2.6040328795166396
659.172414,,0.004068833342832375,658.907,0.49799999594688416,-2.5168427423140716
659.637931,,0.0007369823068104499,659.373,0.5820000171661377,-2.3337349289701477
660.103448,,0.0035526817851226425,659.838,0.4860000014305115,-2.5427279722350233
660.568966,,0.0009219219053335365,660.304,0.46399998664855957,-2.5904521845615167
661.034483,,0.005261504242743659,660.767,0.47600001096725464,-2.5640622479535677
661.5,,0.00967655462153578,661.229,0.46399998664855957,-2.589927791147725
661.965517,,0.009500700051577377,661.7,0.46399998664855957,-2.5896260420518886
662.4310340000001,,0.006665347043492577,662.163,0.4779999852180481,-2.5588089217704013
662.8965519999999,,0.003992597106591134,662.626,0.4740000069141388,-2.5672022928998652
663.362069,,0.0015472535373528685,663.089,0.4779999852180481,-2.558170945774774
663.827586,,0.00178268488516384,663.554,0.47999998927116394,-2.5535106645720593
664.293103,,0.005069544918629261,664.024,0.492000013589859,-2.5270864132715065
664.7586210000001,,0.005980753798699592,664.49,0.49799999594688416,-2.513764544916526
665.224138,,0.003952467111910395,664.949,0.4860000014305115,-2.539696005392298
665.689655,,0.0009465434937975185,665.415,0.4779999852180481,-2.5569574965579456
666.155172,,0.0006598209135807629,665.882,0.4909999966621399,-2.528517215869409
666.62069,,0.00029949032952106107,666.347,0.460999995470047,-2.593812578305253
667.086207,,0.0035085255229566617,666.812,0.46700000762939453,-2.580732923313133
667.5517239999999,,0.006873519274368586,667.278,0.4779999852180481,-2.5568167984680534
668.017241,,0.007026567797767796,667.741,0.4950000047683716,-2.519882987878276
668.482759,,0.002095626182383275,668.21,0.46399998664855957,-2.587575255637744
668.948276,,0.005624049999654869,668.671,0.48100000619888306,-2.550738894861056
669.413793,,0.01098406707988241,669.141,0.515999972820282,-2.474726716531422
669.87931,,0.010705400997555252,669.604,0.4880000054836273,-2.5360006095075125
670.3448279999999,,0.00654195495318637,670.066,0.46700000762939453,-2.582047886329373
670.810345,,0.0033806420464007267,670.532,0.47999998927116394,-2.55403713140818
671.275862,,0.004124045638972792,670.996,0.47600001096725464,-2.5630698894637503
671.7413789999999,,0.006642097417564586,671.462,0.4729999899864197,-2.5699209977130892
672.206897,,0.006165676615456845,671.926,0.49000000953674316,-2.533186278433679
672.672414,,0.0008437793063893556,672.392,0.4830000102519989,-2.5487168344638698
673.137931,,0.005616888773777277,672.859,0.4749999940395355,-2.56639536546006
673.6034480000001,,0.007654278783779901,673.325,0.4970000088214874,-2.518676140304275
674.068966,,0.0041511748756648545,673.79,0.48899999260902405,-2.536271370574024
674.5344829999999,,4.317783094666302e-05,674.256,0.47600001096725464,-2.5647098435883016
675.0,,0.0004035296157516051,674.718,0.492000013589859,-2.529914487871004
675.465517,,0.0051143404914918075,675.181,0.4790000021457672,-2.558245009243663
675.931034,,0.008609523823171194,675.644,0.45100000500679016,-2.619200798598785
676.396552,,0.006965025234703942,676.114,0.4740000069141388,-2.5689933578871336
676.862069,,0.0022658151004340595,676.582,0.4860000014305115,-2.5427013840909694
677.327586,,0.00037539603031453014,677.045,0.4740000069141388,-2.5686510866819625
