Trial: ,45
Threshold: ,0.0
Maximum EMG: ,0.13382422473919361
Success: ,True

EMG Time,Raw EMG,Filtered EMG,Force Time,Raw Force (V),Filtered Force (N)
0.0,samples,3.218148070083493e-05,0.466,0.5189999938011169,-2.4708628945443705
0.46551699999999996,time,3.316476581610717e-05,0.93,0.5260000228881836,-2.455797237839028
0.9310339999999999,value,3.407233594620903e-05,1.4,0.5130000114440918,-2.484251396670513
1.396552,,3.489768702572559e-05,1.863,0.5239999890327454,-2.460360605779518
1.862069,,3.563432710948443e-05,2.326,0.5180000066757202,-2.473446765856715
2.327586,,3.627580002850728e-05,2.796,0.5180000066757202,-2.4734003603532226
2.793103,,3.681570993951224e-05,3.259,0.515999972820282,-2.4776518918153445
3.258621,,3.7247746719014934e-05,3.724,0.5120000243186951,-2.486204192080483
3.724138,,3.7565712147950294e-05,4.189,0.5130000114440918,-2.483811881154211
4.189654999999999,,3.7763546827580576e-05,4.654,0.5260000228881836,-2.4552302709980234
4.655172,,3.7835357762287846e-05,5.119,0.5370000004768372,-2.430967538594616
5.12069,,3.7775446539687994e-05,5.585,0.5009999871253967,-2.5090717255906196
5.586207,,3.757833803336695e-05,6.044,0.503000020980835,-2.5043685290623148
6.051723999999999,,3.7238809548447794e-05,6.51,0.5040000081062317,-2.5018365174768435
6.517241,,3.675192032516969e-05,6.978,0.5170000195503235,-2.4731634930714192
6.982759,,3.611304131071681e-05,7.44,0.5120000243186951,-2.4837192478258836
7.448276,,3.531788510469914e-05,7.904,0.5049999952316284,-2.4986558301782624
7.913793000000001,,3.4362535978978974e-05,8.373,0.5170000195503235,-2.472231175262269
8.379309999999998,,3.324347986797882e-05,8.834,0.5009999871253967,-2.506850670673953
8.844828000000001,,3.19576342212222e-05,9.303,0.5049999952316284,-2.4979466496731035
9.310345,,3.050237760567015e-05,9.769,0.5009999871253967,-2.5065275589292
9.775862,,2.8875578941448154e-05,10.232,0.5130000114440918,-2.480309794157899
10.241379,,2.7075626250832595e-05,10.697,0.503000020980835,-2.502084362578619
10.706897,,2.510145479690815e-05,11.159,0.5170000195503235,-2.4716338187449263
11.172414,,2.2952574485140035e-05,11.625,0.5040000081062317,-2.5000678229580653
11.637931,,2.062909639825296e-05,12.089,0.5210000276565552,-2.4631999767072834
12.103447999999998,,1.8131758332294986e-05,12.555,0.5049999952316284,-2.4982803037207333
12.568966000000001,,1.5461949199613e-05,13.022,0.5270000100135803,-2.4506177903588067
13.034483,,1.262173216270068e-05,13.488,0.4959999918937683,-2.5184617732041357
13.5,,9.61386636152221e-06,13.956,0.5040000081062317,-2.501367828220093
13.965517,,6.441827095988578e-06,14.418,0.5239999890327454,-2.458149465547827
14.431034,,3.1098243247895478e-06,14.881,0.5139999985694885,-2.4802984024841557
14.896552,,3.771806582150577e-07,15.344,0.5009999871253967,-2.5089804976767818
15.362069,,4.013460508346095e-06,15.811,0.5090000033378601,-2.491897680070833
15.827586000000002,,7.792509212489875e-06,16.274,0.5339999794960022,-2.437753621983015
16.293103,,1.170703170526688e-05,16.74,0.5090000033378601,-2.4925071739728515
16.758621,,1.5748935852641854e-05,17.207,0.5239999890327454,-2.46007148236072
17.224138,,1.9909326933973412e-05,17.673,0.5230000019073486,-2.4624431956053794
17.689655,,2.4178504750260392e-05,18.138,0.5210000276565552,-2.466936447420292
18.155172,,2.8545963482505877e-05,18.603,0.47999998927116394,-2.556336714378386
18.62069,,3.3000394419676325e-05,19.07,0.5210000276565552,-2.467025525798403
19.086207,,3.752969167067165e-05,19.536,0.5130000114440918,-2.4844050347505044
19.551724,,4.212096096903418e-05,20.0,0.5260000228881836,-2.455970238352382
20.017241000000002,,4.676053167280316e-05,20.466,0.5360000133514404,-2.4340115417029633
20.482758999999998,,5.143397205496213e-05,20.93,0.515999972820282,-2.4773573403145024
20.948276,,5.6126107972326187e-05,21.392,0.5040000081062317,-2.5032263123245038
21.413793000000002,,6.082104499247401e-05,21.855,0.4729999899864197,-2.570451926911937
21.87931,,6.550219404944761e-05,22.325,0.550000011920929,-2.4023548588776626
22.344828,,7.015230068942483e-05,22.784,0.5299999713897705,-2.445566742007791
22.810344999999998,,7.47534779574219e-05,23.25,0.5,-2.510555572758839
23.275862,,7.928724296531468e-05,23.715,0.5049999952316284,-2.499294994465884
23.741379,,8.373455717009004e-05,24.182,0.5170000195503235,-2.4727983503801245
24.206897,,8.80758703792656e-05,24.647,0.5339999794960022,-2.435433003392424
24.672414,,9.229116848786544e-05,25.112,0.503000020980835,-2.5026767780838006
25.137931,,9.636002493822938e-05,25.577,0.5120000243186951,-2.4828184923756886
25.603448,,0.00010026165588028817,26.044,0.5090000033378601,-2.489155882842359
26.068966,,0.00010397497899578046,26.51,0.5049999952316284,-2.497729887389562
26.534483,,0.00010747867593524841,26.971,0.5120000243186951,-2.482401121608992
27.0,,0.00011075125830155938,27.44,0.5109999775886536,-2.484566486113617
27.465517,,0.00011377113709819358,27.901,0.5090000033378601,-2.48897557707232
27.931034,,0.00011651669554465053,28.37,0.47699999809265137,-2.5588086747080387
28.396552,,0.00011896636514510012,28.833,0.5180000066757202,-2.469661828967199
28.862069,,0.00012109870487988012,29.296,0.515999972820282,-2.4742522213350213
29.327586,,0.00012289248337266705,29.761,0.5019999742507935,-2.505034074816619
29.793103000000002,,0.00012432676386916948,30.224,0.5320000052452087,-2.4399945368384124
30.258620999999998,,0.0001253809918460644,30.69,0.5180000066757202,-2.470844567101554
30.724138,,0.00012603508505167245,31.155,0.5040000081062317,-2.50171318584085
31.189655000000002,,0.00012626952576260346,31.621,0.5120000243186951,-2.4846595778888125
31.655172000000004,,0.00012606545502335864,32.089,0.5320000052452087,-2.441458537974249
32.12069,,0.0001254047686187132,32.554,0.5090000033378601,-2.491923904703873
32.586207,,0.00012427021451168684,33.018,0.5180000066757202,-2.472646517349776
33.051724,,0.00012264549146310554,33.484,0.503000020980835,-2.505621069134839
33.517241000000006,,0.0001205153485322373,33.945,0.5370000004768372,-2.431797065824387
33.982759,,0.00011786568514181389,34.414,0.5339999794960022,-2.438529731490955
34.448276,,0.00011468365137500618,34.878,0.5130000114440918,-2.4844185223147845
34.913793,,0.00011095774815667443,35.34,0.48500001430511475,-2.54549570522971
35.37931,,0.00010667792695654259,35.808,0.5170000195503235,-2.47579029172916
35.844828,,0.00010183568863792476,36.27,0.5170000195503235,-2.4757369848142656
36.310345,,9.64241810623386e-05,36.736,0.515999972820282,-2.47779873913035
36.775862,,9.043829504785346e-05,37.199,0.5080000162124634,-2.495050837250249
37.241378999999995,,8.387475826742025e-05,37.665,0.5210000276565552,-2.466496754400382
37.706897000000005,,7.673222666279153e-05,38.13,0.531000018119812,-2.444430490446743
38.172414,,6.901137294004651e-05,38.595,0.5009999871253967,-2.5094704499913343
38.637931,,6.071497170426222e-05,39.06,0.45100000500679016,-2.618055019949211
39.103448,,5.184798078359839e-05,39.526,0.503000020980835,-2.504401035679799
39.568965999999996,,4.2417618287066155e-05,39.993,0.5040000081062317,-2.501851754063584
40.034483,,3.243343493560456e-05,40.458,0.5230000019073486,-2.4600899800647635
40.5,,2.1907381202869193e-05,40.919,0.4880000054836273,-2.535989323909732
40.965517,,1.0853868800414863e-05,41.389,0.515999972820282,-2.4746588853069493
41.431034,,7.101739581999985e-07,41.849,0.5149999856948853,-2.4765436200847186
41.896552,,1.2765253378379097e-05,42.318,0.5059999823570251,-2.4959004667388918
42.362069000000005,,2.52892686513366e-05,42.785,0.5149999856948853,-2.47609217359516
42.827586000000004,,3.825747762270105e-05,43.25,0.5149999856948853,-2.475948118524758
43.293103,,5.164247051199143e-05,43.709,0.503000020980835,-2.5020085492778694
43.758621,,6.541415202345553e-05,44.174,0.515999972820282,-2.473666436638591
44.224138,,7.953973227821567e-05,44.64,0.5210000276565552,-2.46281708518566
44.689655,,9.398372698515901e-05,45.104,0.5130000114440918,-2.4803525931938766
45.155172,,0.00010870796725350115,45.569,0.5120000243186951,-2.482696898619504
45.620689999999996,,0.0001236716194334086,46.037,0.5260000228881836,-2.4524159846050577
46.086206999999995,,0.0001388312153524617,46.503,0.48100000619888306,-2.5507237749327873
46.551724,,0.00015414069329505243,46.966,0.4699999988079071,-2.5749995550658813
47.017241,,0.0001695514500490281,47.429,0.48500001430511475,-2.5426642408384335
47.482759,,0.00018501240431900536,47.9,0.5080000162124634,-2.492922496527696
47.948276,,0.00020047007177878678,48.363,0.5,-2.5107296016717484
48.413793,,0.00021586865200622397,48.83,0.5049999952316284,-2.5002132885237587
48.879310000000004,,0.00023115012751270147,49.292,0.5260000228881836,-2.4548257290756705
49.344828,,0.0002462543750461883,49.758,0.5450000166893005,-2.4137704961957374
49.810345,,0.0002611192893115505,50.221,0.5120000243186951,-2.4859692231724453
50.275862,,0.00027568091921457955,50.687,0.48100000619888306,-2.553767277443449
50.741379,,0.00028987361669701546,51.152,0.5199999809265137,-2.4690097103726876
51.206897,,0.0003036301981887941,51.617,0.49399998784065247,-2.5258073678716637
51.672414,,0.00031688211866088704,52.082,0.5049999952316284,-2.501933504532335
52.137931,,0.00032955965821751055,52.548,0.5059999823570251,-2.4997819382909965
52.603448,,0.00034159212112024333,53.016,0.5099999904632568,-2.491028939346739
53.068966,,0.00035290804708881075,53.474,0.5090000033378601,-2.493104667387837
53.534483,,0.0003634354346740686,53.944,0.5019999742507935,-2.508190987904021
54.0,,0.0003731019764481714,54.407,0.503000020980835,-2.50579168468266
54.465517,,0.00038183530570516357,54.87,0.5170000195503235,-2.4750201701283916
54.931034,,0.0003895632543124256,55.34,0.5049999952316284,-2.500851452186299
55.396552,,0.0003962141212996813,55.8,0.48399999737739563,-2.546258306991058
55.862069,,0.0004017169517177905,56.271,0.5170000195503235,-2.473996549809271
56.327586,,0.0004060018252444726,56.729,0.5199999809265137,-2.46708294665775
56.793102999999995,,0.0004090001539586047,57.197,0.503000020980835,-2.5037416053190475
57.258621000000005,,0.0004106449886490046,57.662,0.5130000114440918,-2.481588048971316
57.724138,,0.0004108713329678262,58.13,0.5270000100135803,-2.4507418211419796
58.189655,,0.00040961646468306705,58.596,0.546999990940094,-2.4068550263067747
58.655172,,0.0004068202632294301,59.06,0.5049999952316284,-2.498085053806304
59.120689999999996,,0.00040242554270210096,59.526,0.503000020980835,-2.5022193195618683
59.586207,,0.00039637838938413037,59.992,0.503000020980835,-2.502054374261207
60.051724,,0.0003886285028452742,60.45,0.5139999985694885,-2.477987367559408
60.517241,,0.000379129539598579,60.919,0.5139999985694885,-2.4779513399183175
60.982758999999994,,0.00036783945825095683,61.381,0.5009999871253967,-2.50630498390172
61.448276,,0.00035472086503571075,61.848,0.5170000195503235,-2.4715443514516546
61.913793,,0.00033974135856871103,62.31,0.5040000081062317,-2.500028407543869
62.379310000000004,,0.0003228738726259214,62.776,0.5040000081062317,-2.5002492405589827
62.84482800000001,,0.00030409701569850887,63.24,0.5049999952316284,-2.4983443942658505
63.310345000000005,,0.0002833954060431046,63.706,0.5109999775886536,-2.4855909454029015
63.775862000000004,,0.0002607600009091771,64.17,0.5049999952316284,-2.499016169811924
64.241379,,0.00023618841859317672,64.636,0.5180000066757202,-2.4710712672080493
64.706897,,0.00020968525194035327,65.103,0.5109999775886536,-2.4867119936380084
65.172414,,0.00018126237189023078,65.569,0.5149999856948853,-2.4783881963451555
65.637931,,0.0001509392196409582,66.034,0.5090000033378601,-2.4918398171087714
66.103448,,0.00011874308599137713,66.5,0.503000020980835,-2.50526910795873
66.56896599999999,,8.470937640776488e-05,66.963,0.531000018119812,-2.4445909580786642
67.03448300000001,,4.8881860354996286e-05,67.425,0.5139999985694885,-2.481908124256159
67.5,,1.1312903429783211e-05,67.893,0.5080000162124634,-2.495207772019971
67.965517,,2.7936319162754868e-05,68.355,0.5270000100135803,-2.453982122975571
68.431034,,6.879562923865752e-05,68.819,0.49799999594688416,-2.51726725123543
68.896552,,0.00011118567380596677,69.288,0.5130000114440918,-2.4846245076474682
69.362069,,0.0001550177761926471,69.754,0.5040000081062317,-2.5042010299759396
69.827586,,0.0002001938115213214,70.218,0.5109999775886536,-2.4888515811410787
70.293103,,0.0002466061078859159,70.683,0.5260000228881836,-2.4560075860961605
70.75862099999999,,0.0002941373745437282,71.148,0.515999972820282,-2.477569149685199
71.22413800000001,,0.0003426606583927223,71.614,0.5009999871253967,-2.509969994902586
71.689655,,0.0003920393299581419,72.078,0.5210000276565552,-2.466072942770945
72.15517200000001,,0.00044212710005478683,72.543,0.5040000081062317,-2.5027504919971406
72.62069,,0.000492768068213014,73.007,0.5130000114440918,-2.482758466270784
73.086207,,0.0005437968038714086,73.473,0.5,-2.5106839160362693
73.551724,,0.0005950384612753801,73.941,0.49900001287460327,-2.5124650045861023
74.017241,,0.0006463089289730045,74.403,0.5040000081062317,-2.5011859159026573
74.482759,,0.0006974150147045974,74.871,0.46299999952316284,-2.5901486373615583
74.94827599999999,,0.0007481546663024956,75.333,0.5090000033378601,-2.4896042849394058
75.41379300000001,,0.0007983172290507872,75.796,0.515999972820282,-2.4740715018905637
75.87931,,0.0008476837399586461,76.259,0.503000020980835,-2.5021633174044187
76.344828,,0.0008960272594988747,76.725,0.49900001287460327,-2.5107065808169695
76.810345,,0.0009431132411708228,77.19,0.5080000162124634,-2.490991957394155
77.275862,,0.000988699938615332,77.655,0.5040000081062317,-2.4996674378765174
77.741379,,0.0010325388496110622,78.122,0.5170000195503235,-2.4713744376506503
78.206897,,0.0010743751969590992,78.588,0.5210000276565552,-2.462756574976669
78.67241399999999,,0.001113948447306464,79.052,0.5080000162124634,-2.491240107478527
79.137931,,0.0011509928680710371,79.517,0.5130000114440918,-2.480567844952234
79.603448,,0.0011852381194374267,79.99,0.492000013589859,-2.5265942886421566
80.068966,,0.001216409877324045,80.448,0.515999972820282,-2.4746275599498992
80.53448300000001,,0.0012442304885767908,80.911,0.5080000162124634,-2.4924134891377534
81.0,,0.0012684196657496436,81.374,0.5090000033378601,-2.490616973564724
81.465517,,0.001288695222318439,81.841,0.5210000276565552,-2.4648690109305305
81.931034,,0.0013047738310467388,82.304,0.5040000081062317,-2.502303789144846
82.396552,,0.00131637178677498,82.77,0.515999972820282,-2.4765479084962374
82.86206899999999,,0.0013232057906386306,83.24,0.4970000088214874,-2.5183087703432943
83.327586,,0.0013249938038166975,83.706,0.5070000290870667,-2.496856935125854
83.79310299999999,,0.0013214559698512848,84.17,0.5070000290870667,-2.497149664518064
84.258621,,0.0013123155011192794,84.636,0.5070000290870667,-2.4973914115177434
84.72413800000001,,0.0012972994430094436,85.1,0.5109999775886536,-2.488860295545618
85.189655,,0.001276139456059055,85.565,0.5059999823570251,-2.4998728735276554
85.65517200000001,,0.0012485728998189883,86.03,0.5040000081062317,-2.5042818907694477
86.12069,,0.0012143441501851692,86.495,0.5299999713897705,-2.4476192987686423
86.586207,,0.0011732055056752717,86.956,0.5170000195503235,-2.475853984540981
87.051724,,0.0011249173019873262,87.425,0.5009999871253967,-2.5105577491149145
87.517241,,0.0010692482492732597,87.886,0.5249999761581421,-2.4580533852113313
87.98275899999999,,0.0010059775765606043,88.355,0.5249999761581421,-2.457780280186642
88.448276,,0.000934898153494617,88.818,0.5059999823570251,-2.4988532315709095
88.913793,,0.0008558166614278439,89.281,0.5379999876022339,-2.428776527854594
89.37931,,0.0007685493786326074,89.747,0.5090000033378601,-2.491569355706455
89.844828,,0.0006729205032259459,90.211,0.515999972820282,-2.475914894855293
90.310345,,0.0005687714792536925,90.676,0.503000020980835,-2.503829940291752
90.775862,,0.00045597383334520055,91.14,0.49900001287460327,-2.5121466855310275
91.241379,,0.0003344221292549125,91.606,0.5379999876022339,-2.4268026479748546
91.706897,,0.00020400377796634628,92.074,0.48500001430511475,-2.541926316814463
92.17241399999999,,6.45911934172892e-05,92.539,0.5149999856948853,-2.4762654357977425
92.63793100000001,,8.390071988380016e-05,93.004,0.5130000114440918,-2.48037346652757
93.103448,,0.0002414510054402683,93.469,0.5080000162124634,-2.491076909340088
93.568966,,0.00040799868833474453,93.93,0.5180000066757202,-2.4691658756482444
94.03448300000001,,0.0005836247841715929,94.399,0.49900001287460327,-2.5105047575636203
94.5,,0.000768560458044231,94.863,0.5080000162124634,-2.4909126800104024
94.965517,,0.000962818156033401,95.325,0.5170000195503235,-2.471391247152899
95.431034,,0.001165879598169109,95.796,0.5180000066757202,-2.4693666112659245
95.896552,,0.001377204532732083,96.259,0.5130000114440918,-2.480476704817307
96.36206899999999,,0.001597277428159091,96.725,0.5049999952316284,-2.4981795122344126
96.827586,,0.001827395731872271,97.189,0.503000020980835,-2.5028593007373794
97.293103,,0.0020673483119695597,97.655,0.5189999938011169,-2.468362735881938
97.758621,,0.002313998737512751,98.115,0.5019999742507935,-2.505789678587139
98.224138,,0.002564928821037009,98.58,0.4959999918937683,-2.519268210649832
98.689655,,0.002824258270979855,99.044,0.503000020980835,-2.5044292314180514
99.155172,,0.0030997951974694967,99.51,0.5009999871253967,-2.5091906166685893
99.62069,,0.00338879686856912,99.978,0.5249999761581421,-2.4572866892254037
100.086207,,0.0036724711036051198,100.441,0.5270000100135803,-2.4532800031595263
100.551724,,0.003940870345099989,100.904,0.5059999823570251,-2.4993386482684574
101.017241,,0.0042240568589757745,101.374,0.515999972820282,-2.4778066286926625
101.482759,,0.0045657755287690106,101.837,0.5019999742507935,-2.5085022111760016
101.948276,,0.004938370913973512,102.299,0.5260000228881836,-2.456343019700582
102.413793,,0.005229055019693254,102.765,0.515999972820282,-2.47818772901003
102.87931,,0.005403906738675497,103.235,0.5210000276565552,-2.467280114104178
103.344828,,0.005666920255910701,103.701,0.5239999890327454,-2.4606579931735935
103.810345,,0.006249603860630185,104.16,0.515999972820282,-2.477931503827046
104.275862,,0.006916020527289455,104.626,0.5370000004768372,-2.431959206457168
104.741379,,0.007000910150172531,105.093,0.5410000085830688,-2.4229651104015404
105.206897,,0.006460436358245948,105.559,0.5009999871253967,-2.5097815148060176
105.672414,,0.006639717116922639,106.019,0.5,-2.511591926827803
106.13793100000001,,0.008724927695553513,106.484,0.4129999876022339,-2.700741291104371
106.603448,,0.010825110053443013,106.952,0.625,-2.2384607740159863
107.068966,,0.00833078426980382,107.421,0.49300000071525574,-2.52563036244755
107.534483,,0.0006551416670150872,107.882,0.5419999957084656,-2.4184717317993454
108.0,,0.011199042997781484,108.344,0.49799999594688416,-2.5139485173090983
108.46551699999999,,0.015524347453877249,108.815,0.5170000195503235,-2.472203453771918
108.931034,,0.01098528269411239,109.277,0.5370000004768372,-2.428323349673967
109.396552,,0.0021934921111126087,109.743,0.5210000276565552,-2.46292658629729
109.862069,,0.004104240428187622,110.207,0.5289999842643738,-2.445302339946697
110.32758600000001,,0.004485830818332648,110.673,0.5109999775886536,-2.484389179498004
110.793103,,0.0001757706175582502,111.137,0.5090000033378601,-2.4886884093023793
111.258621,,0.004875197861425274,111.603,0.5210000276565552,-2.462559431673538
111.724138,,0.007123471891101203,112.07,0.5019999742507935,-2.504041186280244
112.189655,,0.006145621077279203,112.529,0.5130000114440918,-2.480233379386823
112.655172,,0.004910473499627735,113.0,0.5630000233650208,-2.3715226725714382
113.12069,,0.0066385068050349326,113.466,0.5210000276565552,-2.4633040793456322
113.586207,,0.010806245700521426,113.926,0.5249999761581421,-2.4549162869120287
114.051724,,0.012991389880615888,114.396,0.5210000276565552,-2.4639968818947016
114.51724100000001,,0.009654071585008608,114.856,0.49900001287460327,-2.512322175156585
114.982759,,0.002649115746068141,115.326,0.47600001096725464,-2.5628443477721867
115.448276,,0.00223703614533127,115.785,0.5080000162124634,-2.493547173731716
115.913793,,0.0013987564248950236,116.25,0.5180000066757202,-2.4721729094138
116.37931,,0.002898494846702163,116.715,0.48100000619888306,-2.553174792877951
116.84482799999999,,0.005378531320303918,117.183,0.5170000195503235,-2.4751033422019773
117.310345,,0.00354805326587398,117.648,0.515999972820282,-2.477598332248039
117.77586199999999,,0.00020171977553508298,118.115,0.49000000953674316,-2.534505643451416
118.241379,,0.001856538023473233,118.58,0.5199999809265137,-2.4693471917619245
118.70689700000001,,0.00013831751157318708,119.045,0.5149999856948853,-2.4803729040801255
119.172414,,0.004166661592324225,119.51,0.5070000290870667,-2.497861458692033
119.63793100000001,,0.007265664538610004,119.97,0.5289999842643738,-2.449915617979408
120.103448,,0.006993931570499194,120.44,0.5139999985694885,-2.482504410582981
120.568966,,0.00306359515940014,120.9,0.5109999775886536,-2.488877013465942
121.034483,,0.0017735272776684431,121.37,0.5120000243186951,-2.48646759929587
121.5,,0.003782235710896133,121.833,0.5090000033378601,-2.4927126480740642
121.96551699999999,,0.002305365675928507,122.296,0.5339999794960022,-2.4379036611414384
122.431034,,0.0005994915933234353,122.761,0.5170000195503235,-2.474555803692291
122.896552,,0.0016421262326032848,123.224,0.5099999904632568,-2.4893916767604605
123.362069,,0.004366678265504027,123.69,0.5070000290870667,-2.495496256603105
123.827586,,0.005262181058336679,124.159,0.531000018119812,-2.4427739481606077
124.293103,,0.0027548189245806625,124.624,0.5080000162124634,-2.4924576894506227
124.758621,,0.0013028862655480307,125.088,0.5260000228881836,-2.452839611604436
125.22413800000001,,0.004036035083272403,125.554,0.5090000033378601,-2.489509738413935
125.68965500000002,,0.0042151614817684795,126.019,0.5260000228881836,-2.452152591435275
126.15517200000001,,0.002452593386198933,126.485,0.5,-2.5085345783557598
126.62069000000001,,0.00021850410621835663,126.945,0.5009999871253967,-2.506159107479638
127.086207,,0.0030393898434501543,127.414,0.5270000100135803,-2.449389681061944
127.55172400000001,,0.0049528015930345205,127.875,0.42800000309944153,-2.665028745395756
128.017241,,0.004588843278531056,128.344,0.48100000619888306,-2.5495942322740532
128.48275900000002,,0.0018345574046884662,128.805,0.5090000033378601,-2.4887054643649322
128.948276,,0.0012041621964313817,129.274,0.5189999938011169,-2.4671061597577584
129.413793,,0.002089012231801972,129.74,0.5009999871253967,-2.5065764100057053
129.87931,,0.0007764423541354995,130.2,0.5329999923706055,-2.4371735370023604
130.344828,,0.0005802794396180392,130.665,0.5080000162124634,-2.492002864064444
130.81034499999998,,0.0003699448489373449,131.13,0.5170000195503235,-2.47279631722579
131.275862,,0.0010460167931883705,131.596,0.5249999761581421,-2.4557942423131065
131.741379,,0.0024485515461450625,132.063,0.5419999957084656,-2.419195924264263
132.206897,,0.0029775065414675817,132.528,0.4959999918937683,-2.519850840860405
132.67241399999997,,0.0021033716804599862,132.993,0.5109999775886536,-2.4875941302433797
133.13793099999998,,0.0004036672834917994,133.458,0.5009999871253967,-2.509777017495478
133.60344800000001,,0.003984279762303852,133.919,0.503000020980835,-2.505777314628517
134.06896600000002,,0.0073258589610108475,134.388,0.5419999957084656,-2.4211173072918926
134.53448300000002,,0.0090848661164269,134.849,0.5009999871253967,-2.5106885638576966
135.0,,0.008478264348915392,135.318,0.5049999952316284,-2.502153044343734
135.465517,,0.0057518573784895435,135.784,0.5049999952316284,-2.502259696197353
135.931034,,0.0025132817256855204,136.249,0.5109999775886536,-2.4892185380084313
136.396552,,0.0006932657545908426,136.714,0.5249999761581421,-2.4586707153287066
136.862069,,0.00026080730487227976,137.175,0.5149999856948853,-2.48033395816838
137.327586,,0.0011653808475420504,137.64,0.5249999761581421,-2.4583514554636885
137.793103,,0.005185720133883329,138.107,0.5210000276565552,-2.4668030232428277
138.258621,,0.009764553253981005,138.573,0.5270000100135803,-2.453409328135483
138.724138,,0.011010345492161814,139.041,0.47600001096725464,-2.564150437907764
139.189655,,0.007727512733600945,139.499,0.5040000081062317,-2.502742818685739
139.655172,,0.003047543111376836,139.967,0.5130000114440918,-2.4827063149248048
140.12069,,0.0013441381103182974,140.429,0.5109999775886536,-2.4866241959895
140.586207,,0.004156344652758005,140.9,0.5210000276565552,-2.4644005068816695
141.05172399999998,,0.009216699770676086,141.362,0.4950000047683716,-2.5206243565355035
141.51724099999998,,0.012847763364338178,141.826,0.5070000290870667,-2.4940889642446806
141.982759,,0.012807714799171177,142.296,0.4959999918937683,-2.517704455780474
142.44827600000002,,0.009194835847091293,142.754,0.49000000953674316,-2.5304794331452753
142.913793,,0.0037974998595253773,143.225,0.49000000953674316,-2.530244914899234
143.37931,,0.0008887466953921711,143.691,0.5170000195503235,-2.47125593792725
143.844828,,0.0030614376881066764,144.15,0.48899999260902405,-2.5321663294081613
144.310345,,0.0030719790364384676,144.616,0.5080000162124634,-2.490756564995592
144.77586200000002,,0.003067897607670269,145.081,0.503000020980835,-2.5017111399180725
145.241379,,0.004595523499658843,145.547,0.5130000114440918,-2.4800603498801714
145.706897,,0.006913033094339211,146.015,0.5170000195503235,-2.471551111610936
146.172414,,0.00792740461161799,146.48,0.503000020980835,-2.5023207847753612
146.637931,,0.006453408749403309,146.941,0.515999972820282,-2.474322130857804
147.103448,,0.003495149195628696,147.41,0.527999997138977,-2.4485466269084135
147.568966,,0.001527363112500402,147.871,0.5270000100135803,-2.4511262557500717
148.034483,,0.0024032078006353697,148.34,0.5090000033378601,-2.490763518553705
148.5,,0.005909346725634076,148.804,0.5040000081062317,-2.5020868136392154
148.965517,,0.010523821143799598,149.266,0.5389999747276306,-2.426259514288943
149.43103399999998,,0.015102261983621587,149.732,0.5009999871253967,-2.5094553934739974
149.89655199999999,,0.018986218911119547,150.196,0.5090000033378601,-2.4924035859111346
150.362069,,0.020835458371929842,150.662,0.5009999871253967,-2.5101695959607184
150.82758600000003,,0.01891874765273315,151.126,0.5130000114440918,-2.48431166572456
151.293103,,0.013441386828146735,151.591,0.4959999918937683,-2.5215752033867673
151.758621,,0.00781852208265756,152.056,0.5180000066757202,-2.473805085870688
152.224138,,0.0061780547982619935,152.522,0.546999990940094,-2.4107123881155412
152.68965500000002,,0.009016638526874982,152.989,0.5149999856948853,-2.480441690216182
153.155172,,0.012200834432867768,153.455,0.5130000114440918,-2.4847363173041965
153.62069,,0.01130900948997566,153.916,0.5329999923706055,-2.441027992502436
154.086207,,0.006496353401880976,154.385,0.5189999938011169,-2.471324768191696
154.551724,,0.0018187939510018866,154.848,0.5070000290870667,-2.4972020115266593
155.017241,,6.307523497340434e-05,155.311,0.5130000114440918,-2.4838104045872176
155.482759,,5.394951240152244e-05,155.776,0.5130000114440918,-2.483447254043748
155.948276,,0.0013793341860697571,156.24,0.515999972820282,-2.476515839881279
156.413793,,0.004904417964015755,156.705,0.5009999871253967,-2.5087798895142086
156.87931,,0.009621937835058972,157.17,0.5049999952316284,-2.499642639077327
157.34482799999998,,0.014176345211993667,157.636,0.5149999856948853,-2.477439359295581
157.81034499999998,,0.017499543715958063,158.101,0.5170000195503235,-2.472683157255625
158.275862,,0.018943512232351144,158.566,0.503000020980835,-2.5028154484708525
158.741379,,0.019031914610282853,159.033,0.49399998784065247,-2.5220963695859404
159.20689700000003,,0.01947306950364224,159.499,0.5360000133514404,-2.4303174622593473
159.672414,,0.021410267436277195,159.963,0.515999972820282,-2.473673533890599
160.137931,,0.02403092712432541,160.425,0.4129999876022339,-2.697924254864388
160.60344800000001,,0.025746185794889253,160.893,0.5260000228881836,-2.4516600193407565
161.06896600000002,,0.026405706551167626,161.355,0.5149999856948853,-2.4756216786108842
161.534483,,0.027356512106331356,161.819,0.5120000243186951,-2.4822253057802985
162.0,,0.02923868104142284,162.288,0.5170000195503235,-2.4714689807571415
162.465517,,0.030457350756221663,162.754,0.515999972820282,-2.4738492047872063
162.931034,,0.028190408637777938,163.218,0.5149999856948853,-2.476287433510093
163.396552,,0.020924903419814827,163.684,0.4819999933242798,-2.5484931518351233
163.862069,,0.01021324852841244,164.148,0.5049999952316284,-2.498736443729712
164.327586,,0.00035413023941151424,164.613,0.5170000195503235,-2.4729754215811344
164.793103,,0.008801873233310395,165.078,0.45100000500679016,-2.6171683210517545
165.258621,,0.01717306877318096,165.544,0.5080000162124634,-2.4933953749410116
165.72413799999998,,0.02879433342745671,166.008,0.5149999856948853,-2.47854946974583
166.189655,,0.04291610687557492,166.474,0.503000020980835,-2.505078789334685
166.655172,,0.05360219476980874,166.937,0.515999972820282,-2.477111453439994
167.12069,,0.054666827081915365,167.399,0.5070000290870667,-2.497032753053142
167.58620699999997,,0.045238057446405064,167.867,0.527999997138977,-2.4515436505224524
168.051724,,0.030810223822990566,168.329,0.4959999918937683,-2.521463986255056
168.517241,,0.019477952152996032,168.8,0.5099999904632568,-2.4911021513841245
168.98275900000002,,0.01602455885110837,169.263,0.5199999809265137,-2.4693865880623003
169.44827600000002,,0.01803352020650632,169.729,0.5090000033378601,-2.4933519914636473
169.913793,,0.018095211196088975,170.189,0.5099999904632568,-2.4911036419801986
170.37931,,0.011274370859632028,170.655,0.5080000162124634,-2.4953238208230633
170.844828,,0.00045344543914428996,171.119,0.5109999775886536,-2.4885881018015525
171.310345,,0.006930161244792287,171.585,0.5230000019073486,-2.462187750699109
171.775862,,0.007454293336997981,172.052,0.5149999856948853,-2.4793116116467595
172.241379,,0.005204707142476283,172.517,0.503000020980835,-2.505111009910137
172.706897,,0.0059766057689523006,172.989,0.5049999952316284,-2.500381828655186
173.172414,,0.01017023104750577,173.447,0.515999972820282,-2.476028662191624
173.637931,,0.01341828948200618,173.915,0.5080000162124634,-2.4930652239274673
174.103448,,0.012722937468832955,174.377,0.5239999890327454,-2.457821732218887
174.568966,,0.009347158422140877,174.845,0.5299999713897705,-2.4443832887651378
175.034483,,0.006060472640829053,175.308,0.48500001430511475,-2.5420858729582507
175.5,,0.004054503290373745,175.773,0.5239999890327454,-2.456823147026958
175.96551699999998,,0.0032803147845697498,176.236,0.5270000100135803,-2.450040964334823
176.43103399999998,,0.004009724735816251,176.702,0.5109999775886536,-2.4847092806911855
176.896552,,0.006547574557417807,177.166,0.49399998784065247,-2.521618641649058
177.36206900000002,,0.010019777047200626,177.632,0.5329999923706055,-2.4365899860340603
177.827586,,0.012769959964024578,178.097,0.5410000085830688,-2.419166044064831
178.293103,,0.01389265899563001,178.563,0.5009999871253967,-2.50638322774022
178.758621,,0.013446872062564114,179.03,0.5249999761581421,-2.454231175715134
179.224138,,0.011380350867564825,179.495,0.5109999775886536,-2.4849278251044016
179.68965500000002,,0.007612093001538525,179.956,0.5239999890327454,-2.4568545989078947
180.155172,,0.0036183156976233905,180.426,0.5099999904632568,-2.4876508090246183
180.62069,,0.0024941278252474585,180.889,0.5130000114440918,-2.4814468497773734
181.086207,,0.005701134921406014,181.351,0.492000013589859,-2.527557667534561
181.551724,,0.009984224292241514,181.815,0.515999972820282,-2.4756456880357876
182.01724099999998,,0.00969028181981062,182.285,0.5260000228881836,-2.4542386398413267
182.482759,,0.0033367366227336757,182.751,0.5249999761581421,-2.4567885007866725
182.948276,,0.0036944051565955963,183.21,0.5049999952316284,-2.5007129745875014
183.413793,,0.004694458458671204,183.675,0.5070000290870667,-2.4966775766641285
183.87931,,0.00108133965025341,184.141,0.5099999904632568,-2.4904246059323194
184.34482799999998,,0.008123484117418296,184.606,0.5009999871253967,-2.51026773636572
184.81034499999998,,0.010741821049232792,185.071,0.4650000035762787,-2.5888806154940576
185.27586200000002,,0.007814540085786218,185.537,0.5210000276565552,-2.466999029573627
185.74137900000002,,0.0021654524325763706,186.001,0.5109999775886536,-2.4888448219604213
186.206897,,0.0027158428078960365,186.467,0.5170000195503235,-2.47576587511489
186.672414,,0.00481222133360099,186.929,0.5299999713897705,-2.447370461992861
187.137931,,0.0040279252588920665,187.399,0.5270000100135803,-2.4537689538471374
187.60344800000001,,0.002026439421332694,187.86,0.503000020980835,-2.5058595370845977
188.06896600000002,,0.0012710237230306495,188.329,0.5090000033378601,-2.492538166287471
188.534483,,0.0029267672566231097,188.793,0.5070000290870667,-2.4966014442240745
189.0,,0.0055840421445456445,189.255,0.5170000195503235,-2.4744855031508095
189.465517,,0.006859461150655921,189.72,0.5149999856948853,-2.4784878416733997
189.931034,,0.0060870279853816,190.185,0.5210000276565552,-2.4650460425234404
190.39655199999999,,0.004589027678038007,190.65,0.5180000066757202,-2.471208766919656
190.862069,,0.0036452822286651195,191.115,0.5070000290870667,-2.4948088881736927
191.327586,,0.003368491628500598,191.58,0.5230000019073486,-2.4596053297546603
191.793103,,0.0035837450624440713,192.045,0.5059999823570251,-2.496327492065455
192.25862099999998,,0.004499607489473831,192.51,0.515999972820282,-2.474266255825493
192.72413799999998,,0.0057551356039700794,192.978,0.5249999761581421,-2.454431999369226
193.189655,,0.005740670709632747,193.441,0.5320000052452087,-2.4390096150436715
193.655172,,0.003178846222656343,193.904,0.5040000081062317,-2.499899980328056
194.12069000000002,,0.0008715266640193513,194.373,0.515999972820282,-2.473708521142952
194.586207,,0.0038347876763204117,194.834,0.5189999938011169,-2.4671902770975382
195.051724,,0.004475760129179056,195.304,0.5070000290870667,-2.493416505301505
195.517241,,0.00382907478772705,195.77,0.5130000114440918,-2.4804895852892774
195.98275900000002,,0.003171322539675215,196.232,0.6079999804496765,-2.273719004385283
196.448276,,0.002308345754084041,196.698,0.5329999923706055,-2.4373662913096603
196.913793,,0.0005089733398011864,197.163,0.515999972820282,-2.4746933250237193
197.37931,,0.001789680297757301,197.628,0.5080000162124634,-2.492447090364101
197.844828,,0.0033103261309063788,198.092,0.5139999985694885,-2.4797252403528676
198.310345,,0.003751778134081389,198.558,0.503000020980835,-2.504055135378078
198.775862,,0.004256899295963551,199.023,0.5019999742507935,-2.506602639863911
199.241379,,0.0058352025907540935,199.489,0.5139999985694885,-2.480820195215123
199.706897,,0.008082357680820844,199.952,0.5210000276565552,-2.465911931852481
200.172414,,0.009784341072739003,200.414,0.503000020980835,-2.5054401931966193
200.63793099999998,,0.010074286111732464,200.882,0.5120000243186951,-2.486105807800592
201.103448,,0.00858941298393814,201.344,0.5389999747276306,-2.427507741505866
201.568966,,0.005310346529723666,201.815,0.515999972820282,-2.4777861350653243
202.034483,,0.0010650716797027402,202.277,0.503000020980835,-2.506217317187113
202.5,,0.0022764587619459853,202.743,0.5180000066757202,-2.4735830357609623
202.965517,,0.0029927407976035173,203.207,0.503000020980835,-2.506243199479815
203.431034,,0.0009049065872772219,203.673,0.527999997138977,-2.4516927950474248
203.896552,,0.00263124409856552,204.137,0.5239999890327454,-2.460260385315348
204.36206900000002,,0.0056379552753701235,204.603,0.5080000162124634,-2.494913283077335
204.827586,,0.006315912370023288,205.064,0.503000020980835,-2.5055496762932203
205.293103,,0.004104933893516207,205.529,0.5090000033378601,-2.492177751900023
205.758621,,0.0007014273794157775,205.996,0.503000020980835,-2.504915435469178
206.224138,,0.0009313782823814354,206.462,0.5040000081062317,-2.5023788120918553
206.689655,,0.00046515909483244803,206.93,0.5070000290870667,-2.495471921242603
207.155172,,0.0028315033649171295,207.392,0.5180000066757202,-2.471134012462661
207.62069,,0.002673558966414237,207.86,0.5170000195503235,-2.4729488372314887
208.086207,,0.0015079332166492091,208.322,0.4959999918937683,-2.51835711736077
208.551724,,0.0076071470768087615,208.789,0.5070000290870667,-2.494079997549812
209.01724099999998,,0.011551022141285536,209.251,0.5180000066757202,-2.4698438783604395
209.482759,,0.010820909221947601,209.717,0.5090000033378601,-2.4892294626323768
209.948276,,0.006756085894693198,210.182,0.4909999966621399,-2.528278991219063
210.413793,,0.003394068265237882,210.648,0.5070000290870667,-2.493316152772952
210.87930999999998,,0.0037258018868191623,211.115,0.5189999938011169,-2.4671326210745166
211.344828,,0.006838680714728177,211.581,0.5260000228881836,-2.4519071616061083
211.810345,,0.008951913073202748,212.044,0.48899999260902405,-2.5326068876464602
212.27586200000002,,0.007554136611007366,212.51,0.5189999938011169,-2.467399587785161
212.741379,,0.004116712053201739,212.971,0.5049999952316284,-2.498110668525966
213.206897,,0.0022043760247216523,213.44,0.5210000276565552,-2.46351335002132
213.672414,,0.0033744617779276165,213.904,0.5950000286102295,-2.302595977729635
214.137931,,0.005747330473283922,214.366,0.5080000162124634,-2.4924721433966277
214.60344800000001,,0.0064704175842115255,214.83,0.5049999952316284,-2.499364720058174
215.068966,,0.0047591385202148066,215.3,0.5099999904632568,-2.4888419852428583
215.534483,,0.0021347874261638503,215.765,0.5130000114440918,-2.4826791124549157
216.0,,0.0002103882747397531,216.228,0.5460000038146973,-2.4111473960259477
216.465517,,0.0008732740722415065,216.694,0.5070000290870667,-2.4964574077948667
216.93103399999998,,0.0018324436044994418,217.159,0.5249999761581421,-2.4575538194884574
217.39655199999999,,0.003085539423734704,217.625,0.47600001096725464,-2.5645803369438642
217.862069,,0.004494239838085376,218.09,0.5099999904632568,-2.49073247454348
218.327586,,0.005386078654997262,218.555,0.515999972820282,-2.4778327716587656
218.793103,,0.004827814890943591,219.015,0.503000020980835,-2.5062672765322698
219.25862099999998,,0.002961047828950957,219.48,0.5329999923706055,-2.4409562854430935
219.724138,,0.0018604621319794103,219.948,0.5249999761581421,-2.458367796384031
220.18965500000002,,0.003555166678936785,220.411,0.5490000247955322,-2.4059958788081985
220.65517200000002,,0.007072875246878627,220.878,0.5090000033378601,-2.4929935393558504
221.12069,,0.008907363004264705,221.34,0.5040000081062317,-2.5036797967530857
221.586207,,0.006944046634214984,221.804,0.5149999856948853,-2.479455978007839
222.051724,,0.0029542224505273813,222.274,0.515999972820282,-2.4769742511942963
222.517241,,0.0006993927951429783,222.739,0.5070000290870667,-2.49624346238864
222.98275900000002,,0.002267710023502173,223.204,0.5090000033378601,-2.4915227189791525
223.448276,,0.006595810347733345,223.669,0.4970000088214874,-2.517289216540395
223.913793,,0.010641255006688412,224.133,0.5040000081062317,-2.501659202493719
224.37931,,0.011378206475714324,224.599,0.5210000276565552,-2.4642514801405992
224.844828,,0.007719638002544743,225.064,0.503000020980835,-2.5031160521997466
225.31034499999998,,0.0017386782386407576,225.529,0.5049999952316284,-2.4984380625466747
225.775862,,0.0024978129535577756,225.989,0.515999972820282,-2.474192310647467
226.241379,,0.00249677773630833,226.454,0.49900001287460327,-2.51099701652329
226.706897,,0.0002577567914571096,226.922,0.4970000088214874,-2.515177979058309
227.172414,,0.0020617335682993182,227.385,0.503000020980835,-2.501991228930154
227.63793099999998,,0.000984460393114966,227.856,0.5070000290870667,-2.4932265208999382
228.103448,,0.0014853561730471198,228.318,0.48100000619888306,-2.549887847391646
228.56896600000002,,0.002827871386877401,228.784,0.5130000114440918,-2.4802537679958077
229.03448300000002,,0.00276332885749347,229.249,0.527999997138977,-2.447719601597794
229.5,,0.0032215016749439383,229.714,0.503000020980835,-2.502389098082892
229.965517,,0.00525542882063275,230.174,0.5070000290870667,-2.4939300840632224
230.431034,,0.007374721497576991,230.64,0.5199999809265137,-2.4659080771690585
230.896552,,0.007582276121311019,231.105,0.5090000033378601,-2.4902089057467007
231.362069,,0.006027356980055635,231.571,0.5249999761581421,-2.4557115769394287
231.827586,,0.004639416936032722,232.037,0.5059999823570251,-2.4974813713268733
232.293103,,0.004588960087328933,232.502,0.5130000114440918,-2.482609814723604
232.758621,,0.005165261844221058,232.97,0.5260000228881836,-2.454658553372523
233.224138,,0.0052980065556189615,233.433,0.5090000033378601,-2.4920476524282105
233.689655,,0.005128071335509274,233.896,0.5130000114440918,-2.4836557369688745
234.155172,,0.005260151644246675,234.359,0.503000020980835,-2.5057263641719163
234.62069,,0.005336380388264866,234.83,0.5070000290870667,-2.4972491451556436
235.086207,,0.004670571340239741,235.292,0.49799999594688416,-2.5170408346417035
235.55172399999998,,0.0036748922809950305,235.758,0.503000020980835,-2.506272358864785
236.01724099999998,,0.003106329805224908,236.221,0.503000020980835,-2.506334445138645
236.482759,,0.002432105822071727,236.687,0.5299999713897705,-2.447507843581308
236.94827600000002,,0.0008604978983837478,237.152,0.503000020980835,-2.506262319948623
237.413793,,0.00014865935850259237,237.618,0.5419999957084656,-2.421162096025587
237.87931,,0.0023068359664577555,238.081,0.515999972820282,-2.4776134897509468
238.344828,,0.008250778700403917,238.547,0.5180000066757202,-2.4730079526857773
238.810345,,0.013051731139446968,239.012,0.5180000066757202,-2.4727129726560895
239.27586200000002,,0.011913721926674855,239.478,0.5099999904632568,-2.489809335297503
239.741379,,0.00569543560418525,239.941,0.5109999775886536,-2.487270201107262
240.206897,,0.0004848893605773552,240.41,0.5120000243186951,-2.484714173376372
240.672414,,0.0011166922761441831,240.872,0.5210000276565552,-2.4647233494163827
241.137931,,0.006420269270810553,241.335,0.5049999952316284,-2.4992045495014157
241.603448,,0.011405377155423925,241.805,0.5049999952316284,-2.4988447412006667
242.068966,,0.01291756115855365,242.266,0.5049999952316284,-2.498513460878348
242.534483,,0.011720171575517694,242.732,0.515999972820282,-2.4742553232035274
243.0,,0.009430051592374825,243.197,0.5049999952316284,-2.497974163389004
243.465517,,0.005645203418291123,243.663,0.5210000276565552,-2.4629235138533767
243.93103399999998,,0.0005888495663141907,244.13,0.5070000290870667,-2.4932920889441044
244.39655199999999,,0.007930788129886797,244.596,0.4790000021457672,-2.5542262126813355
244.862069,,0.013349236177852377,245.055,0.4880000054836273,-2.534617813450511
245.327586,,0.015373066003190354,245.521,0.5009999871253967,-2.506362331581915
245.793103,,0.01546819369409188,245.993,0.5339999794960022,-2.4345979337521113
246.258621,,0.016129479443135027,246.452,0.5099999904632568,-2.4870755402314337
246.724138,,0.01844811987857414,246.915,0.492000013589859,-2.526535115051471
247.18965500000002,,0.021697639915343552,247.385,0.5130000114440918,-2.4810746808818966
247.655172,,0.024415404508303096,247.848,0.5139999985694885,-2.4792252632302065
248.12069,,0.02517410308505167,248.31,0.4440000057220459,-2.6320888729431537
248.586207,,0.023054455164769647,248.776,0.5059999823570251,-2.4973904672971883
249.051724,,0.018673166388272197,249.239,0.527999997138977,-2.449844708684947
249.517241,,0.014378958702002858,249.705,0.5099999904632568,-2.489438432326557
249.982759,,0.012066251286347895,250.171,0.5009999871253967,-2.5094067855421174
250.44827600000002,,0.01103641933396789,250.636,0.5040000081062317,-2.5032035325483215
250.913793,,0.0092366849479192,251.103,0.5070000290870667,-2.496962505608015
251.37931000000003,,0.006280647433866069,251.569,0.515999972820282,-2.4776027771980185
251.844828,,0.003976195812501343,252.034,0.5170000195503235,-2.475617202313502
252.31034499999998,,0.0038360881845514792,252.5,0.4729999899864197,-2.571611057813854
252.77586200000002,,0.004926363720971625,252.96,0.574999988079071,-2.3494578963849264
253.241379,,0.004487214944205772,253.43,0.5170000195503235,-2.4758204809620934
253.706897,,0.0006120433195414889,253.893,0.5230000019073486,-2.462681842228932
254.172414,,0.005566723524414063,254.355,0.503000020980835,-2.506123688624851
254.63793099999998,,0.01047053372006651,254.826,0.5090000033378601,-2.4928611284518807
255.10344800000001,,0.011326695998821763,255.289,0.5059999823570251,-2.499152991619248
255.56896600000002,,0.008838839850129477,255.754,0.5070000290870667,-2.4966842269465066
256.03448299999997,,0.006119465845617021,256.218,0.5049999952316284,-2.500714675685154
256.5,,0.005196471785770165,256.684,0.5019999742507935,-2.5068969430776007
256.965517,,0.00562047581817801,257.15,0.5139999985694885,-2.4803832573753755
257.431034,,0.0065698818010369005,257.616,0.515999972820282,-2.4756508331562728
257.896552,,0.008704267686954512,258.075,0.5270000100135803,-2.451315920696138
258.362069,,0.012687274452877966,258.541,0.527999997138977,-2.448783790615353
258.827586,,0.016722772066056418,259.007,0.5210000276565552,-2.4637074960555605
259.29310300000003,,0.01732394107172171,259.472,0.5189999938011169,-2.4677749760247876
259.758621,,0.013110036139241329,259.941,0.515999972820282,-2.474066966387039
260.224138,,0.007078766773129509,260.403,0.5299999713897705,-2.4433750056729
260.689655,,0.004351956981988249,260.871,0.5540000200271606,-2.3909543989932933
261.155172,,0.007526249391783813,261.333,0.5299999713897705,-2.44317042804079
261.62068999999997,,0.014248078620316962,261.801,0.5180000066757202,-2.4693066236160024
262.086207,,0.019292845751124957,262.263,0.5239999890327454,-2.456292466315412
262.551724,,0.019163442312272926,262.729,0.5059999823570251,-2.4956297424769938
263.017241,,0.014885589823385965,263.189,0.5170000195503235,-2.47184670212654
263.482759,,0.010364948152521676,263.654,0.49399998784065247,-2.5221933652700055
263.94827599999996,,0.008274216136297086,264.126,0.5249999761581421,-2.454941281990747
264.413793,,0.008109117330276317,264.584,0.42899999022483826,-2.6644183136641013
264.87931,,0.007986790648992699,265.049,0.4959999918937683,-2.5188080123519536
265.34482799999995,,0.0068160984644538795,265.515,0.5019999742507935,-2.5061158921753206
265.810345,,0.004037234867352368,265.989,0.5170000195503235,-2.473822753285755
266.27586199999996,,0.0010717466024275817,266.447,0.515999972820282,-2.476382453462202
266.741379,,0.008181982764920494,266.916,0.5070000290870667,-2.4963534199829676
267.206897,,0.014973544478534344,267.378,0.515999972820282,-2.4770801027990257
267.672414,,0.018968879857352357,267.841,0.5049999952316284,-2.5013403625101756
268.137931,,0.019774862606641033,268.311,0.5299999713897705,-2.447120676569692
268.603448,,0.018591986236367385,268.769,0.515999972820282,-2.477811420545445
269.06896600000005,,0.016480480382526537,269.239,0.531000018119812,-2.445258273604169
269.53448299999997,,0.014105149973887577,269.704,0.5249999761581421,-2.458389872893993
270.0,,0.012191439998381744,270.166,0.5199999809265137,-2.4692738738802884
270.465517,,0.011128282216326064,270.632,0.5070000290870667,-2.4975190306198187
270.931034,,0.010617881768318741,271.096,0.5400000214576721,-2.4254809490607845
271.396552,,0.01021858927241117,271.562,0.5049999952316284,-2.501529757071584
271.86206899999996,,0.009714599027551575,272.026,0.5199999809265137,-2.4685916420389766
272.327586,,0.008904459819802138,272.492,0.4959999918937683,-2.520575044799462
272.793103,,0.007777193276480316,272.956,0.515999972820282,-2.4766619924507984
273.258621,,0.006822452652660759,273.425,0.5249999761581421,-2.4566882531394345
273.724138,,0.00637294418108767,273.885,0.5070000290870667,-2.4955232086626085
274.18965499999996,,0.005836121555397107,274.355,0.515999972820282,-2.475532359942394
274.655172,,0.004342697080429057,274.818,0.5049999952316284,-2.499123956540982
275.12069,,0.0018176024402022605,275.281,0.5130000114440918,-2.481342573176122
275.586207,,0.0012904071862053824,275.747,0.6190000176429749,-2.2500837866314587
276.051724,,0.004762459876809122,276.21,0.5299999713897705,-2.443699500353504
276.517241,,0.008214812628996166,276.676,0.5170000195503235,-2.4717859991580493
276.98275900000004,,0.010501072348980862,277.141,0.5059999823570251,-2.4955735882887398
277.448276,,0.01071933137545357,277.606,0.5180000066757202,-2.469316437753426
277.913793,,0.009888139003731722,278.074,0.515999972820282,-2.4736282858575076
278.37931,,0.010533477023903363,278.539,0.5249999761581421,-2.454043898149247
278.844828,,0.013998289037828059,279.004,0.5130000114440918,-2.480279337610276
279.31034500000004,,0.01892282588170037,279.47,0.5289999842643738,-2.4455781808538015
279.77586199999996,,0.023053684877358146,279.933,0.503000020980835,-2.502440851311171
280.241379,,0.025609550723011354,280.396,0.5019999742507935,-2.504892082360066
280.706897,,0.02693230850777106,280.864,0.49900001287460327,-2.51174708463905
281.172414,,0.026915847867059587,281.327,0.5130000114440918,-2.4816016171013624
281.637931,,0.025159061826749977,281.797,0.5009999871253967,-2.508126073462941
282.10344799999996,,0.021948250896445424,282.259,0.6029999852180481,-2.2862956772240164
282.568966,,0.017792567616850576,282.724,0.5090000033378601,-2.4914774622896103
283.034483,,0.012407968823941276,283.189,0.5090000033378601,-2.4918525939259344
283.5,,0.005221319881574788,283.654,0.5139999985694885,-2.481310694366843
283.965517,,0.0033699932935651747,284.119,0.5249999761581421,-2.457661681328553
284.431034,,0.012162520617735617,284.584,0.503000020980835,-2.5058626198492346
284.89655200000004,,0.020486664797518678,285.049,0.5139999985694885,-2.4821147988461814
285.362069,,0.02852223497343456,285.514,0.5210000276565552,-2.467020944278507
285.827586,,0.036090285610993963,285.974,0.5249999761581421,-2.4583971323148766
286.293103,,0.04178346845895734,286.444,0.5170000195503235,-2.475847750096262
286.758621,,0.04372593745921683,286.904,0.5270000100135803,-2.4540129183460895
287.22413800000004,,0.041145811578551864,287.374,0.5009999871253967,-2.510541315049257
287.689655,,0.03519602109089956,287.837,0.5070000290870667,-2.497288883989301
288.155172,,0.02818444084717211,288.299,0.5230000019073486,-2.46219174927011
288.62069,,0.0218016110462557,288.765,0.5009999871253967,-2.509832009210269
289.086207,,0.016273331049406457,289.235,0.5,-2.5116788901965497
289.55172400000004,,0.011491373602770291,289.7,0.5040000081062317,-2.50260154713552
290.01724099999996,,0.008224350964998182,290.159,0.5019999742507935,-2.5065763889308355
290.482759,,0.007008383775936641,290.625,0.5009999871253967,-2.5083645870493885
290.948276,,0.006005195658541635,291.091,0.4970000088214874,-2.5166931018178937
291.413793,,0.0015969462707997864,291.557,0.5040000081062317,-2.501072936165807
291.87931,,0.007698629566237237,292.022,0.5270000100135803,-2.450621642336558
292.344828,,0.018407996688191555,292.488,0.5049999952316284,-2.4982469197506263
292.81034500000004,,0.02452754438495836,292.952,0.4659999907016754,-2.582957150646537
293.275862,,0.023230934771308893,293.414,0.5270000100135803,-2.4498590778241383
293.74137900000005,,0.017434379202940734,293.885,0.5130000114440918,-2.4802213400680184
294.206897,,0.012368257844477697,294.348,0.5239999890327454,-2.4561825217647852
294.672414,,0.01059957021561549,294.811,0.5049999952316284,-2.4975707513144023
295.13793100000004,,0.011034285424994914,295.274,0.515999972820282,-2.4736677550602977
295.603448,,0.01154650953784207,295.739,0.5120000243186951,-2.4825107013520173
296.068966,,0.011181725260550009,296.204,0.5019999742507935,-2.5044883703379854
296.534483,,0.010306444380472273,296.669,0.5170000195503235,-2.4720565475857827
297.0,,0.009852859521458134,297.135,0.5120000243186951,-2.483246868327298
297.46551700000003,,0.010330848984559552,297.601,0.5099999904632568,-2.487941222620998
297.931034,,0.010880088427846825,298.067,0.49000000953674316,-2.531881230641225
298.396552,,0.009811797818110876,298.533,0.5149999856948853,-2.477801208264696
298.862069,,0.007124052682156721,299.0,0.5130000114440918,-2.482551244783753
299.327586,,0.005831020851089373,299.466,0.531000018119812,-2.4437220922385436
299.79310300000003,,0.008908159448126191,299.926,0.4959999918937683,-2.520343233732992
300.258621,,0.014732225317571046,300.389,0.5120000243186951,-2.485824225057237
300.724138,,0.017523483043648112,300.859,0.48100000619888306,-2.5536630437832266
301.189655,,0.013410445263130344,301.322,0.5320000052452087,-2.4428043405565227
301.65517200000005,,0.005000715089505264,301.793,0.5189999938011169,-2.4713219850835224
302.12069,,0.0010526208826016484,302.255,0.531000018119812,-2.4453092788953006
302.586207,,0.0007550251252500478,302.721,0.5080000162124634,-2.4954814156777445
303.05172400000004,,0.0032470207958027837,303.18,0.5019999742507935,-2.50854741352765
303.517241,,0.004388549251652391,303.645,0.5049999952316284,-2.501936980313755
303.982759,,0.0008644060608332916,304.112,0.5080000162124634,-2.49526028169035
304.448276,,0.009046453627642621,304.578,0.4779999852180481,-2.560417524056437
304.913793,,0.013445824700508941,305.044,0.5099999904632568,-2.490443462216491
305.37931000000003,,0.011452299866020959,305.51,0.515999972820282,-2.4770664365169166
305.844828,,0.006900399795806509,305.971,0.5210000276565552,-2.4658283930184295
306.310345,,0.005263848660908929,306.44,0.5210000276565552,-2.465454453032159
306.775862,,0.00801383478838851,306.904,0.5149999856948853,-2.4781347447383895
307.241379,,0.01201617938268301,307.366,0.5360000133514404,-2.431985510175785
307.70689699999997,,0.013188649628039999,307.83,0.5009999871253967,-2.507847191919773
308.172414,,0.010133398709476252,308.299,0.49300000071525574,-2.524904915521458
308.637931,,0.005171203599694085,308.765,0.515999972820282,-2.47445634283743
309.103448,,0.0025737545511103138,309.228,0.503000020980835,-2.5024808249038437
309.568966,,0.0049304151191366654,309.693,0.5320000052452087,-2.439052830078532
310.034483,,0.01028358056374346,310.159,0.5149999856948853,-2.475900581943373
310.5,,0.013497869369553864,310.625,0.5289999842643738,-2.4452738619295618
310.96551700000003,,0.011435630990953898,311.089,0.5139999985694885,-2.4778957583135055
311.431034,,0.0061157630725724894,311.555,0.527999997138977,-2.447406706450537
311.896552,,0.0017921325279157308,312.019,0.5299999713897705,-2.443130910804687
312.362069,,8.371997837138917e-05,312.485,0.5049999952316284,-2.4977458026620076
312.827586,,0.0014164523369272278,312.948,0.5049999952316284,-2.4979583312426534
313.29310300000003,,0.003658242669809235,313.41,0.503000020980835,-2.5025860790789203
313.758621,,0.005460046110510621,313.878,0.49900001287460327,-2.511621144019334
314.224138,,0.004557314160952204,314.34,0.515999972820282,-2.4749446767647854
314.689655,,0.000799321354679647,314.804,0.5149999856948853,-2.47751219509698
315.155172,,0.0033123932281112906,315.274,0.5019999742507935,-2.5062399360822005
315.62068999999997,,0.004782621109886479,315.739,0.4959999918937683,-2.519721515005847
316.086207,,0.0028866122244274456,316.204,0.5389999747276306,-2.426440720301177
316.551724,,2.064107827428146e-05,316.669,0.515999972820282,-2.4769285128522234
317.017241,,0.0010340643420331539,317.133,0.5080000162124634,-2.4947025878939875
317.482759,,0.0002301796648898198,317.598,0.5049999952316284,-2.501539635093133
317.94827599999996,,0.0006011924253404594,318.064,0.5170000195503235,-2.4756434584226636
318.413793,,0.004002331600539731,318.529,0.503000020980835,-2.5063308123668726
318.87931000000003,,0.008357768963092236,318.994,0.515999972820282,-2.47812739711458
319.344828,,0.009705478768369767,319.459,0.5249999761581421,-2.4585667904645985
319.810345,,0.00626272837582431,319.922,0.5149999856948853,-2.480326722385001
320.275862,,0.00011398164143683293,320.384,0.5289999842643738,-2.4497258471870165
320.741379,,0.0056901985214769775,320.852,0.5299999713897705,-2.447376721663759
321.20689699999997,,0.007264796391687108,321.315,0.5170000195503235,-2.475462906066304
321.672414,,0.0036475420466710435,321.781,0.515999972820282,-2.477347555790067
322.137931,,0.0035593010406687964,322.244,0.515999972820282,-2.4770048313284403
322.603448,,0.010179086008844195,322.71,0.5019999742507935,-2.5071254387619697
323.068966,,0.011843341104384706,323.178,0.5059999823570251,-2.498004825089405
323.53448299999997,,0.007674095386688531,323.643,0.5260000228881836,-2.454012563570405
324.0,,0.001497171176703044,324.111,0.503000020980835,-2.503701753909333
324.465517,,0.0017017163619878965,324.569,0.5170000195503235,-2.472793661522311
324.931034,,0.0007124555619415585,325.041,0.4429999887943268,-2.63363349719996
325.396552,,0.0013304787788706537,325.499,0.503000020980835,-2.5025741692237635
325.86206899999996,,0.0013563325121089837,325.967,0.5019999742507935,-2.504462311099922
326.327586,,5.254174594470582e-05,326.429,0.5090000033378601,-2.4889785642112296
326.793103,,0.0005125762272544728,326.897,0.4880000054836273,-2.534561884051485
327.258621,,0.00013175020688786996,327.359,0.5270000100135803,-2.4494961996782134
327.724138,,0.0016649715551530224,327.83,0.5170000195503235,-2.4712564310705663
328.189655,,0.00597799861690416,328.292,0.5230000019073486,-2.4582308116577964
328.655172,,0.009523207866460142,328.758,0.5130000114440918,-2.4801347747738465
329.12068999999997,,0.008140065575097812,329.221,0.515999972820282,-2.4737843175240792
329.586207,,0.0025543808772259405,329.687,0.5289999842643738,-2.4457093845590454
330.051724,,0.0018436695170788353,330.152,0.5019999742507935,-2.504835038452903
330.517241,,0.0011656069265294862,330.617,0.5040000081062317,-2.500825882441122
330.982759,,0.0022696022323300206,331.083,0.5130000114440918,-2.4816020066869853
331.44827599999996,,0.0025546602677479734,331.549,0.503000020980835,-2.5037962840693195
331.913793,,0.0027544768515576678,332.015,0.5120000243186951,-2.4846076122373506
332.37931,,0.009416193571657969,332.474,0.5210000276565552,-2.46541712609742
332.844828,,0.010864679723280648,332.941,0.5379999876022339,-2.4287820754735043
333.310345,,0.005139544216163312,333.404,0.5109999775886536,-2.4879794158714805
333.77586199999996,,0.0031305000753359593,333.874,0.5049999952316284,-2.501386288229467
334.241379,,0.007231286094184802,334.337,0.5049999952316284,-2.5016729746576134
334.706897,,0.004203438939295187,334.8,0.527999997138977,-2.451793250270552
335.17241399999995,,0.003342166590962198,335.27,0.5230000019073486,-2.4628503762941403
335.637931,,0.009884478789009787,335.736,0.5080000162124634,-2.4956236161385004
336.103448,,0.011081497400136739,336.2,0.5249999761581421,-2.458607268538566
336.56896600000005,,0.006566305303738447,336.665,0.5080000162124634,-2.495591179578886
337.034483,,0.00014636381061133684,337.13,0.527999997138977,-2.4518930863704638
337.5,,0.004915098552680778,337.596,0.5090000033378601,-2.4930938730885113
337.965517,,0.006463667409107781,338.056,0.5149999856948853,-2.479766224141373
338.431034,,0.006085143115622969,338.522,0.5210000276565552,-2.4663840228491667
338.89655200000004,,0.004579286533313807,338.994,0.503000020980835,-2.5052445732427095
339.36206899999996,,0.0016115582723378145,339.452,0.5130000114440918,-2.4830692557819574
339.827586,,0.001795323471486116,339.915,0.5149999856948853,-2.4783012913619413
340.293103,,0.002826815754990738,340.384,0.5109999775886536,-2.4865956824624686
340.758621,,0.0004069326547924384,340.845,0.515999972820282,-2.4752855964905316
341.224138,,0.00256734815497624,341.314,0.503000020980835,-2.503207342481963
341.68965499999996,,0.0023738499614579887,341.78,0.5210000276565552,-2.463619629614568
342.155172,,0.0008957154870488851,342.244,0.5080000162124634,-2.4916098582672754
342.62069,,0.0035220296946885644,342.709,0.4909999966621399,-2.5283651164303116
343.086207,,0.0027942279983905085,343.174,0.515999972820282,-2.4736765625829777
343.551724,,8.734857677728466e-05,343.64,0.5120000243186951,-2.4822343598593695
344.01724099999996,,0.00203980942374707,344.104,0.5410000085830688,-2.418966476428124
344.48275900000004,,0.0017030441427758948,344.57,0.5009999871253967,-2.506097401486516
344.948276,,0.0001301863907901056,345.029,0.5,-2.5083343903984794
345.413793,,0.0014939395713224203,345.494,0.4390000104904175,-2.64136396216545
345.87931,,0.0035092176272128127,345.963,0.5339999794960022,-2.4345944213545327
346.344828,,0.006449503258018937,346.425,0.5210000276565552,-2.4631804555393204
346.81034500000004,,0.008816130011979995,346.893,0.47999998927116394,-2.552821788440407
347.275862,,0.007856929654290665,347.355,0.5070000290870667,-2.4943592204586835
347.741379,,0.0031682953424064203,347.823,0.5139999985694885,-2.479502672548647
348.206897,,0.0017225601515282604,348.285,0.4909999966621399,-2.5300259096787556
348.672414,,0.002643247891743793,348.751,0.5189999938011169,-2.469445819757549
349.13793100000004,,0.0006380495198913058,349.217,0.5080000162124634,-2.493827338558638
349.60344799999996,,0.004121140567543833,349.683,0.5289999842643738,-2.4484732039008645
350.068966,,0.004055635952070513,350.149,0.5130000114440918,-2.483697467831047
350.534483,,0.0009442390840280208,350.615,0.49000000953674316,-2.5341302711841562
351.0,,0.001521573683925162,351.074,0.5090000033378601,-2.493008655243099
351.465517,,0.001080560192805485,351.54,0.515999972820282,-2.477970985752468
351.93103399999995,,0.0005305470820615314,352.008,0.5009999871253967,-2.5107967884960574
352.396552,,3.181592164171545e-05,352.473,0.5270000100135803,-2.4542267680338963
352.862069,,0.0035580995795489985,352.934,0.5170000195503235,-2.4760142442667727
353.32758600000005,,0.00765347147706926,353.404,0.5040000081062317,-2.504264020569769
353.793103,,0.010217884832271379,353.867,0.5099999904632568,-2.4910487048649155
354.258621,,0.012017413739853303,354.329,0.515999972820282,-2.477767062134748
354.72413800000004,,0.014769581601023542,354.8,0.5320000052452087,-2.442638427931862
355.189655,,0.017786874237246255,355.263,0.5130000114440918,-2.483710268847465
355.655172,,0.018144896750770034,355.728,0.5040000081062317,-2.502953976184713
356.12069,,0.01410428155496645,356.192,0.503000020980835,-2.504738843499995
356.586207,,0.00733486336670149,356.658,0.5149999856948853,-2.47818396997191
357.05172400000004,,0.0014798929721761254,357.123,0.515999972820282,-2.4755890629990094
357.517241,,0.0011559165264108475,357.589,0.5040000081062317,-2.5013241916016344
357.982759,,0.0013824795156490294,358.056,0.5070000290870667,-2.4944002922802486
358.448276,,0.0017538179134604735,358.514,0.5170000195503235,-2.4722584568088224
358.913793,,0.003721425045522228,358.982,0.5180000066757202,-2.4697674720287206
359.37931000000003,,0.0063933694064772775,359.444,0.5099999904632568,-2.4869368307338098
359.844828,,0.007911157035023824,359.911,0.531000018119812,-2.4409855881350375
360.310345,,0.007577658071277128,360.374,0.5139999985694885,-2.477889203653867
360.775862,,0.006453563389890304,360.845,0.503000020980835,-2.5017914155300183
361.241379,,0.006022297456495928,361.307,0.5049999952316284,-2.4974444389881802
361.706897,,0.006543186009990893,361.772,0.515999972820282,-2.4735622821807755
362.172414,,0.006967698181574081,362.235,0.515999972820282,-2.4737147826133605
362.63793100000004,,0.0063221721111967125,362.701,0.503000020980835,-2.5022544178429267
363.103448,,0.004683956792702034,363.167,0.5170000195503235,-2.472028857793338
363.568966,,0.0029180907504330424,363.632,0.5049999952316284,-2.498497804151869
364.034483,,0.002151906363625757,364.096,0.5180000066757202,-2.470539842878414
364.5,,0.003270488767697696,364.562,0.5059999823570251,-2.4970762277523475
364.96551700000003,,0.005765687139205254,365.029,0.5099999904632568,-2.488770141742085
365.431034,,0.007133425064194238,365.495,0.5170000195503235,-2.4739313296004033
365.896552,,0.0049867106245974615,365.956,0.531000018119812,-2.4438319571535594
366.362069,,0.00034006924037206044,366.425,0.5019999742507935,-2.507391990087507
366.827586,,0.0026779036783925133,366.885,0.5199999809265137,-2.468521601236914
367.29310300000003,,0.0015291467483139832,367.355,0.503000020980835,-2.505859635954687
367.758621,,0.0013708072309343603,367.818,0.5049999952316284,-2.5017502730682746
368.224138,,0.0014534233643811979,368.281,0.5049999952316284,-2.5019375937402137
368.689655,,0.0024467238125789378,368.747,0.5389999747276306,-2.4279839207065486
369.155172,,0.006865366596195201,369.21,0.5260000228881836,-2.4563549661409834
369.62068999999997,,0.007802141285249846,369.676,0.48899999260902405,-2.536941253973396
370.086207,,0.004724028872741494,370.14,0.503000020980835,-2.5063460077431037
370.55172400000004,,0.0005432946591772536,370.606,0.5299999713897705,-2.4473608600568326
371.017241,,0.001383807627021632,371.071,0.5,-2.512495278963095
371.482759,,0.0001721764083995575,371.536,0.5260000228881836,-2.455569239326501
371.948276,,0.002032741948589186,372.001,0.5249999761581421,-2.4574191292089473
372.413793,,0.0022554667021082004,372.467,0.46700000762939453,-2.583414971180623
372.87931000000003,,0.0003275357794981259,372.929,0.4970000088214874,-2.5176658407209476
373.344828,,0.003564397241292554,373.399,0.4959999918937683,-2.5194429799591442
373.810345,,0.0045401394117834705,373.86,0.5419999957084656,-2.4188226137536994
374.275862,,0.002506587688438689,374.329,0.5099999904632568,-2.488147199478732
374.741379,,0.000555380669099791,374.793,0.5170000195503235,-2.4725269223617232
375.20689699999997,,0.002184090303829102,375.255,0.5239999890327454,-2.4569408642213646
375.672414,,0.0018910207121796896,375.721,0.4959999918937683,-2.5176519836791083
376.137931,,0.0012482568449595451,376.185,0.527999997138977,-2.4476979262996745
376.603448,,0.0017792404426311887,376.651,0.5059999823570251,-2.495451769302346
377.068966,,0.003037631564972431,377.116,0.5130000114440918,-2.4800909870317858
377.53448299999997,,0.002979781092497803,377.581,0.5249999761581421,-2.4539066890361307
378.0,,0.0004482960655012854,378.049,0.5149999856948853,-2.4757230033118263
378.465517,,0.002789332654206526,378.514,0.5370000004768372,-2.427891772537904
378.931034,,0.0031027674386978595,378.978,0.5239999890327454,-2.456379141865259
379.396552,,0.0011506441006155763,379.44,0.515999972820282,-2.474034297434579
379.862069,,0.006907471061664242,379.908,0.527999997138977,-2.4481708461024314
380.327586,,0.008668022431990302,380.37,0.5239999890327454,-2.4572115607359035
380.79310300000003,,0.004316921900968511,380.841,0.503000020980835,-2.503325325739189
381.258621,,0.002042074455014486,381.303,0.515999972820282,-2.475390876401434
381.724138,,0.004112044935830043,381.769,0.5799999833106995,-2.3363577475488513
382.189655,,0.00010463787436574065,382.231,0.515999972820282,-2.476190682190351
382.655172,,0.006606307741702363,382.697,0.5239999890327454,-2.4591486551977355
383.12068999999997,,0.00969818851109649,383.163,0.5210000276565552,-2.4660487896754413
383.586207,,0.007298677119370968,383.628,0.5130000114440918,-2.483808436769901
384.051724,,0.0024118132276756857,384.093,0.5109999775886536,-2.4884527487354395
384.517241,,9.063031314926516e-05,384.559,0.4790000021457672,-2.558405032287815
384.982759,,0.0016257530357399142,385.026,0.5130000114440918,-2.4845085078236697
385.44827599999996,,0.004529237506423347,385.484,0.5109999775886536,-2.4889793089937755
385.913793,,0.004123243055526859,385.953,0.49000000953674316,-2.5347763824303584
386.37931,,0.0005081086545698218,386.416,0.515999972820282,-2.478107925151958
386.84482799999995,,0.005742579793810496,386.885,0.503000020980835,-2.5063375826395347
387.310345,,0.007404050572410297,387.348,0.5299999713897705,-2.4473545171432
387.775862,,0.004768641425355018,387.811,0.5289999842643738,-2.449310377202585
388.241379,,0.00046137320809833105,388.274,0.5070000290870667,-2.496961175783022
388.70689699999997,,0.0024464164431518857,388.739,0.5120000243186951,-2.485740983444552
389.172414,,0.0024941508800797713,389.211,0.5109999775886536,-2.48755523252179
389.637931,,2.0451329545491262e-05,389.669,0.5139999985694885,-2.480628025774179
390.103448,,0.0036917517353987662,390.14,0.5379999876022339,-2.4279337914549814
390.56896600000005,,0.006955448812231459,390.599,0.5210000276565552,-2.464560277836588
391.03448299999997,,0.009054414733803041,391.064,0.5070000290870667,-2.4946600594537305
391.5,,0.010018316615492854,391.529,0.503000020980835,-2.5029957205606737
391.965517,,0.009860279556862804,391.996,0.5049999952316284,-2.498293876640514
392.431034,,0.008688176997893815,392.462,0.5180000066757202,-2.4696715176233743
392.896552,,0.00760898201549383,392.93,0.5389999747276306,-2.4236731104774316
393.36206899999996,,0.008214565127126924,393.392,0.5109999775886536,-2.4844886750424946
393.827586,,0.0105016368221084,393.86,0.5230000019073486,-2.4582247957351457
394.293103,,0.012077832800683228,394.322,0.5009999871253967,-2.5061060500973693
394.75862099999995,,0.010340875359944738,394.788,0.421999990940094,-2.6782450830728344
395.224138,,0.005499796475701343,395.251,0.5170000195503235,-2.47137492300112
395.68965499999996,,0.0008893130868281007,395.717,0.47999998927116394,-2.552158046058335
396.155172,,0.00014019146929771317,396.181,0.49799999594688416,-2.513180863852623
396.62069,,0.00240062860796483,396.647,0.527999997138977,-2.44811755191134
397.086207,,0.005012558451557214,397.112,0.5199999809265137,-2.465890207216472
397.551724,,0.003928078437133456,397.577,0.49399998784065247,-2.522915460630428
398.017241,,0.0014760591507331844,398.044,0.5170000195503235,-2.4732128538657037
398.48275900000004,,0.008281875735789793,398.509,0.5289999842643738,-2.447488487202191
398.94827599999996,,0.012812202832577618,398.97,0.492000013589859,-2.5285177072468965
399.413793,,0.013569482980407672,399.44,0.5249999761581421,-2.4570292412692782
399.87931,,0.011685682957707848,399.904,0.5289999842643738,-2.4486960342602115
400.344828,,0.009442543962928915,400.366,0.5210000276565552,-2.466468776760059
400.810345,,0.008751321508909901,400.834,0.5120000243186951,-2.4863724028772056
401.27586199999996,,0.010159071879799203,401.296,0.5170000195503235,-2.475718453618201
401.741379,,0.012447617925694997,401.761,0.527999997138977,-2.451928652807636
402.206897,,0.013399955347983123,402.224,0.503000020980835,-2.5065007768076315
402.672414,,0.011453606036808048,402.689,0.5339999794960022,-2.438996302695263
403.137931,,0.006756785280137534,403.155,0.5270000100135803,-2.4542064313231604
403.60344799999996,,0.0007608624835165656,403.621,0.5080000162124634,-2.495487839072057
404.068966,,0.005033198966441749,404.085,0.5210000276565552,-2.4669840348709298
404.534483,,0.009931875014049468,404.551,0.5040000081062317,-2.50377716624623
405.0,,0.013817122885891348,405.015,0.5130000114440918,-2.4838705118230053
405.465517,,0.016541882480577336,405.48,0.5170000195503235,-2.474811328142857
405.931034,,0.018269500281144796,405.948,0.5009999871253967,-2.509289995790326
406.39655200000004,,0.020258001871005765,406.41,0.4959999918937683,-2.5197804520304175
406.862069,,0.023958683970780152,406.878,0.49799999594688416,-2.5150101046340305
407.327586,,0.02861798531763308,407.34,0.5189999938011169,-2.468847344259594
407.793103,,0.030912754729134097,407.808,0.503000020980835,-2.5033083753148277
408.258621,,0.02812636337422164,408.27,0.5239999890327454,-2.457185166828029
408.72413800000004,,0.020951334926213618,408.736,0.5170000195503235,-2.4721005154090685
409.18965499999996,,0.012056177322516378,409.2,0.515999972820282,-2.473990647557165
409.655172,,0.00272656638395916,409.665,0.5099999904632568,-2.486829379211112
410.12069,,0.007560401284237145,410.13,0.5329999923706055,-2.4365496436288887
410.586207,,0.018706545981999664,410.596,0.5009999871253967,-2.506162944554447
411.05172400000004,,0.028865359883395798,411.06,0.5049999952316284,-2.4974159534745373
411.51724099999996,,0.03595566716430908,411.526,0.503000020980835,-2.501813356630993
411.982759,,0.03910649770862452,411.992,0.5210000276565552,-2.4627087400209766
412.448276,,0.03849025052685648,412.458,0.5070000290870667,-2.4933880227587077
412.913793,,0.03500331496916637,412.919,0.503000020980835,-2.5023427381224286
413.37931,,0.03047763669033095,413.389,0.5270000100135803,-2.450349799761279
413.844828,,0.02688802129901044,413.852,0.5230000019073486,-2.4594038063524035
414.31034500000004,,0.024321451342100748,414.314,0.49799999594688416,-2.5142440502793693
414.775862,,0.02049655240004941,414.78,0.5120000243186951,-2.484140892619991
415.241379,,0.013701085547963617,415.244,0.5149999856948853,-2.478014814848844
415.706897,,0.0060387290596448555,415.709,0.5139999985694885,-2.48060221518999
416.172414,,0.0020298982178517605,416.174,0.5019999742507935,-2.507141635580757
416.63793100000004,,0.0033225692105136742,416.639,0.527999997138977,-2.4508670667363814
417.103448,,0.006251048767298406,417.104,0.492000013589859,-2.529632251805714
417.568966,,0.005739358548018051,417.57,0.5199999809265137,-2.468917707933258
418.034483,,0.0007661675126871126,418.037,0.5210000276565552,-2.4669711372524756
418.5,,0.004950389642655878,418.503,0.5339999794960022,-2.4388177783442195
418.96551700000003,,0.007159791227044103,418.97,0.5170000195503235,-2.475955243473781
419.43103399999995,,0.005221898650782067,419.432,0.47600001096725464,-2.565310133015661
419.896552,,0.002275579945148545,419.9,0.515999972820282,-2.4781245052421905
420.362069,,0.0019675041000958263,420.362,0.5260000228881836,-2.4562285082911184
420.827586,,0.005289068612918277,420.826,0.5120000243186951,-2.4865530397779687
421.293103,,0.0102209286067091,421.289,0.5040000081062317,-2.5037444417720875
421.758621,,0.013852562513137955,421.754,0.5080000162124634,-2.494738468915285
422.22413800000004,,0.014719978222311053,422.225,0.5120000243186951,-2.485687751105122
422.689655,,0.013411347069629034,422.684,0.503000020980835,-2.5049248973429354
423.15517200000005,,0.011322284505581133,423.156,0.5120000243186951,-2.4849230684662222
423.62069,,0.009275180962157958,423.614,0.5090000033378601,-2.491053618618408
424.086207,,0.007441749464406456,424.079,0.5249999761581421,-2.4557902836219934
424.55172400000004,,0.005941752802827979,424.544,0.5299999713897705,-2.4445040866090966
425.017241,,0.004800060983645506,425.011,0.5049999952316284,-2.498601228800072
425.482759,,0.003557847053566726,425.477,0.5109999775886536,-2.4851961813922845
425.948276,,0.0018746169113469245,425.945,0.5109999775886536,-2.4849091879137015
426.413793,,0.0007922387347989252,426.407,0.5149999856948853,-2.4759622906909784
426.87931000000003,,0.0022627869577723854,426.87,0.5090000033378601,-2.4888635791483136
427.344828,,0.006376456549306989,427.34,0.5270000100135803,-2.449544007295422
427.810345,,0.010013119556584803,427.804,0.5249999761581421,-2.4538668381436888
428.275862,,0.00981712625615294,428.266,0.527999997138977,-2.447366390885332
428.741379,,0.006034121258548893,428.732,0.5210000276565552,-2.4627215402564557
429.20689699999997,,0.0020417517152481624,429.197,0.5009999871253967,-2.5064659012926813
429.672414,,0.0005369224942012584,429.663,0.515999972820282,-2.474019596609253
430.137931,,0.0012900632562765485,430.13,0.5040000081062317,-2.5004518690581223
430.603448,,0.002117596707983791,430.595,0.515999972820282,-2.474643126540771
431.068966,,0.0011199641849453062,431.059,0.4970000088214874,-2.516408785630432
431.534483,,0.001616406080684312,431.525,0.503000020980835,-2.5037338269921117
432.0,,0.00387295859685822,431.989,0.5270000100135803,-2.45185642243212
432.46551700000003,,0.0031526326622445533,432.455,0.5040000081062317,-2.502375642768648
432.931034,,0.0009216634822479217,432.918,0.5170000195503235,-2.474451265765635
433.396552,,0.006221408144221163,433.381,0.5009999871253967,-2.5096837222717725
433.862069,,0.010150187727365341,433.848,0.5009999871253967,-2.510022560035353
434.327586,,0.011653736686463285,434.311,0.5130000114440918,-2.4841720825790956
434.79310300000003,,0.011135544683852359,434.777,0.5040000081062317,-2.5040185149754826
435.258621,,0.009137165399532516,435.24,0.5419999957084656,-2.421405685955439
435.724138,,0.005873123866368907,435.705,0.5260000228881836,-2.4563706380766166
436.189655,,0.0018876188578983348,436.17,0.515999972820282,-2.4781914133631173
436.655172,,0.001572503925137716,436.636,0.5289999842643738,-2.449830008790066
437.12068999999997,,0.0031619657429832683,437.1,0.5260000228881836,-2.4562547335130183
437.586207,,0.00230156021615097,437.566,0.5289999842643738,-2.449538731334566
438.051724,,0.0005617476385604198,438.03,0.515999972820282,-2.4776177682321734
438.517241,,0.004297544434040545,438.495,0.5379999876022339,-2.4293882349269995
438.982759,,0.007485187917065033,438.963,0.5299999713897705,-2.446471235334972
439.448276,,0.008902171567724217,439.426,0.49399998784065247,-2.5245205688901198
439.913793,,0.008526928706463661,439.889,0.5120000243186951,-2.484899965292973
440.37931000000003,,0.007986201643496426,440.359,0.5109999775886536,-2.4866635187299844
440.844828,,0.008813881461393488,440.819,0.5180000066757202,-2.470999669319748
441.310345,,0.010155508905123069,441.288,0.4830000102519989,-2.546854178567128
441.775862,,0.009658145673360036,441.754,0.5220000147819519,-2.461516304291837
442.241379,,0.006990069754630066,442.217,0.5099999904632568,-2.487327979122573
442.70689699999997,,0.004848179666928478,442.683,0.5149999856948853,-2.476150670675747
443.172414,,0.005509898932938105,443.148,0.49900001287460327,-2.5107819722276363
443.637931,,0.00745694191457815,443.614,0.5109999775886536,-2.484475408389097
444.103448,,0.0066274161420070855,444.078,0.5040000081062317,-2.4996320616973464
444.568966,,0.0008024607913037069,444.544,0.515999972820282,-2.4734660984514303
445.03448299999997,,0.007998548534519761,445.004,0.5009999871253967,-2.5061956343695915
445.5,,0.01541311199192295,445.469,0.527999997138977,-2.4474921537924788
445.965517,,0.018428200616098424,445.939,0.5049999952316284,-2.497787295359876
446.431034,,0.01731007337086614,446.401,0.5049999952316284,-2.498034176502448
446.896552,,0.014667364130571016,446.871,0.5090000033378601,-2.4896198178174793
447.36206899999996,,0.012943221156008029,447.333,0.5249999761581421,-2.455105389000089
447.827586,,0.012641345161997825,447.801,0.5189999938011169,-2.4685536330496887
448.29310300000003,,0.01300781395672861,448.264,0.5149999856948853,-2.4776655715064884
448.758621,,0.01412805267300359,448.729,0.5049999952316284,-2.499858601474236
449.224138,,0.017162128520877357,449.189,0.5299999713897705,-2.445795791549555
449.689655,,0.02185666418196873,449.655,0.5329999923706055,-2.439646894816708
450.155172,,0.024995682768336646,450.119,0.5149999856948853,-2.4792214425314074
450.62068999999997,,0.022998215256543632,450.585,0.5320000052452087,-2.4425044397895754
451.086207,,0.01617646473046161,451.052,0.5120000243186951,-2.486349169892106
451.551724,,0.009114375070858962,451.517,0.5080000162124634,-2.495279696674267
452.017241,,0.006049016085117214,451.989,0.5109999775886536,-2.488897964221888
452.482759,,0.006676744512962473,452.447,0.5149999856948853,-2.4802710900807536
452.94827599999996,,0.00746489060600991,452.915,0.5170000195503235,-2.475932339825817
453.413793,,0.006284466440053589,453.377,0.5040000081062317,-2.504204012969939
453.87931,,0.004161079745063529,453.841,0.46399998664855957,-2.591232725476887
454.344828,,0.002762488060725587,454.311,0.5170000195503235,-2.475584850410807
454.810345,,0.002012712581141967,454.769,0.6190000176429749,-2.2531234992133955
455.27586199999996,,0.000661369154447314,455.239,0.5170000195503235,-2.4750512692464803
455.741379,,0.002045177447787633,455.704,0.5239999890327454,-2.4594618983541157
456.206897,,0.005836085576827303,456.17,0.5189999938011169,-2.469984025426017
456.672414,,0.009785358362563338,456.636,0.49300000071525574,-2.526237566033428
457.137931,,0.012617093237972709,457.101,0.5109999775886536,-2.4866231544703896
457.603448,,0.013010672612068813,457.559,0.5049999952316284,-2.499300911056648
458.06896600000005,,0.010467300186974853,458.026,0.5239999890327454,-2.4575286940119194
458.53448299999997,,0.006333727621603846,458.492,0.4970000088214874,-2.5160018525897216
459.0,,0.003311254153227783,458.96,0.49399998784065247,-2.522226367119991
459.465517,,0.0029242181117790414,459.422,0.5130000114440918,-2.480568940054493
459.931034,,0.0036596366169565665,459.885,0.5080000162124634,-2.491254805073185
460.39655200000004,,0.002760409154667303,460.355,0.5180000066757202,-2.4693223328213945
460.86206899999996,,5.121142334984321e-05,460.818,0.503000020980835,-2.5019215754301376
461.327586,,0.0012655756017939854,461.281,0.5040000081062317,-2.4997305380111468
461.793103,,0.0014945683180325455,461.747,0.5139999985694885,-2.477999827562434
462.258621,,0.0066768171337281456,462.211,0.5180000066757202,-2.4694066765444864
462.724138,,0.009773128654965761,462.676,0.49300000071525574,-2.5240562256679993
463.18965499999996,,0.008629688343837228,463.141,0.6259999871253967,-2.234533580369171
463.655172,,0.0058327581251704915,463.607,0.5080000162124634,-2.4918964508847385
464.12069,,0.005368009911229092,464.074,0.503000020980835,-2.503110047095344
464.58620699999994,,0.007746815064924396,464.539,0.5540000200271606,-2.3923490815836677
465.051724,,0.009410944399064024,465.004,0.5090000033378601,-2.490756744610666
465.517241,,0.007071732905860439,465.47,0.503000020980835,-2.504205091888111
465.98275900000004,,0.001875569535108463,465.933,0.5040000081062317,-2.502400854397705
466.448276,,0.0015958284281557703,466.396,0.503000020980835,-2.5049406834158527
466.913793,,0.00029692244908321205,466.864,0.5170000195503235,-2.4747766181005226
467.37931,,0.004299682060049843,467.326,0.5009999871253967,-2.5099376657357415
467.844828,,0.008284040017505455,467.796,0.5170000195503235,-2.4753384024261194
468.31034500000004,,0.009195841597493069,468.259,0.49000000953674316,-2.5343702649794957
468.77586199999996,,0.007241419972575461,468.724,0.527999997138977,-2.45173287382551
469.241379,,0.00380431028915199,469.189,0.527999997138977,-2.4518216828367185
469.706897,,0.0003209231346468974,469.655,0.503000020980835,-2.506311403388455
470.172414,,0.0015748690939413968,470.119,0.503000020980835,-2.506270008567523
470.63793100000004,,0.0007740566854704101,470.585,0.5339999794960022,-2.4386268662289017
471.10344799999996,,0.001440157708978491,471.045,0.5139999985694885,-2.482033446824386
471.568966,,0.0018080628766381117,471.51,0.5239999890327454,-2.460024425967938
472.034483,,0.0010337143113242232,471.978,0.5270000100135803,-2.453216424602149
472.5,,0.0041778594110274785,472.441,0.5139999985694885,-2.4812256435317814
472.965517,,0.0038431990604490575,472.904,0.4950000047683716,-2.52227578518721
473.43103399999995,,0.0005393787337636319,473.373,0.4909999966621399,-2.5306267387745742
473.89655200000004,,0.0013386862741242129,473.834,0.5210000276565552,-2.464894953646244
474.362069,,0.0007729139515528394,474.303,0.5170000195503235,-2.4732389387381133
474.827586,,0.004437792004080717,474.768,0.515999972820282,-2.475059367719914
475.293103,,0.005746545389974674,475.231,0.5130000114440918,-2.4812600935545532
475.758621,,0.0042203330014256414,475.697,0.47999998927116394,-2.552854359455749
476.22413800000004,,0.0024317460965474287,476.159,0.515999972820282,-2.474165309432244
476.689655,,0.001847147010854496,476.625,0.5299999713897705,-2.443456608869814
477.155172,,0.0013406722903456514,477.089,0.5,-2.5086639498999634
477.62069,,0.00023165193825294998,477.554,0.5,-2.508572693888735
478.086207,,0.00210292322766975,478.026,0.503000020980835,-2.502009348829899
478.55172400000004,,0.0029906001792231133,478.484,0.5400000214576721,-2.4214357206860533
479.01724099999996,,0.0029739554158668053,478.952,0.49000000953674316,-2.5304665855038055
479.482759,,0.0029256103378918277,479.415,0.5249999761581421,-2.4543717251854686
479.948276,,0.002946231908894126,479.885,0.49799999594688416,-2.5134076892431763
480.413793,,0.0025032322318506123,480.348,0.5080000162124634,-2.49188200536232
480.87931000000003,,0.0015242806677465389,480.811,0.41100001335144043,-2.7035142365658817
481.344828,,2.167752181499684e-05,481.281,0.49399998784065247,-2.5230247001179826
481.810345,,0.00288266944366686,481.739,0.5070000290870667,-2.4950635977811513
482.275862,,0.007728771099191035,482.211,0.527999997138977,-2.449683047742868
482.74137900000005,,0.012443018098914165,482.669,0.44999998807907104,-2.6199873672399483
483.206897,,0.013235257161048628,483.141,0.515999972820282,-2.476554844547486
483.672414,,0.008738225004748076,483.599,0.42100000381469727,-2.6838631902311656
484.13793100000004,,0.002285802632085968,484.064,0.527999997138977,-2.4510529014578903
484.603448,,0.0008785675042296142,484.53,0.5059999823570251,-2.499245598362033
485.068966,,0.0013337550605560765,484.996,0.5519999861717224,-2.399237211360587
485.534483,,0.005741805394439267,485.462,0.5419999957084656,-2.421172774217833
486.0,,0.00690811784968423,485.93,0.5120000243186951,-2.4866165399245252
486.46551700000003,,0.002446958441913497,486.392,0.527999997138977,-2.451776496043758
486.931034,,0.004550329543511533,486.855,0.5180000066757202,-2.4735150919799382
487.396552,,0.008368920786496314,487.325,0.5199999809265137,-2.469045685320741
487.862069,,0.005971910304269286,487.784,0.527999997138977,-2.4514438083617063
488.327586,,0.0003261419613217225,488.249,0.5339999794960022,-2.4381440954084286
488.79310300000003,,0.005178533273031481,488.714,0.5040000081062317,-2.503228074227453
489.258621,,0.005109525214783846,489.181,0.5130000114440918,-2.4833069543019426
489.724138,,0.0012622305554597488,489.647,0.5019999742507935,-2.5069315374522523
490.189655,,0.0023686925797732376,490.111,0.5109999775886536,-2.4869665672708985
490.655172,,0.003021535874071926,490.576,0.515999972820282,-2.475710755944873
491.12069,,0.0014183083407093811,491.041,0.515999972820282,-2.4753537118350684
491.586207,,0.00025172387130336916,491.506,0.5450000166893005,-2.411831743860435
492.05172400000004,,0.0008549085989832746,491.974,0.4880000054836273,-2.5357002680244736
492.517241,,0.0018258649584421969,492.436,0.5299999713897705,-2.4439195931582978
492.982759,,0.0010901927655828198,492.904,0.5189999938011169,-2.467652400717377
493.448276,,0.0012054770713169336,493.367,0.503000020980835,-2.5023305765077093
493.913793,,0.0024766958088342016,493.83,0.5070000290870667,-2.493494015345897
494.37931000000003,,0.00041421681272092015,494.299,0.5090000033378601,-2.4890766240694786
494.844828,,0.004366782297604256,494.766,0.5090000033378601,-2.4890796305692207
495.310345,,0.008631530690371161,495.228,0.5210000276565552,-2.46300119525058
495.775862,,0.009547769469138585,495.693,0.5120000243186951,-2.482734128303567
496.241379,,0.007136253232635954,496.159,0.5149999856948853,-2.4763787791159926
496.70689699999997,,0.0036011267362602655,496.625,0.5139999985694885,-2.4787874150631413
497.172414,,0.0008343886202101693,497.089,0.527999997138977,-2.448558044724135
497.637931,,0.000927358398955545,497.554,0.503000020980835,-2.5033288318979583
498.103448,,0.002445065662305841,498.018,0.5139999985694885,-2.4796919667552366
498.568966,,0.004093360311989821,498.484,0.503000020980835,-2.503998743310707
499.03448299999997,,0.00517902590471202,498.945,0.515999972820282,-2.476020715348683
499.5,,0.004676371103763872,499.415,0.527999997138977,-2.4502124750588505
499.96551700000003,,0.0026468220463767805,499.878,0.5070000290870667,-2.4962801595708153
500.431034,,0.0003778739409308485,500.34,0.503000020980835,-2.5052822507329364
500.89655200000004,,0.0011704881185027503,500.804,0.5019999742507935,-2.5077115516891113
501.362069,,0.0022062695133621235,501.274,0.515999972820282,-2.477416286297263
501.827586,,0.0027308032979568575,501.739,0.5249999761581421,-2.457962634852672
502.293103,,0.0014093981958312263,502.203,0.515999972820282,-2.4776680726465297
502.758621,,0.0026166787581610993,502.669,0.5009999871253967,-2.5103864638458746
503.224138,,0.007230459170827743,503.133,0.5230000019073486,-2.4624353763557525
503.68965499999996,,0.008582177870058246,503.599,0.5040000081062317,-2.503750282442146
504.15517200000005,,0.005293228846660755,504.064,0.5049999952316284,-2.501436716873211
504.62068999999997,,0.00011343211389398515,504.53,0.5189999938011169,-2.47074977051221
505.08620699999994,,0.003015909227892134,504.99,0.5049999952316284,-2.501019923019995
505.55172400000004,,0.0026380748476577194,505.455,0.5109999775886536,-2.4876797115064266
506.017241,,0.0005263058372049209,505.923,0.5090000033378601,-2.4917398864302127
506.48275899999993,,0.00024822529196611825,506.386,0.49799999594688416,-2.5153889131496077
506.948276,,0.0021428297096764124,506.856,0.49900001287460327,-2.51288547895074
507.413793,,0.006948462115147771,507.318,0.503000020980835,-2.503847803023355
507.87931,,0.011502719896789032,507.784,0.515999972820282,-2.475213760532166
508.344828,,0.012925188636740456,508.249,0.5040000081062317,-2.5010664409057313
508.810345,,0.009441963335862438,508.714,0.503000020980835,-2.5029838810394107
509.27586199999996,,0.0014697553494416003,509.174,0.5099999904632568,-2.4875101708097374
509.74137900000005,,0.007424871905686382,509.64,0.515999972820282,-2.4742594026959304
510.20689699999997,,0.011744346091334906,510.104,0.5249999761581421,-2.45452174579223
510.67241399999995,,0.0084807365421515,510.57,0.515999972820282,-2.474052375036613
511.13793100000004,,0.0007394339678085006,511.037,0.5049999952316284,-2.4979953285625465
511.603448,,0.004597874205713654,511.503,0.5170000195503235,-2.4718851882992947
512.0689659999999,,0.003699153234033849,511.97,0.5090000033378601,-2.489402534597383
512.534483,,0.0006464788012946101,512.433,0.4699999988079071,-2.574510173918223
513.0,,0.003151638299809476,512.901,0.5040000081062317,-2.500624893637363
513.465517,,0.002777191465263661,513.363,0.5199999809265137,-2.465996848840749
513.931034,,0.0035179845410645747,513.826,0.5149999856948853,-2.477153218966392
514.396552,,0.008195480968757133,514.296,0.5170000195503235,-2.4730832265603664
514.862069,,0.013507441477952815,514.754,0.5049999952316284,-2.4995297883914245
515.327586,,0.013312695013892428,515.225,0.49799999594688416,-2.5150893605970417
515.793103,,0.006355720495681004,515.691,0.5210000276565552,-2.465286038127949
516.258621,,0.0016288004694897935,516.155,0.5149999856948853,-2.4786501740409244
516.724138,,0.004462284854562131,516.621,0.49900001287460327,-2.513778138972098
517.189655,,0.0024860983621314307,517.079,0.515999972820282,-2.4769803931513183
517.655172,,0.0013454352333359947,517.544,0.5170000195503235,-2.4750027449478695
518.1206900000001,,0.004677547953051722,518.011,0.5149999856948853,-2.479516729274941
518.5862070000001,,0.010060040486715086,518.476,0.515999972820282,-2.477445638354995
519.051724,,0.012677798420032096,518.944,0.5170000195503235,-2.4753222672440733
519.517241,,0.011313349977295516,519.406,0.4830000102519989,-2.549398784637315
519.982759,,0.009053587399317603,519.875,0.5199999809265137,-2.4687391304407535
520.448276,,0.008811651445254106,520.337,0.5049999952316284,-2.5013184433671745
520.9137929999999,,0.01036441020204004,520.8,0.5260000228881836,-2.4554185903521737
521.37931,,0.011930885642652923,521.27,0.5040000081062317,-2.503157828514897
521.844828,,0.01225125793549668,521.736,0.5149999856948853,-2.478965228136767
522.310345,,0.010287295361216593,522.2,0.4950000047683716,-2.5222819780629235
522.7758620000001,,0.005272955900369878,522.666,0.5199999809265137,-2.467539212984406
523.241379,,0.0014279691538639071,523.131,0.503000020980835,-2.50428773882576
523.7068969999999,,0.006343917650188245,523.589,0.5120000243186951,-2.4843887386579624
524.172414,,0.007414592505964223,524.056,0.503000020980835,-2.5037120020000017
524.637931,,0.00635438613920049,524.522,0.515999972820282,-2.475120439036794
525.103448,,0.006400620249491408,524.989,0.5170000195503235,-2.4726958152093705
525.568966,,0.008816075217462327,525.455,0.5049999952316284,-2.498624639907154
526.034483,,0.012508878746194217,525.915,0.5270000100135803,-2.4505167270128494
526.5,,0.015927237446343293,526.385,0.5199999809265137,-2.465632037014581
526.9655170000001,,0.018186911139135162,526.848,0.5199999809265137,-2.4655428956017444
527.4310340000001,,0.018963982915184842,527.311,0.5270000100135803,-2.4502518624322773
527.8965519999999,,0.01825218433907723,527.776,0.5249999761581421,-2.4546183420521426
528.362069,,0.016175979318698634,528.239,0.5109999775886536,-2.4851777814938893
528.827586,,0.012821443256473527,528.705,0.5410000085830688,-2.4199238215204457
529.293103,,0.008616347427541244,529.174,0.5419999957084656,-2.417893671845855
529.7586210000001,,0.004869864417812742,529.639,0.5249999761581421,-2.4551170748653157
530.224138,,0.003018007259078022,530.103,0.5540000200271606,-2.3921545280739025
530.689655,,0.0029026282050395222,530.569,0.5239999890327454,-2.4577574868643066
531.155172,,0.002639822850084751,531.034,0.5299999713897705,-2.4449470239150126
531.62069,,0.0007193179590304209,531.5,0.5370000004768372,-2.429967962059304
532.086207,,0.0025370050737614745,531.963,0.5389999747276306,-2.4258836998506332
532.5517239999999,,0.005997668179946916,532.425,0.5249999761581421,-2.4566509519827786
533.017241,,0.009072696215117856,532.893,0.5180000066757202,-2.4721533455994327
533.482759,,0.011228681696786858,533.355,0.515999972820282,-2.4767413488119248
533.9482760000001,,0.011434083741622669,533.823,0.5339999794960022,-2.437727923157649
534.413793,,0.009787618736556375,534.285,0.5490000247955322,-2.405215019894422
534.87931,,0.00890906977692552,534.75,0.546999990940094,-2.40969816251175
535.344828,,0.011303874652719372,535.217,0.5540000200271606,-2.39452816778989
535.810345,,0.01518198900264486,535.683,0.5669999718666077,-2.3662385984436862
536.275862,,0.015388691609302197,536.144,0.5759999752044678,-2.3466141816922104
536.7413789999999,,0.009763163374042821,536.61,0.5540000200271606,-2.394479182190388
537.206897,,0.0029945388689206036,537.074,0.5889999866485596,-2.318115163735847
537.672414,,0.00236813440978307,537.539,0.5649999976158142,-2.370248626102041
538.137931,,0.009797094985270477,538.004,0.5649999976158142,-2.370057307642051
538.6034480000001,,0.019436070560534455,538.47,0.5920000076293945,-2.3110115882250915
539.0689659999999,,0.024009026639568224,538.941,0.5920000076293945,-2.310764949064807
539.5344829999999,,0.0225618995953574,539.403,0.5839999914169312,-2.3279308735361415
540.0,,0.02037752814673549,539.865,0.5519999861717224,-2.3973772722209086
540.465517,,0.021626387896548624,540.335,0.5699999928474426,-2.3578939810193993
540.931034,,0.02427360112547875,540.799,0.5830000042915344,-2.3293151176419857
541.396552,,0.022931862126504204,541.262,0.5809999704360962,-2.33343478472563
541.862069,,0.01501932893804486,541.728,0.6269999742507935,-2.2330045128985416
542.327586,,0.0028001316675422285,542.193,0.6069999933242798,-2.276395870526602
542.7931030000001,,0.00970846769687778,542.659,0.4909999966621399,-2.5289762992913256
543.258621,,0.020345215068288083,543.126,0.6190000176429749,-2.2500118652323624
543.7241379999999,,0.029342995987248953,543.584,0.6330000162124634,-2.2194592136037277
544.189655,,0.03722187799514182,544.049,0.640999972820282,-2.2020227315591407
544.655172,,0.04269952547699653,544.514,0.6039999723434448,-2.2826698651436432
545.12069,,0.043159737711250444,544.989,0.593999981880188,-2.3045381865703956
545.5862070000001,,0.03780118726128715,545.447,0.6110000014305115,-2.267625868906129
546.051724,,0.029843666309132665,545.915,0.5989999771118164,-2.2939332240150305
546.517241,,0.024140866945564478,546.377,0.6240000128746033,-2.2396636724362096
546.982759,,0.02231782085521492,546.841,0.6370000243186951,-2.2115640471837716
547.448276,,0.02143193927530412,547.311,0.6240000128746033,-2.240127722506722
547.9137929999999,,0.01767039128666152,547.769,0.6119999885559082,-2.266524082114274
548.3793099999999,,0.01025400193903279,548.239,0.5979999899864197,-2.2972820878615576
548.844828,,0.0016081184101288538,548.705,0.6150000095367432,-2.260498772021886
549.310345,,0.004966739002840557,549.17,0.6449999809265137,-2.195381130820325
549.775862,,0.007403202530941361,549.635,0.6240000128746033,-2.241353921212377
550.241379,,0.005912827215486627,550.1,0.6439999938011169,-2.197974680097553
550.706897,,0.0028634113815336672,550.559,0.6179999709129333,-2.2547799974208824
551.172414,,0.001257626656657366,551.026,0.6100000143051147,-2.272332072223928
551.637931,,0.002595951453075623,551.492,0.652999997138977,-2.1787320735114615
552.103448,,0.005919729235523821,551.959,0.6299999952316284,-2.228878396678124
552.568966,,0.009074424532806871,552.422,0.6579999923706055,-2.167867695762781
553.034483,,0.011017279969329916,552.885,0.6039999723434448,-2.28546126409837
553.5,,0.0125200645440355,553.355,0.6259999871253967,-2.237435432705704
553.965517,,0.014353713926516711,553.818,0.6190000176429749,-2.252551961981039
554.4310340000001,,0.015666188304749595,554.281,0.6579999923706055,-2.1674158324335475
554.896552,,0.0152979949289429,554.747,0.6230000257492065,-2.2434694978527903
555.3620689999999,,0.01409326268108921,555.21,0.628000020980835,-2.232354043472911
555.827586,,0.014188737386205531,555.676,0.6039999723434448,-2.284404297188106
556.293103,,0.01602611416626222,556.141,0.6060000061988831,-2.279802563760089
556.758621,,0.017739901971706645,556.607,0.5920000076293945,-2.3100606534886694
557.224138,,0.017685952544441795,557.074,0.5889999866485596,-2.3163630696563127
557.689655,,0.015994155810970224,557.539,0.6050000190734863,-2.2812876321313165
558.155172,,0.013511966305497305,558.004,0.597000002861023,-2.2985225634241986
558.6206900000001,,0.01096567960313191,558.47,0.6290000081062317,-2.228639238867646
559.0862070000001,,0.009365291517992841,558.933,0.6179999709129333,-2.2524695940742294
559.5517239999999,,0.009238000079029501,559.396,0.5929999947547913,-2.306836593807299
560.017241,,0.00881620757391562,559.863,0.5889999866485596,-2.315491537929777
560.482759,,0.004949561557929764,560.325,0.6190000176429749,-2.25011322579144
560.948276,,0.002886032098182743,560.797,0.6060000061988831,-2.2784570631497965
561.413793,,0.010832243370041702,561.259,0.6309999823570251,-2.224050658834822
561.87931,,0.014506907528452555,561.725,0.5910000205039978,-2.31129243252476
562.344828,,0.014094611905068524,562.185,0.5929999947547913,-2.3070647678623892
562.8103450000001,,0.013977829109121664,562.651,0.5979999899864197,-2.296330961542222
563.275862,,0.017049912755383465,563.115,0.5830000042915344,-2.3291946966685577
563.7413789999999,,0.020930542144752103,563.581,0.5929999947547913,-2.3076111004859805
564.206897,,0.02100142536406754,564.049,0.5669999718666077,-2.364471573606576
564.672414,,0.016159380898536625,564.514,0.5820000171661377,-2.3320135256603756
565.137931,,0.009725963531040173,564.978,0.5799999833106995,-2.3365918090116637
565.603448,,0.004963711663724886,565.441,0.5690000057220459,-2.3607699134004307
566.068966,,0.0018452805673316852,565.904,0.5849999785423279,-2.326110113199872
566.534483,,0.0011227142130635702,566.374,0.5669999718666077,-2.3655035621622695
567.0,,0.003792490983509307,566.837,0.5460000038146973,-2.411407308724601
567.465517,,0.004580100458414342,567.3,0.5370000004768372,-2.4311383287752064
567.931034,,0.002909864052889483,567.766,0.5649999976158142,-2.3702266708728947
568.396552,,8.58877644924717e-05,568.236,0.5540000200271606,-2.394246096934482
568.862069,,0.00206378292090131,568.694,0.5540000200271606,-2.3942624058595046
569.327586,,0.0024812663043198573,569.16,0.5519999861717224,-2.3985977593999053
569.793103,,0.001061979026783865,569.626,0.5339999794960022,-2.437754167296614
570.2586210000001,,0.001335051005497598,570.092,0.5649999976158142,-2.370121353046862
570.724138,,0.0028726106077679213,570.558,0.5440000295639038,-2.4157453561230695
571.189655,,0.0018185597098198912,571.022,0.5419999957084656,-2.4199463902906624
571.655172,,0.0014912815033622981,571.488,0.5529999732971191,-2.395801226297448
572.12069,,0.004288799515358214,571.956,0.5389999747276306,-2.42610390560956
572.586207,,0.004163819140096544,572.418,0.5210000276565552,-2.465109460913396
573.051724,,0.0022303206573406923,572.881,0.5230000019073486,-2.4605379027161582
573.517241,,0.002084804747886098,573.344,0.5170000195503235,-2.473398019076742
573.982759,,0.005043020018181114,573.811,0.5260000228881836,-2.453587393190813
574.4482760000001,,0.007834702639120839,574.274,0.5070000290870667,-2.4947940829072173
574.913793,,0.006284517327068379,574.74,0.4869999885559082,-2.5382011160693083
575.37931,,0.0006618187751584155,575.207,0.5400000214576721,-2.422593104205265
575.844828,,0.003950729293330751,575.673,0.5049999952316284,-2.49873584171125
576.310345,,0.003094467420452561,576.137,0.5130000114440918,-2.4812292269011347
576.775862,,0.0018194205643551138,576.603,0.5049999952316284,-2.4986162151903777
577.241379,,0.004657176305601768,577.07,0.5130000114440918,-2.481180776020007
577.706897,,0.0011597468501536512,577.529,0.5120000243186951,-2.483388861862705
578.172414,,0.0065603006119867744,578.0,0.515999972820282,-2.4747380196021487
578.6379310000001,,0.012713032257162037,578.459,0.5289999842643738,-2.446510671377492
579.1034480000001,,0.01404904471211084,578.929,0.503000020980835,-2.503278742992583
579.5689659999999,,0.012223142230969663,579.392,0.5070000290870667,-2.4947121615041112
580.034483,,0.010477173512905131,579.86,0.5220000147819519,-2.462200551140908
580.5,,0.0096920726544773,580.322,0.5099999904632568,-2.488526832573409
580.965517,,0.008540196239999093,580.793,0.5049999952316284,-2.4996114275890875
581.431034,,0.00637260370306559,581.255,0.6240000128746033,-2.240544716423324
581.896552,,0.004217362065022115,581.714,0.5210000276565552,-2.4651311458253913
582.362069,,0.002989025230107993,582.186,0.4959999918937683,-2.5197727450598695
582.827586,,0.002434700589787233,582.644,0.5049999952316284,-2.500327615142413
583.2931030000001,,0.0024202814847562727,583.111,0.515999972820282,-2.4765080545300897
583.758621,,0.0037092680433673535,583.576,0.515999972820282,-2.4766318173331703
584.2241379999999,,0.006374537198137643,584.041,0.5149999856948853,-2.4789089270407034
584.689655,,0.00850924985626285,584.507,0.4650000035762787,-2.587912998148605
585.155172,,0.007905799542181189,584.97,0.4970000088214874,-2.518240556144051
585.6206900000001,,0.004657070752011588,585.44,0.4970000088214874,-2.5182563349822815
586.0862070000001,,0.0008474280392595356,585.904,0.5009999871253967,-2.509528107616659
586.551724,,0.0022970638602787734,586.366,0.4880000054836273,-2.5378080700482615
587.017241,,0.005583526145352135,586.834,0.5080000162124634,-2.494165297620183
587.482759,,0.009752760343808675,587.296,0.49000000953674316,-2.533285880504732
587.948276,,0.013580002312601222,587.762,0.4970000088214874,-2.5179178638298287
588.4137929999999,,0.015158593497901073,588.225,0.503000020980835,-2.5047095007369213
588.87931,,0.014371382779203455,588.69,0.503000020980835,-2.504557660990035
589.344828,,0.01297836968980272,589.155,0.5139999985694885,-2.480429343729438
589.810345,,0.012270844721151818,589.621,0.492000013589859,-2.5281896201240204
590.2758620000001,,0.011343752438324615,590.086,0.48899999260902405,-2.5345543697713833
590.741379,,0.008192861181966327,590.551,0.49900001287460327,-2.5126004618800666
591.2068969999999,,0.0025359970428188655,591.019,0.49000000953674316,-2.5320493142495963
591.672414,,0.0029391783450725133,591.484,0.5040000081062317,-2.5014018666190654
592.137931,,0.0046514945157183326,591.945,0.48899999260902405,-2.5339518280708773
592.603448,,0.0015308174881608475,592.414,0.4779999852180481,-2.5578077284311225
593.068966,,0.0037050412788052806,592.877,0.5109999775886536,-2.4858265784364453
593.534483,,0.00668820515867013,593.34,0.49000000953674316,-2.5315174793531248
594.0,,0.005116529122203009,593.808,0.49000000953674316,-2.5314835525603363
594.4655170000001,,0.0007101652053873628,594.27,0.49900001287460327,-2.511869475766489
594.9310340000001,,0.002535159955791333,594.736,0.48500001430511475,-2.5423919237539447
595.3965519999999,,0.002207934340708528,595.204,0.4860000014305115,-2.5402617854402045
595.862069,,0.0002731598784247875,595.67,0.4959999918937683,-2.5185493960553837
596.327586,,0.0011755044203642568,596.13,0.48500001430511475,-2.5426117162040436
596.793103,,0.0016848754913651445,596.595,0.49000000953674316,-2.5318360876980606
597.2586210000001,,0.006634943741877005,597.06,0.49000000953674316,-2.5319706479547834
597.724138,,0.010068486286968286,597.526,0.421999990940094,-2.6802676282079787
598.189655,,0.010393242104963622,597.992,0.4790000021457672,-2.55624478649307
598.655172,,0.009083974843039242,598.458,0.492000013589859,-2.5280881253640883
599.12069,,0.008055262320370443,598.919,0.5009999871253967,-2.508645187462236
599.586207,,0.007654564037862641,599.389,0.49000000953674316,-2.5327690169776074
600.0517239999999,,0.0076555164653552684,599.852,0.49900001287460327,-2.513309320493739
600.517241,,0.008451861552563918,600.314,0.48899999260902405,-2.535229297525834
600.982759,,0.010047828659615055,600.78,0.49000000953674316,-2.5331658121785745
601.448276,,0.011002282516134493,601.244,0.503000020980835,-2.504937066659254
601.913793,,0.009854743320985642,601.71,0.5149999856948853,-2.478862370306019
602.37931,,0.007227301147968985,602.175,0.5059999823570251,-2.498512284967363
602.844828,,0.005272494850886249,602.64,0.48500001430511475,-2.5442785712205787
603.310345,,0.004949613150545795,603.107,0.5,-2.5115868434409987
603.775862,,0.0047972073235108825,603.573,0.492000013589859,-2.5289779260990595
604.2413789999999,,0.002904706855405866,604.037,0.5120000243186951,-2.485341860680742
604.706897,,0.0003691604847792506,604.502,0.492000013589859,-2.528828761347436
605.172414,,0.002444303520524881,604.97,0.4880000054836273,-2.537437465623303
605.637931,,0.0015234527817556834,605.432,0.503000020980835,-2.504635554852661
606.1034480000001,,0.001284548589274884,605.9,0.5019999742507935,-2.506679218700153
606.5689659999999,,0.0037667427652214175,606.362,0.503000020980835,-2.5043562429901813
607.0344829999999,,0.005646953719388954,606.83,0.46399998664855957,-2.5891752768939464
607.5,,0.007923804584286325,607.292,0.492000013589859,-2.5280257972687674
607.965517,,0.009598251937333248,607.758,0.4909999966621399,-2.5300622702678317
608.431034,,0.007819748968355283,608.221,0.48399999737739563,-2.5451792492517544
608.896552,,0.0021000897225754824,608.686,0.5040000081062317,-2.5014848842335984
609.362069,,0.004165930400189475,609.152,0.49300000071525574,-2.525343718562688
609.827586,,0.008181226562415198,609.617,0.5099999904632568,-2.4882178967072144
610.293103,,0.01190356359622176,610.082,0.503000020980835,-2.5033990218797215
610.758621,,0.019168808010580327,610.548,0.3889999985694885,-2.751718928991956
611.2241379999999,,0.029491969511396876,611.015,0.47699999809265137,-2.559978529912386
611.689655,,0.03767582344878523,611.48,0.48399999737739563,-2.5447343610746116
612.155172,,0.03981953955875551,611.941,0.4880000054836273,-2.5360490122844275
612.62069,,0.03702336427195302,612.41,0.49399998784065247,-2.5230274960363497
613.0862070000001,,0.03251562487575208,612.871,0.4690000116825104,-2.5775632659991916
613.551724,,0.02775994799526066,613.34,0.49399998784065247,-2.5231837871716243
614.017241,,0.02257688075729015,613.804,0.49000000953674316,-2.5319988225542427
614.4827590000001,,0.01697332373917161,614.266,0.4740000069141388,-2.5669682217885605
614.948276,,0.011250265097713883,614.732,0.47999998927116394,-2.5540149939286203
615.4137929999999,,0.005295823870504059,615.197,0.4819999933242798,-2.5497803846920064
615.8793099999999,,0.0009947016100678681,615.662,0.49000000953674316,-2.532473965610751
616.344828,,0.006738288243786079,616.127,0.47099998593330383,-2.5739877696912323
616.810345,,0.010188314351453629,616.592,0.47200000286102295,-2.5719223215698843
617.275862,,0.010375426233049866,617.059,0.47999998927116394,-2.5545973124641583
617.741379,,0.008741832511197738,617.525,0.47600001096725464,-2.5634039475068158
618.206897,,0.00843719625181951,617.989,0.4699999988079071,-2.576553664019402
618.672414,,0.011126479493928707,618.456,0.46399998664855957,-2.589687628454156
619.137931,,0.014767160765966254,618.918,0.4650000035762787,-2.587554155923466
619.603448,,0.0156507121044032,619.381,0.48399999737739563,-2.5461870304165974
620.068966,,0.012893847913968045,619.844,0.4699999988079071,-2.5766964369920045
620.534483,,0.009797837197261993,620.315,0.47600001096725464,-2.5636141648405815
621.0,,0.009882972635355834,620.78,0.47200000286102295,-2.572300542199266
621.465517,,0.012413171806711663,621.244,0.47999998927116394,-2.55482629730571
621.9310340000001,,0.013293845569473339,621.71,0.45899999141693115,-2.600517772297345
622.396552,,0.010216983730634096,622.174,0.4339999854564667,-2.654911870106202
622.862069,,0.005406273801309673,622.64,0.45899999141693115,-2.60036457558263
623.327586,,0.002782024723862408,623.1,0.4569999873638153,-2.6046338550518886
623.793103,,0.0034775716083443047,623.566,0.4690000116825104,-2.5783968313544383
624.258621,,0.005066425627609686,624.033,0.46399998664855957,-2.589193979030252
624.724138,,0.004915391205060883,624.499,0.4729999899864197,-2.5694893025973777
625.189655,,0.0034394044695847245,624.959,0.46299999952316284,-2.591180683565673
625.655172,,0.0035598007545688155,625.429,0.45500001311302185,-2.6085192136172455
626.1206900000001,,0.007005431126197203,625.892,0.46799999475479126,-2.580113069985755
626.5862070000001,,0.011577117231992725,626.355,0.4690000116825104,-2.5778591300290903
627.0517239999999,,0.01278081829850274,626.819,0.46000000834465027,-2.59740179971361
627.5172409999999,,0.008582315797231182,627.288,0.45899999141693115,-2.599527124900455
627.982759,,0.002001968203536363,627.754,0.4790000021457672,-2.555913489119245
628.448276,,0.0016703393460517388,628.218,0.4620000123977661,-2.592922944965829
628.913793,,0.00012973407613750575,628.683,0.4830000102519989,-2.547157122894585
629.37931,,0.005354268909229409,629.148,0.45100000500679016,-2.6168733314306767
629.844828,,0.009485773667697497,629.614,0.4359999895095825,-2.6495670264842874
630.3103450000001,,0.008940573451639799,630.074,0.45100000500679016,-2.6169159941252644
630.7758620000001,,0.0035523867092690344,630.54,0.45500001311302185,-2.6082436239617977
631.2413789999999,,0.003148112762538386,631.005,0.4560000002384186,-2.6061190008049873
631.706897,,0.006684143908902796,631.471,0.4480000138282776,-2.6236123732206975
632.172414,,0.005490908150695335,631.941,0.46399998664855957,-2.5888266299750526
632.637931,,0.0019029886232894977,632.403,0.46299999952316284,-2.5910837892191174
633.103448,,0.0006830882753614699,632.871,0.4490000009536743,-2.6216672693343117
633.568966,,0.0009698112428236802,633.332,0.45100000500679016,-2.617394571761149
634.034483,,8.683219320479825e-05,633.796,0.47600001096725464,-2.5630127068775126
634.5,,0.0014784385926567677,634.259,0.4390000104904175,-2.6437044783706103
634.9655170000001,,0.0034820106150258816,634.725,0.44200000166893005,-2.637246520200628
635.431034,,0.0065113948406793,635.19,0.45100000500679016,-2.617711374294269
635.8965519999999,,0.00935291108112719,635.656,0.46799999475479126,-2.58073931794562
636.362069,,0.0095682349425178,636.123,0.45899999141693115,-2.6004021841385994
636.827586,,0.006123926849115082,636.588,0.4790000021457672,-2.556872615351055
637.293103,,0.0012988699597720344,637.053,0.4569999873638153,-2.6048336775335397
637.7586210000001,,0.0009273365974388428,637.518,0.453000009059906,-2.6135662138593294
638.224138,,0.001053342947889507,637.981,0.4440000057220459,-2.633179762325135
638.689655,,0.004667476697380417,638.444,0.45500001311302185,-2.609208251687929
639.155172,,0.006114645445579535,638.915,0.45100000500679016,-2.6179045952537576
639.62069,,0.004378233920768992,639.377,0.4620000123977661,-2.5939095539407817
640.086207,,0.001545141142423619,639.845,0.4740000069141388,-2.5677245505879798
640.551724,,8.693005561519448e-05,640.307,0.4410000145435333,-2.6395684630933536
641.017241,,0.0007779573225571404,640.773,0.46000000834465027,-2.5981143826014494
641.482759,,0.0025531896360667388,641.236,0.460999995470047,-2.595869158739193
641.9482760000001,,0.003445674233040793,641.701,0.46299999952316284,-2.5914396499493475
642.413793,,0.0019535217167301463,642.167,0.46700000762939453,-2.582648871491627
642.87931,,0.0017380122633390612,642.633,0.46399998664855957,-2.5891065101772885
643.344828,,0.005628865630914103,643.1,0.4699999988079071,-2.575955930878632
643.810345,,0.007331689497972458,643.566,0.45399999618530273,-2.610737476508229
644.275862,,0.006134770162434938,644.026,0.4320000112056732,-2.6585955284560003
644.7413789999999,,0.0036343630200524795,644.492,0.45500001311302185,-2.6084215389056418
645.206897,,0.0018552785221121232,644.956,0.47699999809265137,-2.560434106482673
645.672414,,0.0008982298449606298,645.425,0.41999998688697815,-2.6845690162303772
646.1379310000001,,0.0007051671209726048,645.886,0.4729999899864197,-2.5690634166959905
646.6034480000001,,0.0032684294948839227,646.355,0.40400001406669617,-2.7193651437861606
647.0689659999999,,0.004812418373827698,646.815,0.46299999952316284,-2.5908130211847222
647.534483,,0.003387630097336537,647.285,0.45100000500679016,-2.616957574132449
648.0,,0.00029178117752149784,647.744,0.4659999907016754,-2.584290147188359
648.465517,,0.003367643323406153,648.215,0.46399998664855957,-2.5886704967843426
648.931034,,0.0035195487589341143,648.68,0.44600000977516174,-2.6279193936553473
649.396552,,0.0007438275894589771,649.145,0.4490000009536743,-2.621426707920263
649.862069,,0.0027267567320794998,649.611,0.4659999907016754,-2.5844417025960333
650.327586,,0.0038715684197016516,650.07,0.47600001096725464,-2.5627137451868967
650.7931030000001,,0.0013139403293180626,650.536,0.46299999952316284,-2.5910994779960657
651.258621,,0.0029762973373664422,651.0,0.46399998664855957,-2.5889876065081823
651.7241379999999,,0.005222689524306076,651.466,0.4300000071525574,-2.6631311816815466
652.189655,,0.003742481561962868,651.934,0.4399999976158142,-2.6414165305632404
652.655172,,0.0006922043584120902,652.396,0.4560000002384186,-2.6066305181692115
653.12069,,0.0005310195950686887,652.859,0.4569999873638153,-2.6045223049855672
653.5862070000001,,0.0009724448690386541,653.329,0.45399999618530273,-2.6111246884857278
654.051724,,0.00289357498423022,653.793,0.4650000035762787,-2.5872203077060814
654.517241,,0.002337770892460988,654.255,0.4429999887943268,-2.6352042949468535
654.982759,,0.0011488033162748031,654.721,0.4569999873638153,-2.6047488071600218
655.448276,,0.00496191683456708,655.186,0.46399998664855957,-2.5895343936037145
655.9137929999999,,0.005711152938618785,655.651,0.4620000123977661,-2.5939168708055447
656.37931,,0.002244060094510322,656.118,0.45899999141693115,-2.6004665286040254
656.844828,,0.003426125756351285,656.583,0.4560000002384186,-2.6070043634738
657.310345,,0.007813055692200822,657.049,0.4699999988079071,-2.5764932215613716
657.7758620000001,,0.008116826999113,657.514,0.4620000123977661,-2.593900232757895
658.241379,,0.0033193777531800054,657.978,0.46399998664855957,-2.589509231765304
658.7068969999999,,0.005089077271115638,658.44,0.4729999899864197,-2.569856716859656
659.172414,,0.012778139149125949,658.908,0.47600001096725464,-2.5632658070265557
659.637931,,0.014723196224721138,659.37,0.47600001096725464,-2.5632017336751645
660.103448,,0.009610921869770566,659.841,0.46399998664855957,-2.5892741660575957
660.568966,,0.0016925758969449291,660.303,0.46799999475479126,-2.580483051050652
661.034483,,0.0031395985842607253,660.768,0.4779999852180481,-2.5586169091053077
661.5,,0.00292358774105916,661.231,0.46000000834465027,-2.5977517325806954
661.965517,,0.0003571743009730807,661.697,0.4749999940395355,-2.5649924750516266
662.4310340000001,,0.0013230965003420097,662.163,0.47699999809265137,-2.5605588063804827
662.8965519999999,,0.00149752614362332,662.628,0.46399998664855957,-2.588810119378181
663.362069,,0.0011187859291786242,663.093,0.46299999952316284,-2.590925289304909
663.827586,,0.00033211352424415735,663.559,0.46399998664855957,-2.58869301107966
664.293103,,0.0015198776703242848,664.023,0.4740000069141388,-2.5668639775960265
664.7586210000001,,0.004240694133192967,664.489,0.46799999475479126,-2.5799055591234383
665.224138,,0.0065500429875268084,664.952,0.4620000123977661,-2.5929603416566596
665.689655,,0.007498237666726994,665.414,0.4790000021457672,-2.5559201419376962
666.155172,,0.007202871879171994,665.885,0.4790000021457672,-2.555930551703858
666.62069,,0.006250709181444486,666.348,0.4959999918937683,-2.518916778605755
667.086207,,0.005027134660167314,666.811,0.46299999952316284,-2.5908477930751137
667.5517239999999,,0.0035334427133490325,667.274,0.49000000953674316,-2.53207186166236
668.017241,,0.0016005780464077013,667.739,0.47600001096725464,-2.5626313648353762
668.482759,,0.0005131418579475375,668.207,0.4880000054836273,-2.536555214112167
668.948276,,0.0019487378943206632,668.672,0.47699999809265137,-2.5605955962826767
669.413793,,0.002146596974577949,669.137,0.47200000286102295,-2.571570081496712
669.87931,,0.001616432053382092,669.603,0.48500001430511475,-2.54333299717149
670.3448279999999,,0.0014919091966862238,670.071,0.45100000500679016,-2.6174946507364996
670.810345,,0.0028392952450514183,670.529,0.47200000286102295,-2.5718310849910386
671.275862,,0.006432468243460299,670.996,0.4690000116825104,-2.578453087381128
671.7413789999999,,0.012043500198546527,671.462,0.4779999852180481,-2.5589265151968714
672.206897,,0.017339810993117044,671.926,0.46299999952316284,-2.5916802240882912
672.672414,,0.018614019655334477,672.395,0.46700000762939453,-2.5830305049423576
673.137931,,0.014167018734790983,672.856,0.48399999737739563,-2.5460470686612364
673.6034480000001,,0.007023031581824448,673.319,0.46399998664855957,-2.5896602390845165
674.068966,,0.0028907297990198454,673.786,0.4519999921321869,-2.615829992503517
674.5344829999999,,0.004646658248093128,674.25,0.46700000762939453,-2.583161472283556
675.0,,0.009604969848762962,674.715,0.4779999852180481,-2.559191650547103
675.465517,,0.01278023430427249,675.181,0.4659999907016754,-2.5853139592429066
675.931034,,0.011938301076493027,675.647,0.47600001096725464,-2.563489448047139
676.396552,,0.008681184170426877,676.115,0.5019999742507935,-2.50679019653838
676.862069,,0.005429302832922197,676.58,0.4650000035762787,-2.5873299369241756
677.327586,,0.002739365178294984,677.045,0.4779999852180481,-2.5589239047710852
677.793103,,0.00023921575224400825,677.511,0.4909999966621399,-2.5305064995483644
678.2586210000001,,0.003786991660320257,677.971,0.47600001096725464,-2.5630820489966464
678.7241379999999,,0.006989329683440889,678.44,0.48500001430511475,-2.5433638651658366
679.1896549999999,,0.0087870883125472,678.903,0.49799999594688416,-2.5149278178783074
679.655172,,0.00907170887643387,679.366,0.48899999260902405,-2.534421577827451
680.12069,,0.008853450428512653,679.83,0.4959999918937683,-2.5190599451290034
