Trial: ,10
Threshold: ,0.0
Maximum EMG: ,0.04686127629782543
Success: ,True

EMG Time,Raw EMG,Filtered EMG,Force Time,Raw Force (V),Filtered Force (N)
0.0,samples,1.0164335588298463e-06,0.471,0.4690000116825104,-2.5779014676948937
0.46551699999999996,time,4.618667506711825e-07,0.933,0.46799999475479126,-2.5802534280826017
0.9310339999999999,value,1.1830509859564546e-07,1.395,0.4819999933242798,-2.549930429313766
1.396552,,7.231203011892814e-07,1.861,0.4699999988079071,-2.57625125026811
1.862069,,1.3514878066135575e-06,2.325,0.47200000286102295,-2.5720645368874293
2.327586,,2.002185502559443e-06,2.791,0.46000000834465027,-2.598367474290012
2.793103,,2.6738589094301647e-06,3.255,0.46799999475479126,-2.5810812709224993
3.258621,,3.36502029013133e-06,3.721,0.4729999899864197,-2.5703100867853736
3.724138,,4.074048196221742e-06,4.186,0.47999998927116394,-2.5551563097591257
4.189654999999999,,4.799187470875597e-06,4.651,0.46000000834465027,-2.5987976289992165
4.655172,,5.5385497283610245e-06,5.119,0.4690000116825104,-2.5792279754136342
5.12069,,6.29011432889165e-06,5.584,0.5440000295639038,-2.415834595657061
5.586207,,7.051729866755765e-06,6.052,0.4620000123977661,-2.5944546970579356
6.051723999999999,,7.821116188570531e-06,6.513,0.4729999899864197,-2.5704282717619473
6.517241,,8.595866957345799e-06,6.981,0.4699999988079071,-2.5768738353822225
6.982759,,9.373452776773038e-06,7.444,0.47200000286102295,-2.5723998583314875
7.448276,,1.015122488877967e-05,7.907,0.46399998664855957,-2.589689924935619
7.913793000000001,,1.0926419455907792e-05,8.37,0.46399998664855957,-2.589532911488684
8.379309999999998,,1.1696162438489911e-05,8.835,0.4690000116825104,-2.5784697292929195
8.844828000000001,,1.2457475074903695e-05,9.307,0.47200000286102295,-2.5717561238783917
9.310345,,1.3207279971394596e-05,9.765,0.4749999940395355,-2.56504001380069
9.775862,,1.3942407806061448e-05,10.23,0.492000013589859,-2.527825394666817
10.241379,,1.4659604649608136e-05,10.696,0.4650000035762787,-2.5864794271386184
10.706897,,1.535553990337702e-05,11.163,0.45399999618530273,-2.610289317650681
11.172414,,1.60268148530003e-05,11.629,0.4560000002384186,-2.6057967551435977
11.637931,,1.6669971833737954e-05,12.097,0.4729999899864197,-2.5686485361893663
12.103447999999998,,1.7281504001219024e-05,12.555,0.47600001096725464,-2.562028108507828
12.568966000000001,,1.785786569887219e-05,13.026,0.47999998927116394,-2.5532579959945885
13.034483,,1.839548341082652e-05,13.488,0.45899999141693115,-2.598984834414831
13.5,,1.8890767286490184e-05,13.952,0.46399998664855957,-2.5880989540010018
13.965517,,1.9340123220379488e-05,14.421,0.37400001287460327,-2.7842184559319287
14.431034,,1.973996546808027e-05,14.88,0.46299999952316284,-2.590393826559663
14.896552,,2.0086729776484547e-05,15.35,0.46299999952316284,-2.590498750931885
15.362069,,2.0376887003666493e-05,15.816,0.4880000054836273,-2.5361615635496255
15.827586000000002,,2.0606957200950188e-05,16.281,0.47699999809265137,-2.5602749000863523
16.293103,,2.077352412688639e-05,16.746,0.4690000116825104,-2.5778666222011806
16.758621,,2.0873250160005864e-05,17.211,0.4699999988079071,-2.575860183829568
17.224138,,2.0902891574362035e-05,17.677,0.4819999933242798,-2.5498925985123098
17.689655,,2.085931413902576e-05,18.141,0.4819999933242798,-2.5500667530220626
18.155172,,2.0739508999860478e-05,18.607,0.46299999952316284,-2.5916278609481744
18.62069,,2.0540608799097374e-05,19.07,0.43799999356269836,-2.646249523326649
19.086207,,2.0259903985458796e-05,19.532,0.46299999952316284,-2.591923352187161
19.551724,,1.9894859264855347e-05,20.001,0.46399998664855957,-2.589864647446729
20.017241000000002,,1.944313013901993e-05,20.463,0.46399998664855957,-2.5899602139372893
20.482758999999998,,1.8902579476852153e-05,20.926,0.49399998784065247,-2.524668462593125
20.948276,,1.827129406074205e-05,21.395,0.46399998664855957,-2.5900652671067235
21.413793000000002,,1.7547601047734586e-05,21.861,0.4749999940395355,-2.566106376235689
21.87931,,1.6730084283099808e-05,22.325,0.46799999475479126,-2.5813324019236763
22.344828,,1.5817600401699862e-05,22.79,0.46299999952316284,-2.592171459140089
22.810344999999998,,1.4809294650507166e-05,23.255,0.43299999833106995,-2.6574498832963926
23.275862,,1.370461636374027e-05,23.72,0.4659999907016754,-2.5854498613124095
23.741379,,1.2503334020359463e-05,24.186,0.4569999873638153,-2.6049324455823224
24.206897,,1.1205549812115114e-05,24.651,0.4729999899864197,-2.569931572032612
24.672414,,9.811713648982243e-06,25.111,0.46299999952316284,-2.5915626380018217
25.137931,,8.322636527657146e-06,25.576,0.4740000069141388,-2.567433934638312
25.603448,,6.739503187849351e-06,26.044,0.4620000123977661,-2.593411182146818
26.068966,,5.063883980387318e-06,26.506,0.4699999988079071,-2.575817824247986
26.534483,,3.2977458706814557e-06,26.97,0.49000000953674316,-2.532087649539029
27.0,,1.4434625008654417e-06,27.44,0.46700000762939453,-2.582050890501475
27.465517,,4.961767660219623e-07,27.9,0.4699999988079071,-2.5753857247506375
27.931034,,2.5179588961359817e-06,28.37,0.4690000116825104,-2.5774559413272646
28.396552,,4.61824040492478e-06,28.835,0.4650000035762787,-2.5860864119390374
28.862069,,6.792941822048711e-06,29.299,0.46299999952316284,-2.5903866381079883
29.327586,,9.03754347473589e-06,29.765,0.47999998927116394,-2.553321167029501
29.793103000000002,,1.1347082661670892e-05,30.23,0.46299999952316284,-2.5903588906005934
30.258620999999998,,1.3716152287671123e-05,30.696,0.4790000021457672,-2.5555302940655915
30.724138,,1.6138901027232694e-05,31.155,0.4690000116825104,-2.5773745499392504
31.189655000000002,,1.860903508251786e-05,31.621,0.46299999952316284,-2.590530549898572
31.655172000000004,,2.1119821598503633e-05,32.089,0.4970000088214874,-2.5165639008461906
32.12069,,2.3664093794811117e-05,32.551,0.3100000023841858,-2.92410103964913
32.586207,,2.623425787018419e-05,33.022,0.4830000102519989,-2.547345625003655
33.051724,,2.8822301731681242e-05,33.484,0.48399999737739563,-2.545331149399222
33.517241000000006,,3.141980559638379e-05,33.948,0.49799999594688416,-2.5149984489868844
33.982759,,3.401795450881064e-05,34.41,0.4690000116825104,-2.5783463379429934
34.448276,,3.660755281225634e-05,34.876,0.47600001096725464,-2.563256870405347
34.913793,,3.917904060695089e-05,35.346,0.46399998664855957,-2.589551098549379
35.37931,,4.172251222226734e-05,35.811,0.46000000834465027,-2.5984009371045342
35.844828,,4.422773672419039e-05,36.27,0.49000000953674316,-2.533157176394368
36.310345,,4.668418047290822e-05,36.736,0.46399998664855957,-2.589894063065708
36.775862,,4.908103173871008e-05,37.201,0.4620000123977661,-2.594317116811584
37.241378999999995,,5.1407227377373146e-05,37.666,0.47099998593330383,-2.574747421152559
37.706897000000005,,5.3651481558913885e-05,38.133,0.46399998664855957,-2.590007094199877
38.172414,,5.580231653597569e-05,38.599,0.47200000286102295,-2.57255784586381
38.637931,,5.784809543023828e-05,39.066,0.48899999260902405,-2.535471985350205
39.103448,,5.977705700708282e-05,39.529,0.4519999921321869,-2.6160059889033684
39.568965999999996,,6.157735240034528e-05,39.992,0.4740000069141388,-2.56797576362227
40.034483,,6.323708374036025e-05,40.462,0.46399998664855957,-2.5896419401847717
40.5,,6.474434462965667e-05,40.922,0.4819999933242798,-2.5502890781400755
40.965517,,6.608726240164064e-05,41.385,0.46399998664855957,-2.5893552156837205
41.431034,,6.725404208840968e-05,41.85,0.4690000116825104,-2.5783051262862795
41.896552,,6.82330120145143e-05,42.321,0.4580000042915344,-2.6021117676683336
42.362069000000005,,6.901267092404402e-05,42.78,0.48100000619888306,-2.5518476383406536
42.827586000000004,,6.958173653889316e-05,43.251,0.453000009059906,-2.6127028333192475
43.293103,,6.992919543648809e-05,43.717,0.3869999945163727,-2.7563615252681735
43.758621,,7.004435412566343e-05,44.181,0.46399998664855957,-2.588493864400281
44.224138,,6.991689118979138e-05,44.647,0.4429999887943268,-2.6341564420727615
44.689655,,6.953691035673332e-05,45.111,0.47600001096725464,-2.562195854589185
45.155172,,6.889499434572755e-05,45.576,0.46399998664855957,-2.5882996686017194
45.620689999999996,,6.798225933199227e-05,46.037,0.4790000021457672,-2.555605449533364
46.086206999999995,,6.67904098606437e-05,46.506,0.47600001096725464,-2.562152371415415
46.551724,,6.531179403254617e-05,46.967,0.45899999141693115,-2.5992253835234784
47.017241,,6.353945877596278e-05,47.436,0.4659999907016754,-2.584034854597812
47.482759,,6.146720500940415e-05,47.9,0.46399998664855957,-2.5884741866250773
47.948276,,5.908964249291853e-05,48.362,0.4740000069141388,-2.5667886014770587
48.413793,,5.6402244157273256e-05,48.828,0.4699999988079071,-2.5756194263788963
48.879310000000004,,5.3401399693085696e-05,49.292,0.47999998927116394,-2.5539603582690917
49.344828,,5.008446817501692e-05,49.758,0.47699999809265137,-2.5606305038252466
49.810345,,4.644982948968443e-05,50.223,0.46000000834465027,-2.5978045076682483
50.275862,,4.2496934330025845e-05,50.688,0.46000000834465027,-2.597940649743289
50.741379,,3.822635251349679e-05,51.155,0.46000000834465027,-2.598072020678119
51.206897,,3.36398193767561e-05,51.621,0.43700000643730164,-2.6483039252507696
51.672414,,2.874027999542255e-05,52.082,0.46299999952316284,-2.591770216772262
52.137931,,2.3531930974122045e-05,52.551,0.4779999852180481,-2.559185625938781
52.603448,,1.8020259549423966e-05,53.014,0.46399998664855957,-2.589762124617054
53.068966,,1.2212079746429996e-05,53.477,0.46399998664855957,-2.5898158569390004
53.534483,,6.115565328768844e-06,53.94,0.46299999952316284,-2.5920253043749018
54.0,,2.5972071839718075e-07,54.41,0.46399998664855957,-2.5898538538652374
54.465517,,6.902800431995405e-06,54.876,0.47200000286102295,-2.572407958187316
54.931034,,1.380125909925076e-05,55.339,0.46399998664855957,-2.5897972609765665
55.396552,,2.094122772577882e-05,55.804,0.4659999907016754,-2.585378363063905
55.862069,,2.8307369995211083e-05,56.266,0.4659999907016754,-2.5852973454949253
56.327586,,3.588287396731874e-05,56.731,0.4519999921321869,-2.6157009729604104
56.793102999999995,,4.3649448755866975e-05,57.196,0.46399998664855957,-2.5894468470454655
57.258621000000005,,5.158732642061941e-05,57.661,0.47699999809265137,-2.561004338971115
57.724138,,5.9675269300002214e-05,58.126,0.4690000116825104,-2.5783071003659495
58.189655,,6.78905830019112e-05,58.591,0.45100000500679016,-2.6173945082600567
58.655172,,7.620913525998828e-05,59.055,0.4440000057220459,-2.63251992518051
59.120689999999996,,8.460538085139642e-05,59.524,0.47200000286102295,-2.5713998121801884
59.586207,,9.305239275967403e-05,59.985,0.4560000002384186,-2.6061504893741896
60.051724,,0.00010152189975265158,60.455,0.5730000138282776,-2.35115218852421
60.517241,,0.00010998433053066102,60.918,0.46000000834465027,-2.597255653816414
60.982758999999994,,0.00011840886458437108,61.381,0.46399998664855957,-2.5884741957134696
61.448276,,0.00012676348988454483,61.846,0.4880000054836273,-2.5361403111399348
61.913793,,0.0001350150675078544,62.311,0.3919999897480011,-2.7452673408838155
62.379310000000004,,0.0001431294032836174,62.776,0.47600001096725464,-2.5622626200153964
62.84482800000001,,0.00015107132652596644,63.24,0.49000000953674316,-2.531786796468165
63.310345000000005,,0.00015880477589455482,63.706,0.46700000762939453,-2.5819417737852124
63.775862000000004,,0.00016629289240447273,64.174,0.46700000762939453,-2.58200758601821
64.241379,,0.00017349811958262826,64.639,0.48899999260902405,-2.534160714405588
64.706897,,0.00018038231074347659,65.104,0.4650000035762787,-2.5865460742045467
65.172414,,0.00018690684333171683,65.57,0.47200000286102295,-2.571404906831417
65.637931,,0.0001930327402534891,66.033,0.47600001096725464,-2.5628077998048737
66.103448,,0.00019872079809074399,66.495,0.47999998927116394,-2.55421473959371
66.56896599999999,,0.00020393172206584328,66.966,0.47200000286102295,-2.571765406804296
67.03448300000001,,0.00020862626759514537,67.429,0.5820000171661377,-2.3322297860652594
67.5,,0.00021276538824147628,67.9,0.46399998664855957,-2.5894152631825773
67.965517,,0.00021631038984615232,68.355,0.4729999899864197,-2.5699002561458286
68.431034,,0.00021922309059160203,68.82,0.4620000123977661,-2.5939456350706247
68.896552,,0.00022146598671548442,69.287,0.45899999141693115,-2.600547378797594
69.362069,,0.00022300242356659432,69.752,0.49000000953674316,-2.533058327660965
69.827586,,0.000223796771662367,70.219,0.46000000834465027,-2.598448412058449
70.293103,,0.00022381460737795397,70.685,0.4830000102519989,-2.5483509218518385
70.75862099999999,,0.000223022897867102,71.152,0.4650000035762787,-2.587558772655381
71.22413800000001,,0.0002213901897841632,71.61,0.46399998664855957,-2.5897109801975273
71.689655,,0.00021888680134486054,72.078,0.45399999618530273,-2.6114538595121655
72.15517200000001,,0.00021548501723406963,72.54,0.46299999952316284,-2.591786963094009
72.62069,,0.0002111592858438822,73.011,0.4749999940395355,-2.56557016778894
73.086207,,0.00020588641830001926,73.473,0.4699999988079071,-2.57637813551547
73.551724,,0.00019964578870173508,73.937,0.45500001311302185,-2.608963154096221
74.017241,,0.00019241953496337377,74.407,0.4659999907016754,-2.5848972422633554
74.482759,,0.00018419275962341253,74.865,0.4729999899864197,-2.5695424738354857
74.94827599999999,,0.0001749537299868113,75.335,0.46299999952316284,-2.591224088851659
75.41379300000001,,0.00016469407695673263,75.801,0.46299999952316284,-2.59112189566441
75.87931,,0.00015340899185118753,76.266,0.4659999907016754,-2.584489514488978
76.344828,,0.00014109742042239825,76.725,0.46399998664855957,-2.588758783469155
76.810345,,0.0001277622533130052,77.197,0.4620000123977661,-2.593038934854193
77.275862,,0.0001134105123139418,77.655,0.4740000069141388,-2.5668310336738327
77.741379,,9.80535318213343e-05,78.122,0.46299999952316284,-2.5907465708062007
78.206897,,8.170713461327452e-05,78.587,0.46399998664855957,-2.588534307738647
78.67241399999999,,6.439180075083719e-05,79.055,0.4830000102519989,-2.5471229077648383
79.137931,,4.613282869981326e-05,79.518,0.4490000009536743,-2.6211968803976964
79.603448,,2.6960488634642828e-05,79.981,0.46000000834465027,-2.597249075504144
80.068966,,6.910167962199646e-06,80.451,0.4729999899864197,-2.5689608423005232
80.53448300000001,,1.3977492622257341e-05,80.911,0.47699999809265137,-2.5602953100945114
81.0,,3.565647576892543e-05,81.38,0.4560000002384186,-2.6061093950031777
81.465517,,5.8075277690297456e-05,81.846,0.47699999809265137,-2.560432009367656
81.931034,,8.117680783033238e-05,82.31,0.46399998664855957,-2.588838133687483
82.396552,,0.00010489829461823597,82.776,0.4749999940395355,-2.564963470039122
82.86206899999999,,0.000129171204853139,83.24,0.47200000286102295,-2.5715939803522767
83.327586,,0.00015392119137119825,83.706,0.47999998927116394,-2.5542605252560153
83.79310299999999,,0.00017906806683337288,84.166,0.46299999952316284,-2.591391742715399
84.258621,,0.00020452577340385555,84.632,0.4729999899864197,-2.5696956383840956
84.72413800000001,,0.00023020233021803685,85.097,0.4650000035762787,-2.587208935512315
85.189655,,0.0002559998078683936,85.563,0.46399998664855957,-2.589463355578198
85.65517200000001,,0.00028181440783623654,86.025,0.47200000286102295,-2.572099454461516
86.12069,,0.0003075366091683043,86.496,0.4659999907016754,-2.585224389094273
86.586207,,0.0003330511933645451,86.959,0.4429999887943268,-2.6353731426765865
87.051724,,0.0003582370753988984,87.421,0.4699999988079071,-2.576575657116329
87.517241,,0.00038296727316969764,87.887,0.46399998664855957,-2.5896587644081834
87.98275899999999,,0.0004071094296475244,88.351,0.47200000286102295,-2.572225151926899
88.448276,,0.000430526535768116,88.817,0.4690000116825104,-2.5787411735267187
88.913793,,0.0004530767222409169,89.284,0.46399998664855957,-2.5895997116024185
89.37931,,0.0004746119417625103,89.75,0.4519999921321869,-2.61569536431767
89.844828,,0.0004949777270709425,90.215,0.4620000123977661,-2.5938490738408886
90.310345,,0.0005140161355739152,90.68,0.4749999940395355,-2.565456576371654
90.775862,,0.0005315690706827535,91.14,0.46700000762939453,-2.5828067254610247
91.241379,,0.0005474753983355766,91.606,0.4620000123977661,-2.593614375311694
91.706897,,0.0005615623864378489,92.07,0.46700000762939453,-2.582631603927921
92.17241399999999,,0.0005736454212287185,92.54,0.4749999940395355,-2.5651111914772557
92.63793100000001,,0.0005835460460297197,93.003,0.47600001096725464,-2.562841661686209
93.103448,,0.0005911076420438638,93.466,0.47999998927116394,-2.554038942893274
93.568966,,0.0005961715980430031,93.937,0.45899999141693115,-2.5997077826452095
94.03448300000001,,0.0005985268553954972,94.399,0.4699999988079071,-2.5756680668650915
94.5,,0.0005979195031059584,94.865,0.4729999899864197,-2.569067856183419
94.965517,,0.0005941650634015712,95.328,0.47999998927116394,-2.5537646934763
95.431034,,0.0005872192554680705,95.794,0.4659999907016754,-2.5842262915236853
95.896552,,0.000577004519450464,96.259,0.45100000500679016,-2.616881488220954
96.36206899999999,,0.000563127130262231,96.725,0.46299999952316284,-2.5907295215742936
96.827586,,0.0005450092907338407,97.189,0.4569999873638153,-2.603809786282986
97.293103,,0.0005225772587353138,97.654,0.4569999873638153,-2.6038344326461424
97.758621,,0.0004965397468595819,98.115,0.47600001096725464,-2.562480041925026
98.224138,,0.0004671961707956519,98.58,0.46399998664855957,-2.588677586658166
98.689655,,0.0004329147043340209,99.052,0.4790000021457672,-2.55606348720261
99.155172,,0.0003913699704584386,99.514,0.48899999260902405,-2.5343522620728165
99.62069,,0.0003436610497570449,99.977,0.4569999873638153,-2.6041516920376444
100.086207,,0.0002950526008904995,100.44,0.4569999873638153,-2.6042404347703108
100.551724,,0.00024709963271853596,100.911,0.4779999852180481,-2.558581369215649
101.017241,,0.00018984285546556876,101.373,0.4830000102519989,-2.547780968959917
101.482759,,0.00011177772104473896,101.839,0.4560000002384186,-2.6066950769404325
101.948276,,2.3856172111213505e-05,102.306,0.4830000102519989,-2.5479576222031053
102.413793,,4.186516836200439e-05,102.765,0.47699999809265137,-2.561108385922764
102.87931,,8.26555886068039e-05,103.236,0.45899999141693115,-2.6003935408890557
103.344828,,0.00016255421176278133,103.695,0.46399998664855957,-2.589559143054191
103.810345,,0.0003385261477329189,104.167,0.46799999475479126,-2.580891187031962
104.275862,,0.000524543722063968,104.625,0.46700000762939453,-2.5831027469460888
104.741379,,0.0005351000007337099,105.1,0.46399998664855957,-2.589657032622636
105.206897,,0.0004001009205781147,105.558,0.4650000035762787,-2.5874815562372477
105.672414,,0.0005285308044896938,106.022,0.46299999952316284,-2.591826905637095
106.13793100000001,,0.0011909246330177193,106.491,0.4779999852180481,-2.55912011701841
106.603448,,0.0017402017754620301,106.955,0.47600001096725464,-2.5634353558175267
107.068966,,0.0009235286328031487,107.418,0.46399998664855957,-2.589523408850869
107.534483,,0.001463258357996729,107.883,0.4659999907016754,-2.585098488203494
108.0,,0.003667171209336109,108.346,0.44999998807907104,-2.619879743297633
108.46551699999999,,0.0035732408672633697,108.812,0.4620000123977661,-2.593651677103474
108.931034,,0.0010925332925144418,109.277,0.46700000762939453,-2.5826691766539924
109.396552,,0.0017458723502419618,109.743,0.46399998664855957,-2.5891129254739766
109.862069,,0.0029965351929714676,110.208,0.4490000009536743,-2.6217002132485208
110.32758600000001,,0.0024407346736249926,110.674,0.46399998664855957,-2.588930758376436
110.793103,,0.0010632443781385514,111.14,0.46399998664855957,-2.5888458323721966
111.258621,,0.0003318536153467808,111.606,0.46700000762939453,-2.582231697872575
111.724138,,0.0015261144109729099,112.067,0.46700000762939453,-2.58216235851549
112.189655,,0.0023720546304188835,112.53,0.47200000286102295,-2.571210344132135
112.655172,,0.0025807342306034065,113.0,0.45899999141693115,-2.599486292416366
113.12069,,0.002095844427285599,113.462,0.46799999475479126,-2.5798457439523426
113.586207,,0.0013032323419733159,113.926,0.4650000035762787,-2.5863637251988867
114.051724,,0.0006945850991335439,114.395,0.46299999952316284,-2.5907183967325085
114.51724100000001,,0.00042358033561851514,114.861,0.5049999952316284,-2.499227333071186
114.982759,,0.00028344205667722044,115.325,0.4659999907016754,-2.584220683445423
115.448276,,5.308034754365165e-05,115.791,0.48100000619888306,-2.551580618915343
115.913793,,0.00030472025283508877,116.255,0.4580000042915344,-2.601742676761485
116.37931,,0.0008318659965473069,116.721,0.47600001096725464,-2.562592520202143
116.84482799999999,,0.00174565319044929,117.181,0.46399998664855957,-2.5888127285226767
117.310345,,0.0031551145334749995,117.646,0.49000000953674316,-2.5322527113579403
117.77586199999999,,0.004634626246114592,118.111,0.4699999988079071,-2.5759166614843036
118.241379,,0.005464521280620417,118.577,0.46399998664855957,-2.5890836080881785
118.70689700000001,,0.005549287035830132,119.04,0.4620000123977661,-2.5935381332211556
119.172414,,0.005673803046087534,119.51,0.4620000123977661,-2.593635285226647
119.63793100000001,,0.006248660630708783,119.97,0.47699999809265137,-2.561049719581498
120.103448,,0.00618888602096199,120.44,0.45899999141693115,-2.6003537142437443
120.568966,,0.004129873771481987,120.903,0.4620000123977661,-2.593897996967073
121.034483,,0.0008167007263944299,121.366,0.46700000762939453,-2.583074803288451
121.5,,0.0009195115472693971,121.831,0.46399998664855957,-2.589668290428304
121.96551699999999,,0.000811838863628059,122.296,0.46399998664855957,-2.5897114213011565
122.431034,,0.004598481560008204,122.762,0.4259999990463257,-2.6725281166028156
122.896552,,0.006918881778394272,123.229,0.47200000286102295,-2.572322648612258
123.362069,,0.0055097479718295515,123.695,0.4819999933242798,-2.5505309810883343
123.827586,,0.0013978588104912519,124.159,0.4650000035762787,-2.587543995203304
124.293103,,0.0023457369364287633,124.625,0.46399998664855957,-2.589680602895207
124.758621,,0.0037933620898610494,125.085,0.4699999988079071,-2.576549556684086
125.22413800000001,,0.003727035640280681,125.555,0.4779999852180481,-2.5590451628512763
125.68965500000002,,0.003753842532543121,126.018,0.47600001096725464,-2.5633124956588564
126.15517200000001,,0.0037290878524256026,126.481,0.45399999618530273,-2.6111408418106414
126.62069000000001,,0.0023105794180155056,126.952,0.4790000021457672,-2.5565636558145775
127.086207,,0.00029450332789046066,127.414,0.4650000035762787,-2.5869475789496112
127.55172400000001,,0.0018380620789908392,127.88,0.46299999952316284,-2.59118486123978
128.017241,,0.0007952082104946362,128.343,0.45899999141693115,-2.5997804222330245
128.48275900000002,,0.0016841471222957005,128.808,0.4830000102519989,-2.5473779147711273
128.948276,,0.0034458259096655543,129.274,0.46399998664855957,-2.588664529566227
129.413793,,0.004015950716884223,129.739,0.46700000762939453,-2.5820313703147537
129.87931,,0.004556978491530439,130.203,0.46399998664855957,-2.5884841572477613
130.344828,,0.005705925928172487,130.669,0.45899999141693115,-2.599311001686557
130.81034499999998,,0.006655231715781494,131.133,0.46399998664855957,-2.5883706004988456
131.275862,,0.00639177234073214,131.599,0.4560000002384186,-2.6057736126696485
131.741379,,0.004922260153112994,132.066,0.49000000953674316,-2.531695086517502
132.206897,,0.0029713977496527723,132.529,0.4729999899864197,-2.568749174515176
132.67241399999997,,0.0010887427856930644,132.992,0.453000009059906,-2.6123608676492283
133.13793099999998,,0.0005296990097007416,133.462,0.46399998664855957,-2.588456424948918
133.60344800000001,,0.001722173252845113,133.922,0.4449999928474426,-2.6299322413439494
134.06896600000002,,0.0023349983599950347,134.385,0.4860000014305115,-2.540707642645099
134.53448300000002,,0.0023709128553983834,134.851,0.4569999873638153,-2.604003809579607
135.0,,0.0018375744975510934,135.322,0.45399999618530273,-2.6106675528864978
135.465517,,0.0005926330883487906,135.78,0.31200000643730164,-2.9201757726229998
135.931034,,0.0013496080259083616,136.245,0.48100000619888306,-2.5521344287833365
136.396552,,0.003446156927433751,136.71,0.46000000834465027,-2.598038836831616
136.862069,,0.004776328795186131,137.177,0.4259999990463257,-2.6722615074039897
137.327586,,0.0045568340991286255,137.643,0.46399998664855957,-2.589613369852277
137.793103,,0.0026980808249803447,138.107,0.4790000021457672,-2.5570603036571335
138.258621,,0.00027369223953651895,138.573,0.46299999952316284,-2.5920263349562864
138.724138,,0.0007922396740480984,139.037,0.46299999952316284,-2.5921114959187492
139.189655,,0.0006452632331664325,139.507,0.47600001096725464,-2.563848726555575
139.655172,,0.003472360100193053,139.97,0.46399998664855957,-2.59002427947358
140.12069,,0.00513556187049714,140.433,0.4880000054836273,-2.5377387592499385
140.586207,,0.004157405783337147,140.903,0.45899999141693115,-2.6008915577381715
141.05172399999998,,0.001412665458953803,141.366,0.4830000102519989,-2.548546457668031
141.51724099999998,,0.0011502852586462913,141.831,0.47600001096725464,-2.5637114063475686
141.982759,,0.002678357478771457,142.296,0.46799999475479126,-2.581029350135196
142.44827600000002,,0.0042503700243258355,142.761,0.46299999952316284,-2.5917894660851437
142.913793,,0.007738299021529926,143.226,0.4740000069141388,-2.5676735586881207
143.37931,,0.013748090890405932,143.691,0.46299999952316284,-2.5914749060299758
143.844828,,0.02056763633687453,144.156,0.4620000123977661,-2.5934820294452345
144.310345,,0.02539044494487635,144.622,0.4880000054836273,-2.5366631796413346
144.77586200000002,,0.026753068740668823,145.085,0.4790000021457672,-2.5560993540468346
145.241379,,0.02548468687690238,145.548,0.4569999873638153,-2.6038661471595956
145.706897,,0.023157127972029564,146.011,0.46799999475479126,-2.579751796326771
146.172414,,0.020225483289951888,146.481,0.42899999022483826,-2.664589965763993
146.637931,,0.016241098795541926,146.944,0.46399998664855957,-2.5882330689265722
147.103448,,0.011418237426846745,147.407,0.46399998664855957,-2.5881568318381594
147.568966,,0.0070415751450660985,147.873,0.46399998664855957,-2.5881105378510783
148.034483,,0.004144216779062485,148.335,0.4650000035762787,-2.585917191329679
148.5,,0.0023735618992531,148.801,0.46399998664855957,-2.5881135387796843
148.965517,,0.00043089025040800235,149.266,0.4860000014305115,-2.540232490992267
149.43103399999998,,0.0027544607711199273,149.732,0.43700000643730164,-2.6470659510821553
149.89655199999999,,0.007462421686204338,150.2,0.4560000002384186,-2.605780437956131
150.362069,,0.013323091619736438,150.666,0.4690000116825104,-2.5775926179103688
150.82758600000003,,0.01962405778931074,151.126,0.4650000035762787,-2.5864627986113606
151.293103,,0.02564595796585088,151.592,0.47999998927116394,-2.5539543561432967
151.758621,,0.030977816458289346,152.055,0.4790000021457672,-2.556314100705811
152.224138,,0.03555691833791638,152.525,0.46399998664855957,-2.589179189893749
152.68965500000002,,0.03948760546260827,152.985,0.4690000116825104,-2.578470031003405
153.155172,,0.04294997342257854,153.455,0.46399998664855957,-2.589540635574686
153.62069,,0.04608219575872928,153.918,0.45399999618530273,-2.611492181038837
154.086207,,0.048584877422489695,154.381,0.46399998664855957,-2.589853502897771
154.551724,,0.04943669030249169,154.846,0.46399998664855957,-2.5899789953632917
155.017241,,0.047259325548474646,155.31,0.46700000762939453,-2.5835417816261854
155.482759,,0.04107312438027775,155.776,0.4699999988079071,-2.577074400016731
155.948276,,0.030719584594559826,156.241,0.5149999856948853,-2.4790701082237905
156.413793,,0.01673622623477136,156.707,0.47200000286102295,-2.572750973001148
156.87931,,0.00017007106704880752,157.173,0.4830000102519989,-2.5487493135977446
157.34482799999998,,0.017218429177365577,157.639,0.46399998664855957,-2.590073488423624
157.81034499999998,,0.03273609939914501,158.104,0.47200000286102295,-2.5725428129112893
158.275862,,0.04332973717706736,158.57,0.47600001096725464,-2.5636986269155435
158.741379,,0.04685481800702066,159.033,0.4620000123977661,-2.5940460175924938
159.20689700000003,,0.04295968564343333,159.496,0.4569999873638153,-2.6047668645824604
159.672414,,0.03299889401823009,159.966,0.46700000762939453,-2.5827948050643195
160.137931,,0.019379873195627204,160.429,0.4659999907016754,-2.584780481966567
160.60344800000001,,0.004740682883784985,160.9,0.4779999852180481,-2.558441927104368
161.06896600000002,,0.008842230941478629,161.355,0.45500001311302185,-2.6083604276344015
161.534483,,0.020008454166501388,161.821,0.46799999475479126,-2.579858508282079
162.0,,0.027341347093240445,162.292,0.4659999907016754,-2.5840528530409723
162.465517,,0.02877026649491922,162.75,0.4560000002384186,-2.6056981478494365
162.931034,,0.02244560858728908,163.218,0.4860000014305115,-2.5402236579984363
163.396552,,0.008583486599434413,163.684,0.4729999899864197,-2.5684603036942604
163.862069,,0.009593137114696308,164.148,0.4690000116825104,-2.577121045438404
164.327586,,0.02694295526245573,164.614,0.45500001311302185,-2.6076028226135146
164.793103,,0.03892818068958088,165.082,0.46799999475479126,-2.5792967141501384
165.258621,,0.04384271822980606,165.544,0.47999998927116394,-2.5532039907680866
165.72413799999998,,0.043117764053606185,166.007,0.46399998664855957,-2.5881463219306102
166.189655,,0.03953151625766274,166.477,0.4659999907016754,-2.5839036461132605
166.655172,,0.03495721199344113,166.941,0.46399998664855957,-2.5884030374962603
167.12069,,0.02957821287650215,167.403,0.4490000009536743,-2.6212482086938556
167.58620699999997,,0.022907740400319974,167.869,0.46799999475479126,-2.580037811245528
168.051724,,0.015217597496540024,168.332,0.4620000123977661,-2.5933059496998796
168.517241,,0.00783410393825485,168.797,0.45100000500679016,-2.617473609029526
168.98275900000002,,0.0022094122504080706,169.262,0.47600001096725464,-2.563209698679962
169.44827600000002,,0.0009329175392146345,169.728,0.4699999988079071,-2.576476695220345
169.913793,,0.0014236852158583306,170.192,0.4650000035762787,-2.587551334699625
170.37931,,0.0009462714823239492,170.658,0.5239999890327454,-2.4591721521688172
170.844828,,0.0063008236270951055,171.123,0.47999998927116394,-2.5551670285650263
171.310345,,0.013920270314231788,171.588,0.46399998664855957,-2.5901295142353775
171.775862,,0.02202794324820032,172.051,0.4699999988079071,-2.5771294828929063
172.241379,,0.028592467993975187,172.521,0.503000020980835,-2.505270882147231
172.706897,,0.03218130974189251,172.985,0.4580000042915344,-2.603310326432187
173.172414,,0.031991921557226737,173.447,0.46399998664855957,-2.5902029581787183
173.637931,,0.027634881833091582,173.915,0.47600001096725464,-2.563989441405202
174.103448,,0.01955149458614321,174.378,0.45500001311302185,-2.6096392819347654
174.568966,,0.009536797631821413,174.844,0.47699999809265137,-2.5615784929372007
175.034483,,0.0001408892873161327,175.311,0.46299999952316284,-2.591924232891075
175.5,,0.006975106466345772,175.776,0.48100000619888306,-2.552533037965849
175.96551699999998,,0.012167849582020255,176.241,0.47200000286102295,-2.5719505220080094
176.43103399999998,,0.017171627711643905,176.707,0.4729999899864197,-2.569572637479118
176.896552,,0.02323434013381376,177.166,0.46700000762939453,-2.5824428591490194
177.36206900000002,,0.02991211052723472,177.632,0.45399999618530273,-2.6105681230281665
177.827586,,0.03570341692070898,178.096,0.46399998664855957,-2.5885955017771867
178.293103,,0.03966614097550284,178.562,0.45500001311302185,-2.6080340617642728
178.758621,,0.042219926950978634,179.029,0.46700000762939453,-2.5817431855999264
179.224138,,0.04453550501122885,179.492,0.47600001096725464,-2.56201448078904
179.68965500000002,,0.047521148738294855,179.955,0.47200000286102295,-2.5706377307513684
180.155172,,0.05143310540692456,180.425,0.47999998927116394,-2.553149339592137
180.62069,,0.056043768936268626,180.891,0.46399998664855957,-2.5879825422339673
181.086207,,0.06091855662326668,181.356,0.45899999141693115,-2.5988859345878947
181.551724,,0.06565274056545546,181.815,0.460999995470047,-2.5945742399012275
182.01724099999998,,0.06964495495833624,182.282,0.4790000021457672,-2.5554378262480943
182.482759,,0.07096095726053424,182.747,0.46299999952316284,-2.590406247257463
182.948276,,0.06544900647635638,183.214,0.46799999475479126,-2.5796504688278046
183.413793,,0.04828274303348054,183.68,0.4699999988079071,-2.5754537904119794
183.87931,,0.017707775153554015,184.144,0.45399999618530273,-2.6104910589881762
184.34482799999998,,0.022397187501453402,184.609,0.4620000123977661,-2.593253733219785
184.81034499999998,,0.06368903169661104,185.07,0.46399998664855957,-2.5890953370342036
185.27586200000002,,0.0970245344635101,185.54,0.49000000953674316,-2.532649211298909
185.74137900000002,,0.11581706272234225,186.0,0.4650000035762787,-2.587307414166038
186.206897,,0.11788291854358406,186.47,0.4699999988079071,-2.576593626820827
186.672414,,0.10580121402883798,186.933,0.46799999475479126,-2.581112579932613
187.137931,,0.08546041878827612,187.396,0.4659999907016754,-2.585608705852407
187.60344800000001,,0.0629671998404238,187.862,0.4729999899864197,-2.5704698142100444
188.06896600000002,,0.041965269443248396,188.325,0.4729999899864197,-2.570550610861728
188.534483,,0.023582602101283563,188.791,0.45899999141693115,-2.6010992838871596
189.0,,0.008338901734321233,189.255,0.46700000762939453,-2.5836833657698146
189.465517,,0.0029796948224292577,189.721,0.47600001096725464,-2.564053974322393
189.931034,,0.010533180036385845,190.188,0.47600001096725464,-2.563997815268353
190.39655199999999,,0.01613408949266074,190.654,0.46000000834465027,-2.598767377147336
190.862069,,0.021359312613740508,191.118,0.47200000286102295,-2.572505311476771
191.327586,,0.025336983267743682,191.584,0.4699999988079071,-2.576718525571036
191.793103,,0.0257387492574833,192.047,0.47200000286102295,-2.572195696239318
192.25862099999998,,0.022127980044560194,192.517,0.4659999907016754,-2.5850859765995686
192.72413799999998,,0.017234635814142092,192.978,0.44999998807907104,-2.619752829288929
193.189655,,0.014373060548084017,193.44,0.43799999356269836,-2.645702126068767
193.655172,,0.01429016290035702,193.911,0.45500001311302185,-2.608474121459468
194.12069000000002,,0.015199231353843684,194.373,0.4699999988079071,-2.575612254458846
194.586207,,0.015380033397732674,194.839,0.4699999988079071,-2.575443570699535
195.051724,,0.014759203875303226,195.304,0.47600001096725464,-2.5622212073422617
195.517241,,0.013985714578042173,195.769,0.46700000762939453,-2.5817013984726387
195.98275900000002,,0.013077045393584244,196.237,0.4659999907016754,-2.5837793466089494
196.448276,,0.011699392569321216,196.695,0.46700000762939453,-2.5815300943484294
196.913793,,0.010230787557641613,197.162,0.4650000035762787,-2.585849152903454
197.37931,,0.009558364755186982,197.628,0.46000000834465027,-2.596737731030073
197.844828,,0.009672730153548723,198.093,0.43799999356269836,-2.64469769375419
198.310345,,0.009187558391419626,198.559,0.4519999921321869,-2.614260208413531
198.775862,,0.0067895548056847955,199.022,0.46299999952316284,-2.590390194045559
199.241379,,0.002932605598436102,199.485,0.46399998664855957,-2.588334472463171
199.706897,,0.00035937997679785875,199.955,0.44200000166893005,-2.636411590547463
200.172414,,0.001448113620524655,200.418,0.4620000123977661,-2.593005147750445
200.63793099999998,,0.0006481405037789589,200.883,0.4659999907016754,-2.584471132705856
201.103448,,0.0002998903452922736,201.346,0.45899999141693115,-2.5999100452196466
201.568966,,0.0002223501468858824,201.812,0.46399998664855957,-2.5892071453297523
202.034483,,0.00038409348325760105,202.277,0.4650000035762787,-2.587214689732911
202.5,,0.0003966735510085703,202.743,0.47999998927116394,-2.5547108574206763
202.965517,,0.00027714043616710996,203.208,0.44999998807907104,-2.6202303636541013
203.431034,,0.0006377178804162576,203.674,0.4779999852180481,-2.5593677483646435
203.896552,,2.5944111891260818e-05,204.14,0.47600001096725464,-2.563839362855293
204.36206900000002,,0.0012586360454171905,204.606,0.45399999618530273,-2.6118553872400296
204.827586,,0.0019366929772224228,205.066,0.46700000762939453,-2.583588075338226
205.293103,,0.0012622568009625558,205.537,0.46299999952316284,-2.592325747714105
205.758621,,0.0006462765860065843,205.999,0.47600001096725464,-2.5639933808659814
206.224138,,0.00266751459863506,206.462,0.43799999356269836,-2.6467400400971064
206.689655,,0.0032201959055208765,206.93,0.46399998664855957,-2.5900231822095905
207.155172,,0.0015668971913313514,207.392,0.4830000102519989,-2.5485286652500414
207.62069,,0.00124533544155963,207.858,0.48100000619888306,-2.552759833467028
208.086207,,0.003365509422752495,208.324,0.46799999475479126,-2.5809342238106536
208.551724,,0.0041090759310254766,208.79,0.46299999952316284,-2.5916628709755942
209.01724099999998,,0.004122275456737053,209.255,0.45899999141693115,-2.6002021952824887
209.482759,,0.003658753374155844,209.72,0.4880000054836273,-2.5368406563891135
209.948276,,0.0020329825905557567,210.185,0.43799999356269836,-2.645592749307798
210.413793,,0.0007896504492457446,210.65,0.47200000286102295,-2.5713449474604206
210.87930999999998,,0.0033048057219926025,211.115,0.49000000953674316,-2.5319670069657896
211.344828,,0.0040540281421813755,211.58,0.39500001072883606,-2.7387934373433254
211.810345,,0.0034568151622377534,212.044,0.46399998664855957,-2.588344847606742
212.27586200000002,,0.0031897466117912694,212.506,0.46399998664855957,-2.5882492527102037
212.741379,,0.003923322228525266,212.974,0.47600001096725464,-2.562037312785139
213.206897,,0.004491297492291576,213.436,0.46299999952316284,-2.5903208549813406
213.672414,,0.0035979285205649312,213.904,0.4690000116825104,-2.577240294280217
214.137931,,0.001775953223320805,214.366,0.46399998664855957,-2.5881553643807793
214.60344800000001,,0.0009754849964174254,214.831,0.47600001096725464,-2.562062612383877
215.068966,,0.0022339622208943487,215.296,0.4690000116825104,-2.5773915068144486
215.534483,,0.004332227073172987,215.762,0.4690000116825104,-2.577494491407211
216.0,,0.005100826713165056,216.225,0.47999998927116394,-2.5536535414928867
216.465517,,0.0037437341125706844,216.691,0.4749999940395355,-2.5646877403994273
216.93103399999998,,0.0013476289995325472,217.156,0.46399998664855957,-2.588806375257471
217.39655199999999,,0.000888034727060541,217.622,0.4729999899864197,-2.5693600188738817
217.862069,,0.0033110469144939964,218.085,0.4519999921321869,-2.6152763785989106
218.327586,,0.007284867538593513,218.555,0.45899999141693115,-2.6001891778703783
218.793103,,0.01324556204108639,219.018,0.4690000116825104,-2.578559491523832
219.25862099999998,,0.019711422524518202,219.481,0.46700000762939453,-2.583061862690751
219.724138,,0.024216932214666972,219.952,0.48100000619888306,-2.552689250338033
220.18965500000002,,0.02504460140325883,220.414,0.4830000102519989,-2.548439429364774
220.65517200000002,,0.022279086711868953,220.88,0.46399998664855957,-2.589917162299663
221.12069,,0.017657802194654532,221.343,0.4830000102519989,-2.5485799227504113
221.586207,,0.013420649916504178,221.808,0.4620000123977661,-2.5943610069237746
222.051724,,0.010818738525795277,222.273,0.4909999966621399,-2.5311812144065327
222.517241,,0.009406293410870115,222.739,0.4650000035762787,-2.5877986731161977
222.98275900000002,,0.007862530034728438,223.204,0.46299999952316284,-2.5921017808730884
223.448276,,0.005614583096378469,223.67,0.47999998927116394,-2.554985987799537
223.913793,,0.0035569431421554397,224.136,0.45500001311302185,-2.6093513899418697
224.37931,,0.0030628687194756816,224.602,0.460999995470047,-2.596160626533172
224.844828,,0.004366997637277049,225.063,0.46299999952316284,-2.591670366151744
225.31034499999998,,0.006101221653623913,225.525,0.46399998664855957,-2.589348791800086
225.775862,,0.006444930843000796,225.993,0.49000000953674316,-2.5325548516395253
226.241379,,0.004610280443038771,226.455,0.47699999809265137,-2.560726149827552
226.706897,,0.0012770524189316928,226.926,0.45500001311302185,-2.60850817747976
227.172414,,0.00212718262180653,227.388,0.47099998593330383,-2.5735098990237044
227.63793099999998,,0.004516803251088573,227.854,0.45100000500679016,-2.616955603173083
228.103448,,0.005813898262940221,228.317,0.47999998927116394,-2.5536639858825834
228.56896600000002,,0.006704983596121989,228.783,0.4620000123977661,-2.5927880772620195
229.03448300000002,,0.007714949390539448,229.247,0.45899999141693115,-2.59925459605973
229.5,,0.00862239352203047,229.713,0.46399998664855957,-2.588316196677011
229.965517,,0.008860953306131552,230.178,0.4690000116825104,-2.577402917281643
230.431034,,0.008272781948934977,230.644,0.46399998664855957,-2.588301534993305
230.896552,,0.0073255391131320045,231.111,0.48899999260902405,-2.5338650396625417
231.362069,,0.006815822121359601,231.576,0.4269999861717224,-2.6689945719890598
231.827586,,0.00743012964821889,232.037,0.47699999809265137,-2.5601378363917084
232.293103,,0.009192305130336672,232.5,0.4860000014305115,-2.540624705747356
232.758621,,0.01111556136714799,232.97,0.48399999737739563,-2.5450912723749606
233.224138,,0.011810429575873352,233.432,0.45899999141693115,-2.599678118312527
233.689655,,0.01084188309207145,233.9,0.4729999899864197,-2.569305836604174
234.155172,,0.009249610329973467,234.362,0.4790000021457672,-2.5563667054215715
234.62069,,0.008330091927876725,234.828,0.4690000116825104,-2.57828554470804
235.086207,,0.008109916851253512,235.293,0.46399998664855957,-2.589307116168978
235.55172399999998,,0.0075503420065803,235.759,0.4819999933242798,-2.5502117818961496
236.01724099999998,,0.006161523671578221,236.225,0.46700000762939453,-2.583000105189116
236.482759,,0.004665396493332837,236.691,0.46700000762939453,-2.5830940648677756
236.94827600000002,,0.00382428302395707,237.151,0.4690000116825104,-2.578813668935525
237.413793,,0.0033575101152251933,237.617,0.46799999475479126,-2.5810500808186116
237.87931,,0.002545164492541702,238.085,0.4569999873638153,-2.60505251408582
238.344828,,0.0013714377328830779,238.548,0.46399998664855957,-2.589818259807275
238.810345,,0.0004938136383681709,239.011,0.46399998664855957,-2.589813303846537
239.27586200000002,,0.00039257600351603816,239.481,0.45899999141693115,-2.600680732599884
239.741379,,0.0009916262836460834,239.944,0.46399998664855957,-2.5897419764827205
240.206897,,0.0019164247779819453,240.407,0.460999995470047,-2.5962142468065124
240.672414,,0.002794845885653445,240.872,0.4690000116825104,-2.578705218095545
241.137931,,0.003382101911857793,241.335,0.47999998927116394,-2.554646315916782
241.603448,,0.003598577689451068,241.801,0.45500001311302185,-2.6090075574467813
242.068966,,0.003470192667438233,242.267,0.4830000102519989,-2.5478928073856166
242.534483,,0.0029647179728106376,242.732,0.49000000953674316,-2.532524813545818
243.0,,0.0019123830612208935,243.2,0.46700000762939453,-2.5825146765933606
243.465517,,0.00023154217982537174,243.666,0.47600001096725464,-2.5627903337105185
243.93103399999998,,0.001709640077016172,244.126,0.47999998927116394,-2.553965430426364
244.39655199999999,,0.0031405717060257513,244.591,0.4880000054836273,-2.5364348454858607
244.862069,,0.0034984228241300326,245.059,0.460999995470047,-2.5951692089286023
245.327586,,0.0029773550742203778,245.521,0.45899999141693115,-2.599453046240065
245.793103,,0.0023860731413349887,245.985,0.4779999852180481,-2.558003332464017
246.258621,,0.002454798110927439,246.455,0.4690000116825104,-2.577574843872629
246.724138,,0.003297731245113629,246.918,0.4659999907016754,-2.584094655516342
247.18965500000002,,0.004553914224867116,247.38,0.47200000286102295,-2.571027118105981
247.655172,,0.005947737237431835,247.846,0.4620000123977661,-2.592838220418051
248.12069,,0.007462982815996812,248.311,0.4729999899864197,-2.568917092350877
248.586207,,0.008911462011283242,248.777,0.47999998927116394,-2.5537279290066066
249.051724,,0.009661732486989157,249.241,0.48500001430511475,-2.5429107787665957
249.517241,,0.009059233384449953,249.707,0.4449999928474426,-2.630145644090349
249.982759,,0.007024095178562827,250.173,0.5260000228881836,-2.4537735648656374
250.44827600000002,,0.004185820342902628,250.639,0.46799999475479126,-2.5802392656187636
250.913793,,0.0015629856979341135,251.104,0.47600001096725464,-2.5629167198398837
251.37931000000003,,4.070721475391171e-05,251.569,0.4830000102519989,-2.5477729781260745
251.844828,,0.0006971250247696734,252.03,0.48500001430511475,-2.5435189448794597
252.31034499999998,,0.0012842500403200416,252.499,0.4620000123977661,-2.593724813485361
252.77586200000002,,0.0022769708446951503,252.962,0.4819999933242798,-2.550240103989011
253.241379,,0.002837352190787341,253.425,0.46399998664855957,-2.589532843261341
253.706897,,0.0019134620888188745,253.891,0.4699999988079071,-2.5765247934551065
254.172414,,0.0001495399762530132,254.357,0.47200000286102295,-2.572216515377766
254.63793099999998,,0.0003817678705426434,254.823,0.46399998664855957,-2.5896785916405247
255.10344800000001,,0.0012946577819983257,255.288,0.45899999141693115,-2.6005880295183603
255.56896600000002,,0.003641437618579014,255.754,0.46299999952316284,-2.5918728985061192
256.03448299999997,,0.00421775967525705,256.218,0.45500001311302185,-2.6092850583098173
256.5,,0.0021780565949872602,256.684,0.46399998664855957,-2.5896444313907665
256.965517,,0.001284472906983077,257.148,0.47200000286102295,-2.5721672175318813
257.431034,,0.004642986135246343,257.613,0.492000013589859,-2.5285316944796117
257.896552,,0.0076056135390786634,258.081,0.47699999809265137,-2.5611356883326155
258.362069,,0.010847544842527163,258.543,0.47699999809265137,-2.5610491260108104
258.827586,,0.014586675407293708,259.011,0.4880000054836273,-2.536989320567015
259.29310300000003,,0.01796876622485456,259.473,0.46399998664855957,-2.589177117911662
259.758621,,0.01993051660396465,259.941,0.4729999899864197,-2.5694678142386067
260.224138,,0.02020092268413479,260.403,0.48399999737739563,-2.5454025435776413
260.689655,,0.019151164461629705,260.869,0.47600001096725464,-2.562735514941671
261.155172,,0.01696738389392985,261.331,0.47699999809265137,-2.560467587002864
261.62068999999997,,0.013480048835925887,261.797,0.4440000057220459,-2.632283985035233
262.086207,,0.008910547271532312,262.262,0.46299999952316284,-2.590824156924802
262.551724,,0.00434011971848382,262.728,0.46000000834465027,-2.597309940328996
263.017241,,0.0009128477635305611,263.193,0.4620000123977661,-2.592918955560895
263.482759,,0.0013621065270940315,263.658,0.46399998664855957,-2.5885453050528655
263.94827599999996,,0.0034681794630404975,264.123,0.4620000123977661,-2.592903645639137
264.413793,,0.0059086736706615815,264.588,0.4749999940395355,-2.564599411497049
264.87931,,0.007825813123925484,265.051,0.4830000102519989,-2.5472040666664038
265.34482799999995,,0.007849695752066718,265.521,0.46299999952316284,-2.590825303580563
265.810345,,0.0056911778669473875,265.981,0.4569999873638153,-2.603958899701295
266.27586199999996,,0.002825513699984354,266.451,0.45899999141693115,-2.5996752724786774
266.741379,,0.0015758124712099773,266.915,0.49000000953674316,-2.5322198919755294
267.206897,,0.003329912563323094,267.377,0.4620000123977661,-2.5933106712208946
267.672414,,0.007517274714633056,267.843,0.47600001096725464,-2.562901476617914
268.137931,,0.012269119397934463,268.307,0.46700000762939453,-2.5826018724367956
268.603448,,0.01594197914999762,268.773,0.46799999475479126,-2.580513725507883
269.06896600000005,,0.018137873594883287,269.24,0.47999998927116394,-2.5544555734831746
269.53448299999997,,0.019727754658695053,269.705,0.47600001096725464,-2.5632480111155203
270.0,,0.021952731352376704,270.171,0.46399998664855957,-2.5894599327370154
270.465517,,0.02505590852852883,270.636,0.4819999933242798,-2.550300798982518
270.931034,,0.027808911356117436,271.101,0.4970000088214874,-2.5176638425480937
271.396552,,0.0289423655115329,271.567,0.46299999952316284,-2.591765684948226
271.86206899999996,,0.029001491011765954,272.029,0.47200000286102295,-2.5721707775544504
272.327586,,0.02997662612914785,272.492,0.4560000002384186,-2.6070278039703796
272.793103,,0.03277973600910899,272.955,0.4749999940395355,-2.565618190982482
273.258621,,0.0357981927096896,273.425,0.4659999907016754,-2.5851972866742283
273.724138,,0.036531324915919365,273.891,0.4650000035762787,-2.587334768898016
274.18965499999996,,0.03406059606212678,274.357,0.46700000762939453,-2.582925523493871
274.655172,,0.028997627269927575,274.815,0.4659999907016754,-2.58504313176604
275.12069,,0.021471841146736222,275.281,0.47200000286102295,-2.5719028035334253
275.586207,,0.010727966079479097,275.747,0.45899999141693115,-2.6001516670410307
276.051724,,0.0028301805402597543,276.214,0.45500001311302185,-2.608790069837565
276.517241,,0.016410077493464875,276.68,0.4740000069141388,-2.5673193084483223
276.98275900000004,,0.02648425337901227,277.144,0.47200000286102295,-2.5716014496253603
277.448276,,0.03108512087136913,277.609,0.46399998664855957,-2.5889587404554053
277.913793,,0.03006567794823987,278.07,0.46299999952316284,-2.5910709637667715
278.37931,,0.02407325991631747,278.54,0.46399998664855957,-2.588833411056779
278.844828,,0.014344787596376434,279.0,0.4749999940395355,-2.564818066426242
279.31034500000004,,0.0033471272976412494,279.47,0.47200000286102295,-2.571313402738124
279.77586199999996,,0.005278321623469062,279.933,0.4749999940395355,-2.5647472668025304
280.241379,,0.008130329762709113,280.396,0.4569999873638153,-2.603944069659475
280.706897,,0.0039018482630357836,280.861,0.46799999475479126,-2.5799720563960578
281.172414,,0.0058687754725916495,281.325,0.46299999952316284,-2.5908704710417276
281.637931,,0.017952570998972465,281.791,0.4699999988079071,-2.575636622878499
282.10344799999996,,0.029549000621142324,282.255,0.47699999809265137,-2.5604133078067557
282.568966,,0.03929488227454152,282.721,0.49000000953674316,-2.532127014401721
283.034483,,0.04633099600009907,283.188,0.47699999809265137,-2.560493067052743
283.5,,0.049112604648193406,283.654,0.4749999940395355,-2.564900363527456
283.965517,,0.04600324829837676,284.119,0.45500001311302185,-2.6085289748553104
284.431034,,0.03705492538976808,284.584,0.48100000619888306,-2.551944221765362
284.89655200000004,,0.024460555921387753,285.045,0.46399998664855957,-2.589043946615404
285.362069,,0.010986514144287734,285.514,0.4729999899864197,-2.5694995877959217
285.827586,,0.0013804253471196703,285.982,0.4620000123977661,-2.5935275441067422
286.293103,,0.0109103455715577,286.444,0.4129999876022339,-2.700343179109173
286.758621,,0.015304591234902055,286.907,0.44600000977516174,-2.6285081802999914
287.22413800000004,,0.012762442424014935,287.37,0.460999995470047,-2.5958854022985633
287.689655,,0.003968723832636945,287.835,0.47999998927116394,-2.55454132409154
288.155172,,0.007902675458876327,288.307,0.47200000286102295,-2.5720117771722006
288.62069,,0.019576577380103655,288.765,0.4790000021457672,-2.5567922243301098
289.086207,,0.029605396230617653,289.23,0.4869999885559082,-2.5393826506710115
289.55172400000004,,0.03774191910008702,289.695,0.4620000123977661,-2.5938565731821313
290.01724099999996,,0.04320538154021,290.162,0.45500001311302185,-2.6091038056958413
290.482759,,0.04453032792600994,290.628,0.46700000762939453,-2.5829463533127446
290.948276,,0.041091308134561313,291.1,0.47600001096725464,-2.563314438743251
291.413793,,0.03399258272027796,291.559,0.4620000123977661,-2.593781512352137
291.87931,,0.025233125685452787,292.022,0.47600001096725464,-2.563237577992249
292.344828,,0.01651905697058745,292.492,0.47699999809265137,-2.5610082560829506
292.81034500000004,,0.008853074567403488,292.955,0.45500001311302185,-2.6088815507597887
293.275862,,0.0023832133472450933,293.418,0.4729999899864197,-2.569604828363783
293.74137900000005,,0.0036563812391144776,293.883,0.47200000286102295,-2.571719744455637
294.206897,,0.010152754513776983,294.346,0.4690000116825104,-2.5781909222107964
294.672414,,0.016987747812913425,294.812,0.46399998664855957,-2.5890204899383757
295.13793100000004,,0.023233166805622853,295.278,0.46700000762939453,-2.5824237661441556
295.603448,,0.028462524144349473,295.744,0.4880000054836273,-2.536615694497853
296.068966,,0.03304282176141926,296.21,0.46000000834465027,-2.5975669666743384
296.534483,,0.036802031231164656,296.676,0.4690000116825104,-2.5779156654711035
297.0,,0.03822300349471653,297.141,0.46399998664855957,-2.58877444975534
297.46551700000003,,0.03601782041136281,297.607,0.46700000762939453,-2.5822137746710734
297.931034,,0.03157282949860802,298.07,0.4819999933242798,-2.5495195695581967
298.396552,,0.02874436887137538,298.532,0.47200000286102295,-2.5713016576291032
298.862069,,0.030316209493370445,299.0,0.4699999988079071,-2.5756649146341597
299.327586,,0.035032981432787685,299.462,0.4339999854564667,-2.654113340053399
299.79310300000003,,0.03883654467085576,299.925,0.45100000500679016,-2.6171048987471783
300.258621,,0.0386956574317888,300.396,0.4650000035762787,-2.5866429394394705
300.724138,,0.034639310329327835,300.861,0.4729999899864197,-2.5692611623168315
301.189655,,0.028668869333798412,301.325,0.46399998664855957,-2.588922790274013
301.65517200000005,,0.022878094008224548,301.791,0.46299999952316284,-2.591160138018206
302.12069,,0.018629919176833182,302.255,0.4699999988079071,-2.5759715683599493
302.586207,,0.016311068876954323,302.721,0.4690000116825104,-2.5782133283410875
303.05172400000004,,0.014970144269462048,303.185,0.5220000147819519,-2.462806265260796
303.517241,,0.01252790731490989,303.65,0.46299999952316284,-2.591403553860564
303.982759,,0.007283485834881414,304.115,0.5049999952316284,-2.4999517241973406
304.448276,,0.00032605817260215425,304.58,0.4740000069141388,-2.5675345248653567
304.913793,,0.007753938256081647,305.041,0.4659999907016754,-2.585001180132599
305.37931000000003,,0.012487776800811291,305.511,0.46399998664855957,-2.5893887311745085
305.844828,,0.014023157702745226,305.974,0.4830000102519989,-2.548016656629409
306.310345,,0.013519239937422382,306.437,0.48399999737739563,-2.545851329145046
306.775862,,0.011950127548713881,306.9,0.46799999475479126,-2.580713773531674
307.241379,,0.009264811638931439,307.37,0.46299999952316284,-2.5916026254171176
307.70689699999997,,0.005326659775400813,307.835,0.46000000834465027,-2.598126627192278
308.172414,,0.0009174430515758605,308.299,0.47600001096725464,-2.5632491861081697
308.637931,,0.002852389720962639,308.765,0.460999995470047,-2.595903193320269
309.103448,,0.006115635005018619,309.23,0.460999995470047,-2.595871778286197
309.568966,,0.010698941330251776,309.696,0.4690000116825104,-2.5784065223367985
310.034483,,0.018511562501073473,310.155,0.46299999952316284,-2.591438594139026
310.5,,0.02931179656526239,310.621,0.4560000002384186,-2.6066466961145123
310.96551700000003,,0.0400463725503918,311.089,0.47600001096725464,-2.5630296976769436
311.431034,,0.046400788047197515,311.551,0.46399998664855957,-2.589128642962408
311.896552,,0.04516878977202914,312.022,0.4650000035762787,-2.5869052311800704
312.362069,,0.03542527068098277,312.484,0.47200000286102295,-2.5716111851514465
312.827586,,0.0177547318513044,312.948,0.46399998664855957,-2.5889989441226757
313.29310300000003,,0.006978960632228002,313.41,0.46000000834465027,-2.597675176811682
313.758621,,0.03704295501386414,313.876,0.4659999907016754,-2.5845691288877966
314.224138,,0.06772288605639742,314.346,0.47200000286102295,-2.571467552058079
314.689655,,0.09130503759378207,314.812,0.46399998664855957,-2.588872038587882
315.155172,,0.10129290985170007,315.27,0.46700000762939453,-2.582316804359994
315.62068999999997,,0.09723713235021511,315.735,0.4740000069141388,-2.5670527719964684
316.086207,,0.08460554377725439,316.2,0.4519999921321869,-2.6149756723175512
316.551724,,0.06962295699576743,316.666,0.4560000002384186,-2.6062604407719365
317.017241,,0.05475555512225507,317.133,0.46299999952316284,-2.591016160226673
317.482759,,0.03909448663416272,317.598,0.46399998664855957,-2.5888501153001235
317.94827599999996,,0.021938159267236503,318.066,0.45500001311302185,-2.6084764455531206
318.413793,,0.004974147345824999,318.529,0.515999972820282,-2.4756021534444836
318.87931000000003,,0.008976373554629696,318.992,0.47999998927116394,-2.554059425138187
319.344828,,0.01862901392660856,319.455,0.460999995470047,-2.5954824570918693
319.810345,,0.025090428473220242,319.926,0.46399998664855957,-2.5889788493392563
320.275862,,0.02999686397055516,320.388,0.4880000054836273,-2.5367263948773724
320.741379,,0.0333780491237225,320.854,0.46000000834465027,-2.5977655420213814
321.20689699999997,,0.034282643350016274,321.318,0.4699999988079071,-2.57601762603216
321.672414,,0.033416629297126355,321.783,0.42800000309944153,-2.6675612731129994
322.137931,,0.03324286943658825,322.247,0.4699999988079071,-2.5761000559181286
322.603448,,0.03397810382011073,322.713,0.4189999997615814,-2.687254127346308
323.068966,,0.031337830559187464,323.178,0.4620000123977661,-2.593615364988605
323.53448299999997,,0.02142172651082404,323.643,0.4580000042915344,-2.602371670585884
324.0,,0.007224955193286041,324.108,0.4779999852180481,-2.5588367169286212
324.465517,,0.0032735420100015867,324.573,0.46700000762939453,-2.58283449210678
324.931034,,0.005789319588889618,325.037,0.46700000762939453,-2.582860872839257
325.396552,,0.0034196002718255964,325.507,0.44600000977516174,-2.6286322840430483
325.86206899999996,,0.0014690380818093139,325.97,0.47999998927116394,-2.5545708245432692
326.327586,,0.0017073716097835696,326.432,0.46399998664855957,-2.5894333862139547
326.793103,,0.002594878307538968,326.9,0.453000009059906,-2.613394012936958
327.258621,,0.0027040018547386333,327.362,0.46399998664855957,-2.5894161449036157
327.724138,,0.0022143119263441074,327.828,0.4690000116825104,-2.5785014894015243
328.189655,,0.001883311378900932,328.292,0.5210000276565552,-2.465180661908324
328.655172,,0.0019174713575441469,328.758,0.4790000021457672,-2.5566426118294507
329.12068999999997,,0.0020275675296674363,329.223,0.4560000002384186,-2.606701836615717
329.586207,,0.001997371538414736,329.689,0.47699999809265137,-2.560894692626239
330.051724,,0.0018824501039503433,330.156,0.460999995470047,-2.5956931988345056
330.517241,,0.0018158399221375775,330.622,0.46399998664855957,-2.5890948100368685
330.982759,,0.0018292906443840773,331.085,0.4650000035762787,-2.5868530192468104
331.44827599999996,,0.0018626515224024823,331.548,0.45899999141693115,-2.5998630224929533
331.913793,,0.0018556810693849985,332.011,0.4690000116825104,-2.578017581706298
332.37931,,0.0018125292020074284,332.481,0.46299999952316284,-2.591035218594867
332.844828,,0.001806232217152685,332.941,0.4129999876022339,-2.6999206652080168
333.310345,,0.001899592419489892,333.411,0.46700000762939453,-2.582236181173228
333.77586199999996,,0.002023174621401839,333.87,0.47699999809265137,-2.560421853839729
334.241379,,0.001997235759827825,334.34,0.4560000002384186,-2.6061550299124274
334.706897,,0.0018080402089774071,334.806,0.45899999141693115,-2.599611220655013
335.17241399999995,,0.0018094026442208877,335.271,0.46399998664855957,-2.588721202629358
335.637931,,0.0023218483169728807,335.736,0.4620000123977661,-2.5930925813078414
336.103448,,0.0028616381479506783,336.196,0.46799999475479126,-2.580045367133353
336.56896600000005,,0.0022050101678941243,336.661,0.4729999899864197,-2.569186424889518
337.034483,,0.00023923635530924195,337.126,0.4620000123977661,-2.593194527298229
337.5,,0.003418591866395856,337.592,0.46299999952316284,-2.5910668483084125
337.965517,,0.0056969203632669975,338.055,0.4560000002384186,-2.6063752499193105
338.431034,,0.00668811428000011,338.525,0.4749999940395355,-2.5650440578948834
338.89655200000004,,0.007238757755114286,338.988,0.47600001096725464,-2.562931471668758
339.36206899999996,,0.007808362454761982,339.451,0.48500001430511475,-2.5433903364808095
339.827586,,0.007807630639898832,339.919,0.47200000286102295,-2.5717782167888585
340.293103,,0.006604653713858047,340.381,0.43799999356269836,-2.645915620349546
340.758621,,0.004442722606080084,340.847,0.4620000123977661,-2.5936885408268044
341.224138,,0.0021633670556010713,341.314,0.48100000619888306,-2.5523496733935724
341.68965499999996,,0.00054621884075017,341.779,0.4620000123977661,-2.593791952877041
342.155172,,0.00011394295573803688,342.244,0.46799999475479126,-2.5807593878894917
342.62069,,0.0010053754776202302,342.709,0.5299999713897705,-2.445711599209253
343.086207,,0.0025600071603815023,343.174,0.4690000116825104,-2.5786244962949962
343.551724,,0.0034606675896829476,343.639,0.48399999737739563,-2.5459475376508682
344.01724099999996,,0.00296890823691147,344.104,0.4880000054836273,-2.5372234905734463
344.48275900000004,,0.0018207038979266845,344.569,0.46700000762939453,-2.5829537745243774
344.948276,,0.0012415732254700048,345.033,0.47600001096725464,-2.5633138620212432
345.413793,,0.001261621007248247,345.496,0.4569999873638153,-2.6046668324339284
345.87931,,0.0008082572956611088,345.966,0.5009999871253967,-2.5087564113492187
346.344828,,0.0005555884159712678,346.429,0.4650000035762787,-2.587130260602855
346.81034500000004,,0.0018923410721897556,346.895,0.4650000035762787,-2.5870673079513846
347.275862,,0.0022151662553680194,347.359,0.4580000042915344,-2.602252024739066
347.741379,,0.0018383756190827644,347.824,0.4690000116825104,-2.578220057981279
348.206897,,0.0018085127621976517,348.292,0.47600001096725464,-2.562903139083416
348.672414,,0.0023325246196795445,348.75,0.4650000035762787,-2.5868038865482736
349.13793100000004,,0.0024517152832226967,349.215,0.46799999475479126,-2.5802074660647123
349.60344799999996,,0.0013922027290059554,349.681,0.4860000014305115,-2.540936554803263
350.068966,,0.0002205188511611773,350.148,0.46700000762939453,-2.582282030701023
350.534483,,0.0009164600296101536,350.614,0.4560000002384186,-2.6062065757618584
351.0,,0.00014081558221539197,351.077,0.45899999141693115,-2.5996400346120967
351.465517,,0.0009160026312729174,351.54,0.45899999141693115,-2.5996202700952606
351.93103399999995,,0.0006080348572586235,352.007,0.47999998927116394,-2.553859705523392
352.396552,,0.0011648680053084309,352.477,0.46399998664855957,-2.5887196302690874
352.862069,,0.0028002502079914025,352.937,0.4699999988079071,-2.5756596453191527
353.32758600000005,,0.003000780413859014,353.407,0.4690000116825104,-2.5778602748480717
353.793103,,0.0022262620322697434,353.865,0.46799999475479126,-2.5800702928558645
354.258621,,0.0015803386095489405,354.335,0.46299999952316284,-2.591003402148478
354.72413800000004,,0.0009746519982171903,354.801,0.48399999737739563,-2.545298849701396
355.189655,,0.0005464513734090932,355.267,0.46700000762939453,-2.5823884438021873
355.655172,,0.0029746853560547516,355.725,0.4659999907016754,-2.584624028661394
356.12069,,0.004938070903870231,356.192,0.47600001096725464,-2.56289734068053
356.586207,,0.00520397498969652,356.658,0.45899999141693115,-2.599995581319951
357.05172400000004,,0.003889993590342922,357.122,0.4620000123977661,-2.5935208341081575
357.517241,,0.002224701613499291,357.588,0.4569999873638153,-2.6044741447333744
357.982759,,0.0015637416668693102,358.055,0.46399998664855957,-2.589280777735036
358.448276,,0.002327122543503519,358.518,0.43799999356269836,-2.6459787683501497
358.913793,,0.0034223506578939028,358.981,0.45399999618530273,-2.6111685411480985
359.37931000000003,,0.0031058784530101176,359.451,0.4790000021457672,-2.556743567421933
359.844828,,0.0008923784450289844,359.915,0.4690000116825104,-2.5785621737944417
360.310345,,0.0017738142216308856,360.377,0.46399998664855957,-2.5894775407272292
360.775862,,0.003132798524307748,360.843,0.4300000071525574,-2.6635639304665117
361.241379,,0.002912311901101925,361.307,0.46399998664855957,-2.58949288470005
361.706897,,0.002070379619992308,361.772,0.4650000035762787,-2.5873069694163777
362.172414,,0.0012740216131061873,362.236,0.4569999873638153,-2.604718313798183
362.63793100000004,,0.0003684991973744763,362.702,0.45500001311302185,-2.6090477084333656
363.103448,,0.0008535342403741365,363.166,0.4690000116825104,-2.578509421262603
363.568966,,0.0021052947837799088,363.632,0.4860000014305115,-2.541425957696089
364.034483,,0.00295887100681386,364.097,0.4749999940395355,-2.56533592440852
364.5,,0.0032527992313973893,364.563,0.46399998664855957,-2.5892389441377506
364.96551700000003,,0.0029519978122035345,365.025,0.46299999952316284,-2.59135085429207
365.431034,,0.00200084546217021,365.495,0.4569999873638153,-2.6043537425288013
365.896552,,0.0007302065421914872,365.959,0.46299999952316284,-2.5912125718528642
366.362069,,0.00029645177997480635,366.421,0.4690000116825104,-2.578072956059623
366.827586,,0.0020862463399546095,366.887,0.4690000116825104,-2.5780084484381
367.29310300000003,,0.0060492557388896005,367.351,0.47200000286102295,-2.571412934699054
367.758621,,0.009678203103262246,367.816,0.4880000054836273,-2.53650126333696
368.224138,,0.00952684397048934,368.281,0.47600001096725464,-2.5625993005953474
368.689655,,0.0045089955073599084,368.747,0.46399998664855957,-2.5887068066417473
369.155172,,0.0025764515452473182,369.212,0.4690000116825104,-2.5777884104348714
369.62068999999997,,0.007498384373272621,369.677,0.46399998664855957,-2.5886689361636157
370.086207,,0.008519819422912248,370.144,0.4659999907016754,-2.5843118225507413
370.55172400000004,,0.007453362788830948,370.61,0.4749999940395355,-2.5647171945294573
371.017241,,0.007129183451613144,371.07,0.4740000069141388,-2.5669215347308514
371.482759,,0.008558150471890527,371.54,0.4620000123977661,-2.5931030777806106
371.948276,,0.010614521106702728,372.0,0.46799999475479126,-2.5800804761962164
372.413793,,0.011809149855786683,372.469,0.4620000123977661,-2.5932119186188314
372.87931000000003,,0.011809630880741703,372.93,0.46700000762939453,-2.5823870036742567
373.344828,,0.011255737595653365,373.4,0.4650000035762787,-2.5868194182148843
373.810345,,0.010629522317630723,373.866,0.4620000123977661,-2.593435122562085
374.275862,,0.0097999169758237,374.328,0.46000000834465027,-2.597874721579097
374.741379,,0.008469148506210602,374.794,0.45899999141693115,-2.600135897996272
375.20689699999997,,0.006481104421124225,375.259,0.4860000014305115,-2.54139207790181
375.672414,,0.003689419458329072,375.725,0.45100000500679016,-2.617718942026892
376.137931,,4.729131907592695e-05,376.185,0.46299999952316284,-2.591641958597247
376.603448,,0.003988346983245188,376.65,0.4790000021457672,-2.5568407437848855
377.068966,,0.007386919965261375,377.115,0.46700000762939453,-2.5830295716805574
377.53448299999997,,0.009100315672828199,377.581,0.4729999899864197,-2.5699891092441436
378.0,,0.008878107813197781,378.051,0.4819999933242798,-2.5503976746512076
378.465517,,0.007599097417159064,378.513,0.4620000123977661,-2.5939712810393436
378.931034,,0.00649290574645861,378.981,0.4880000054836273,-2.537311209610923
379.396552,,0.005840237891096466,379.444,0.47200000286102295,-2.5721385147135782
379.862069,,0.004833359145186009,379.907,0.4819999933242798,-2.5503057946372043
380.327586,,0.0029643525383380187,380.37,0.46399998664855957,-2.589461640394251
380.79310300000003,,0.001016964588990876,380.835,0.46799999475479126,-2.5806757109198903
381.258621,,0.00018736792861303485,381.307,0.46399998664855957,-2.589309917331151
381.724138,,0.0005341451387982954,381.765,0.4659999907016754,-2.584865542062703
382.189655,,0.000866960931771486,382.23,0.4740000069141388,-2.567345049520554
382.655172,,0.0002502764726125934,382.695,0.49000000953674316,-2.532393325142067
383.12068999999997,,0.000775469759431539,383.16,0.5460000038146973,-2.410294657495139
383.586207,,0.0008807433525159779,383.626,0.46000000834465027,-2.597565375137521
384.051724,,0.00024747163458424396,384.099,0.4749999940395355,-2.5647987293982553
384.517241,,0.0014294819980956357,384.557,0.47600001096725464,-2.5625432314327194
384.982759,,0.001637829995982405,385.026,0.48500001430511475,-2.5428708453930393
385.44827599999996,,0.0015431164278180809,385.488,0.4860000014305115,-2.540641868623427
385.913793,,0.0028237761887323774,385.951,0.4569999873638153,-2.603788750093725
386.37931,,0.00622661598006573,386.422,0.47699999809265137,-2.5602001948579756
386.84482799999995,,0.010847380200241955,386.88,0.4650000035762787,-2.5863476417885307
387.310345,,0.015138487272456277,387.35,0.47999998927116394,-2.5536907503601287
387.775862,,0.018066872797735303,387.815,0.4830000102519989,-2.5471958392056013
388.241379,,0.01927065782321296,388.281,0.47200000286102295,-2.571219073489166
388.70689699999997,,0.018629114868979852,388.747,0.4690000116825104,-2.5778288413096355
389.172414,,0.01608895126364267,389.211,0.460999995470047,-2.5953459617313572
389.637931,,0.011861881247932131,389.676,0.49000000953674316,-2.5322641830342008
390.103448,,0.006630534325556177,390.141,0.4650000035762787,-2.5868371455453487
390.56896600000005,,0.0015584928040102244,390.6,0.4869999885559082,-2.53901786736989
391.03448299999997,,0.0020272921813741444,391.07,0.4740000069141388,-2.567451839912415
391.5,,0.003357555221768066,391.533,0.4620000123977661,-2.5937044921437873
391.965517,,0.002811541006712386,392.0,0.4779999852180481,-2.5589491732680703
392.431034,,0.0015679685634684003,392.463,0.4699999988079071,-2.5764718370940054
392.896552,,0.0005931791322348656,392.926,0.4830000102519989,-2.548229956063266
393.36206899999996,,0.00019516166102055067,393.395,0.4690000116825104,-2.5787958538264477
393.827586,,0.00036771498820326346,393.861,0.45500001311302185,-2.6093442175323482
394.293103,,0.000834619754647165,394.325,0.46700000762939453,-2.583228966187904
394.75862099999995,,0.0006280102638605891,394.791,0.46299999952316284,-2.591952028578356
395.224138,,0.0014289552923302897,395.255,0.47600001096725464,-2.563617008547714
395.68965499999996,,0.005139786298777458,395.72,0.49300000071525574,-2.526545763512066
396.155172,,0.00842195171716575,396.185,0.46799999475479126,-2.580956459904925
396.62069,,0.009180789596582844,396.651,0.46399998664855957,-2.589596391846267
397.086207,,0.007513281029205518,397.111,0.4659999907016754,-2.5851479794340584
397.551724,,0.005456107419679022,397.577,0.4650000035762787,-2.5872217729241824
398.017241,,0.0045911858928121795,398.04,0.527999997138977,-2.449850308065564
398.48275900000004,,0.0043916657956921575,398.51,0.4819999933242798,-2.5499419746026533
398.94827599999996,,0.0031097757537616954,398.974,0.46299999952316284,-2.5912053713071974
399.413793,,2.8708206102551702e-05,399.436,0.5440000295639038,-2.4146033877603847
399.87931,,0.004001445286409507,399.904,0.46700000762939453,-2.5822308205726716
400.344828,,0.007528190651276314,400.367,0.4749999940395355,-2.5646813760980494
400.810345,,0.010998991003913775,400.833,0.47600001096725464,-2.5623960547257205
401.27586199999996,,0.01615196108126734,401.299,0.47699999809265137,-2.560128034967883
401.741379,,0.023623394924341675,401.765,0.46799999475479126,-2.579667108704635
402.206897,,0.03137858554492091,402.23,0.460999995470047,-2.5948725708281253
402.672414,,0.03619607120034815,402.696,0.4090000092983246,-2.708144169462095
403.137931,,0.03662445362244201,403.155,0.46399998664855957,-2.5883292999744243
403.60344799999996,,0.03391220574600616,403.621,0.4790000021457672,-2.555687772294629
404.068966,,0.029961671513483737,404.089,0.4569999873638153,-2.603681556572679
404.534483,,0.025064493138436603,404.551,0.46399998664855957,-2.5885182085421237
405.0,,0.01805615670670513,405.022,0.4580000042915344,-2.601698520492048
405.465517,,0.00815787389448943,405.484,0.48500001430511475,-2.5430007966171315
405.931034,,0.0038721120839698324,405.948,0.47200000286102295,-2.571461717844973
406.39655200000004,,0.016064029601174822,406.41,0.47699999809265137,-2.5607149230329287
406.862069,,0.026178334184816618,406.876,0.48399999737739563,-2.54561391226456
407.327586,,0.03248644482323126,407.346,0.47999998927116394,-2.554475927725156
407.793103,,0.03409792022925999,407.812,0.46399998664855957,-2.5894750195578813
408.258621,,0.03074023168960762,408.273,0.4519999921321869,-2.6157489979370725
408.72413800000004,,0.022383554906306592,408.739,0.46399998664855957,-2.589721047695661
409.18965499999996,,0.009334622396082222,409.203,0.46799999475479126,-2.5811036107897007
409.655172,,0.0073278729851991315,409.669,0.4699999988079071,-2.5768210038267565
410.12069,,0.02570566537194548,410.134,0.45100000500679016,-2.618265046432515
410.586207,,0.04363433489434305,410.6,0.46399998664855957,-2.5899659005329654
411.05172400000004,,0.05941296729953585,411.063,0.4749999940395355,-2.56599611601442
411.51724099999996,,0.07221118056368268,411.525,0.43799999356269836,-2.6465734905940996
411.982759,,0.08175554548160889,411.992,0.4699999988079071,-2.5767973483437108
412.448276,,0.08747020727771061,412.455,0.46399998664855957,-2.589784417548784
412.913793,,0.0881242535938834,412.922,0.45399999618530273,-2.6114627996419277
413.37931,,0.08259023279835141,413.392,0.45500001311302185,-2.6091564877811866
413.844828,,0.07073782039258664,413.85,0.46299999952316284,-2.591584058188365
414.31034500000004,,0.053357533003842834,414.322,0.5509999990463257,-2.399706504113643
414.775862,,0.0315823518715836,414.78,0.46399998664855957,-2.589082593529895
415.241379,,0.0068407085069233115,415.245,0.4569999873638153,-2.6041638959563764
415.706897,,0.018807032613457376,415.71,0.4620000123977661,-2.593105966654712
416.172414,,0.042825452956854144,416.177,0.49300000071525574,-2.525412756727972
416.63793100000004,,0.06298329932454291,416.643,0.46000000834465027,-2.5971672362972558
417.103448,,0.07809334510055842,417.108,0.4659999907016754,-2.583974079814988
417.568966,,0.08822600185779811,417.574,0.47600001096725464,-2.5620903981104646
418.034483,,0.0943598703541259,418.037,0.4819999933242798,-2.5489485223689514
418.5,,0.097624439437794,418.507,0.4429999887943268,-2.6338760034214466
418.96551700000003,,0.09857231786309638,418.97,0.4659999907016754,-2.5837600640890375
419.43103399999995,,0.09705771771262882,419.432,0.45899999141693115,-2.5990371242155264
419.896552,,0.09269831481263052,419.903,0.45100000500679016,-2.616525855385789
420.362069,,0.0853106929166421,420.366,0.45500001311302185,-2.607902639671273
420.827586,,0.07510592844256103,420.831,0.46000000834465027,-2.5971298673238445
421.293103,,0.06289622413854973,421.296,0.46700000762939453,-2.5820247679560326
421.758621,,0.05008632456181671,421.762,0.46700000762939453,-2.5821902635669614
422.22413800000004,,0.03797577445843141,422.222,0.46399998664855957,-2.5889064396469452
422.689655,,0.026913042282391844,422.687,0.46399998664855957,-2.5890955881513
423.15517200000005,,0.01652426775957663,423.151,0.4749999940395355,-2.5653222010908023
423.62069,,0.0070002295215111894,423.617,0.4779999852180481,-2.558973854325183
424.086207,,0.00020128695863841104,424.085,0.4729999899864197,-2.5700440009927856
424.55172400000004,,0.003443846466574627,424.548,0.4729999899864197,-2.5702044210739396
425.017241,,0.002856869090712275,425.011,0.46399998664855957,-2.5899510095802545
425.482759,,0.0009555084922188307,425.48,0.46799999475479126,-2.5813489255084408
425.948276,,0.0009641010091587782,425.941,0.47200000286102295,-2.5727166039877543
426.413793,,0.0043342555588329655,426.411,0.4569999873638153,-2.6054454677730363
426.87931000000003,,0.009897160968707203,426.87,0.4569999873638153,-2.605459880402063
427.344828,,0.015328201187985127,427.34,0.48100000619888306,-2.5531509644058885
427.810345,,0.019210065003224086,427.806,0.46700000762939453,-2.5835947104310466
428.275862,,0.02175090322680194,428.271,0.460999995470047,-2.596574917562733
428.741379,,0.023974366807953045,428.736,0.46399998664855957,-2.589915958885588
429.20689699999997,,0.02651095825256094,429.195,0.4880000054836273,-2.5374772168479782
429.672414,,0.02898097883274823,429.661,0.46399998664855957,-2.5895897627483477
430.137931,,0.030332966318260043,430.126,0.4880000054836273,-2.5371085907114628
430.603448,,0.02989284636785973,430.591,0.4339999854564667,-2.654550394262785
431.068966,,0.028200544723750685,431.059,0.46399998664855957,-2.5889814846817703
431.534483,,0.02669541313845688,431.521,0.46399998664855957,-2.588774598295356
432.0,,0.02644756154695476,431.989,0.4620000123977661,-2.5929337241423545
432.46551700000003,,0.027208997860806786,432.451,0.5019999742507935,-2.5056043433090425
432.931034,,0.02773869973405619,432.915,0.47200000286102295,-2.5708001168589614
433.396552,,0.027070887644493963,433.385,0.42800000309944153,-2.666523668259592
433.862069,,0.025468287614435838,433.85,0.4650000035762787,-2.5858095410557445
434.327586,,0.024032929272486944,434.314,0.4339999854564667,-2.653280241229831
434.79310300000003,,0.023380258089851884,434.78,0.46700000762939453,-2.5813563076693664
435.258621,,0.023073869777340446,435.24,0.46299999952316284,-2.590082128975908
435.724138,,0.022601818504811164,435.706,0.46700000762939453,-2.5814177976319304
436.189655,,0.02233630351738788,436.173,0.4620000123977661,-2.5923990979732756
436.655172,,0.022834619220371846,436.639,0.48100000619888306,-2.5511278335887653
437.12068999999997,,0.023508080218345086,437.103,0.49000000953674316,-2.531673561263194
437.586207,,0.022863095589736735,437.569,0.45500001311302185,-2.608105663082488
438.051724,,0.020237456093279614,438.037,0.4620000123977661,-2.5930558053120696
438.517241,,0.01673673299199841,438.499,0.5080000162124634,-2.493053201297013
438.982759,,0.014055087156166808,438.963,0.47200000286102295,-2.5717065221971875
439.448276,,0.01254235001092892,439.425,0.46299999952316284,-2.591536608686286
439.913793,,0.010904751954934115,439.891,0.4790000021457672,-2.556894443964996
440.37931000000003,,0.008021666311286844,440.357,0.4659999907016754,-2.585420043387382
440.844828,,0.004597693205609734,440.822,0.4659999907016754,-2.585603732070855
441.310345,,0.002355086751164995,441.288,0.47600001096725464,-2.5639755179347308
441.775862,,0.0017213166192963784,441.754,0.48100000619888306,-2.5532095471502236
442.241379,,0.0012192788130018924,442.222,0.4309999942779541,-2.6622345283639004
442.70689699999997,,0.00042230207451538247,442.68,0.4480000138282776,-2.6252534104818586
443.172414,,0.0023143105230601,443.152,0.4650000035762787,-2.588233673513465
443.637931,,0.0025658545836202674,443.61,0.45500001311302185,-2.6099970004006696
444.103448,,0.0012237365226005277,444.081,0.46399998664855957,-2.590325811884811
444.568966,,0.0007880599463967725,444.543,0.4950000047683716,-2.5226847954862426
445.03448299999997,,0.0031562212947579497,445.011,0.46000000834465027,-2.5987973515586744
445.5,,0.006977688091988199,445.473,0.4269999861717224,-2.670520745962605
445.965517,,0.009101956524479076,445.941,0.4790000021457672,-2.5570329525844473
446.431034,,0.008272286842103646,446.403,0.45899999141693115,-2.6003870115596928
446.896552,,0.006414850303488413,446.869,0.46399998664855957,-2.5892601927694288
447.36206899999996,,0.0063259795062459824,447.331,0.44699999690055847,-2.6260566613646947
447.827586,,0.008799038768119608,447.797,0.46399998664855957,-2.588779811365497
448.29310300000003,,0.012099412791044303,448.262,0.4740000069141388,-2.5667611358490543
448.758621,,0.013826088520624934,448.728,0.4749999940395355,-2.5643646884077445
449.224138,,0.013243179493249466,449.192,0.46299999952316284,-2.590311927386004
449.689655,,0.011964471245967504,449.658,0.45500001311302185,-2.60757281568732
450.155172,,0.012187711457807228,450.123,0.4729999899864197,-2.5682229369958227
450.62068999999997,,0.014191800618498805,450.588,0.46299999952316284,-2.5899134339288876
451.086207,,0.016074711929014322,451.051,0.49000000953674316,-2.531035134923414
451.551724,,0.016239000641788688,451.521,0.47699999809265137,-2.559345689133201
452.017241,,0.01544334971299231,451.982,0.4659999907016754,-2.5833428633749924
452.482759,,0.015614423768494002,452.452,0.48399999737739563,-2.544202987541239
452.94827599999996,,0.017048334155770284,452.915,0.4860000014305115,-2.539963011901941
453.413793,,0.017930912424555863,453.377,0.4620000123977661,-2.5924063540085815
453.87931,,0.01678660437475511,453.843,0.4819999933242798,-2.549023825030651
454.344828,,0.014340668603902876,454.308,0.4659999907016754,-2.58410182691534
454.810345,,0.012410460885111586,454.773,0.46299999952316284,-2.5908804275252812
455.27586199999996,,0.011757496839613649,455.24,0.46700000762939453,-2.5824246692095505
455.741379,,0.011707523963541591,455.706,0.45399999618530273,-2.611014497065536
456.206897,,0.011265403768104754,456.17,0.43799999356269836,-2.646141257079664
456.672414,,0.009811070076934821,456.636,0.49900001287460327,-2.513504296068903
457.137931,,0.007076936950813523,457.096,0.45500001311302185,-2.6096084254626324
457.603448,,0.0033263535494717973,457.561,0.47200000286102295,-2.5727901938284763
458.06896600000005,,0.000388210462745321,458.03,0.47200000286102295,-2.572977215281138
458.53448299999997,,0.0027892447784318873,458.492,0.46700000762939453,-2.584019219898834
459.0,,0.0035112015058148737,458.955,0.46000000834465027,-2.599375451191063
459.465517,,0.003417503488126888,459.425,0.4690000116825104,-2.579826528339084
459.931034,,0.0035508608784860147,459.891,0.4650000035762787,-2.588550717694158
460.39655200000004,,0.0039681389710623785,460.357,0.46399998664855957,-2.590688672350915
460.86206899999996,,0.003948096961340645,460.815,0.46700000762939453,-2.5840623016075503
461.327586,,0.0031854015950133724,461.281,0.45399999618530273,-2.612247052703368
461.793103,,0.002175178122407742,461.747,0.46000000834465027,-2.598994056492004
462.258621,,0.0013436505632405914,462.211,0.46299999952316284,-2.592238700370308
462.724138,,0.0005573664023865286,462.677,0.47600001096725464,-2.5636642810948045
463.18965499999996,,0.00011330436150224827,463.144,0.4740000069141388,-2.5677439946538114
463.655172,,0.00013702579177677894,463.61,0.4830000102519989,-2.5478408785041182
464.12069,,0.0019246460238630067,464.074,0.45100000500679016,-2.6172540144164076
464.58620699999994,,0.004626702462087379,464.536,0.4650000035762787,-2.5864510380805905
465.051724,,0.006937056387168941,465.007,0.4560000002384186,-2.605768440947441
465.517241,,0.008269335389410543,465.469,0.46299999952316284,-2.5902480238106755
465.98275900000004,,0.009002818874611749,465.933,0.49399998784065247,-2.5224685991248594
466.448276,,0.009503784353211836,466.396,0.4690000116825104,-2.576729058076654
466.913793,,0.00966572674887346,466.861,0.460999995470047,-2.593995568508773
467.37931,,0.009517864410180255,467.325,0.45100000500679016,-2.615668927853097
467.844828,,0.00951488783802134,467.791,0.460999995470047,-2.593823448952709
468.31034500000004,,0.009802883454724657,468.255,0.4429999887943268,-2.633036898231165
468.77586199999996,,0.009729654232080652,468.721,0.460999995470047,-2.593876584165471
469.241379,,0.008599665619939268,469.185,0.49399998784065247,-2.522092163311254
469.706897,,0.006592337862597182,469.651,0.3889999985694885,-2.7510144548569904
470.172414,,0.0043836292058831465,470.119,0.460999995470047,-2.5943664398061865
470.63793100000004,,0.002027119667716134,470.584,0.47200000286102295,-2.5706594161475267
471.10344799999996,,0.0011258869011690914,471.045,0.47999998927116394,-2.553522198481145
471.568966,,0.005244571282600705,471.514,0.46399998664855957,-2.5886973339088577
472.034483,,0.009286816004046596,471.977,0.4650000035762787,-2.58685096424806
472.5,,0.011760397736052815,472.44,0.48100000619888306,-2.552330204952367
472.965517,,0.011990688535765895,472.907,0.46399998664855957,-2.589699465022529
473.43103399999995,,0.010531533491850808,473.37,0.48500001430511475,-2.5442640572797037
473.89655200000004,,0.008529286949999293,473.835,0.45899999141693115,-2.6011994309173554
474.362069,,0.006763235716581821,474.307,0.4690000116825104,-2.579668648046561
474.827586,,0.005263922696622681,474.765,0.4749999940395355,-2.5668096145015684
475.293103,,0.0038208371113769334,475.23,0.4779999852180481,-2.560436135816927
475.758621,,0.0026138437785543514,475.696,0.46799999475479126,-2.582329188054526
476.22413800000004,,0.002070368980137463,476.164,0.47600001096725464,-2.5649470831086036
476.689655,,0.002174962240954834,476.629,0.49000000953674316,-2.5344313599841053
477.155172,,0.002124913686344596,477.097,0.46799999475479126,-2.5822850043727756
477.62069,,0.0007574324264368532,477.555,0.46399998664855957,-2.590863486309554
478.086207,,0.0024504955303278953,478.025,0.4830000102519989,-2.5492775138086143
478.55172400000004,,0.006495857279409053,478.488,0.45899999141693115,-2.601323462673694
479.01724099999996,,0.009083159745766902,478.952,0.45399999618530273,-2.6119327198312345
479.482759,,0.008242105180658632,479.421,0.4830000102519989,-2.5484341696321713
479.948276,,0.00404117685069665,479.88,0.49000000953674316,-2.532840691111528
480.413793,,0.0012495512487458848,480.35,0.4650000035762787,-2.5869488770845956
480.87931000000003,,0.004690362149909131,480.816,0.47200000286102295,-2.571336852493605
481.344828,,0.004516642192273478,481.281,0.46299999952316284,-2.5905913892456605
481.810345,,0.0009994576094856469,481.747,0.45399999618530273,-2.6098655051858635
482.275862,,0.0038756073209894027,482.211,0.46700000762939453,-2.581239637082146
482.74137900000005,,0.007524120348059001,482.677,0.4650000035762787,-2.5853331916633593
483.206897,,0.008300463681410474,483.137,0.47699999809265137,-2.558973338993417
483.672414,,0.006678347378600677,483.602,0.4819999933242798,-2.547918202508327
484.13793100000004,,0.00489471862141796,484.07,0.4429999887943268,-2.632783501902811
484.603448,,0.004971403708551548,484.532,0.4690000116825104,-2.576100852668639
485.068966,,0.006891241731316265,485.0,0.46299999952316284,-2.5892008108819655
485.534483,,0.008769407231743178,485.462,0.46700000762939453,-2.580579182889726
486.0,,0.008758162328346931,485.93,0.46700000762939453,-2.5807345918436817
486.46551700000003,,0.0066839025079401555,486.392,0.47200000286102295,-2.5700545752550115
486.931034,,0.003953630960399251,486.859,0.4259999990463257,-2.6705378876945955
487.396552,,0.00220444526852537,487.324,0.46700000762939453,-2.581523830605642
487.862069,,0.0021995124425885485,487.79,0.4880000054836273,-2.5361174330051917
488.327586,,0.0036432245003071365,488.255,0.46399998664855957,-2.588773271966212
488.79310300000003,,0.005458613145268537,488.72,0.46399998664855957,-2.589153659874863
489.258621,,0.006280825829697527,489.185,0.46399998664855957,-2.589534918016546
489.724138,,0.005368489622681025,489.651,0.47600001096725464,-2.5637611323144096
490.189655,,0.003308317056687653,490.111,0.48500001430511475,-2.5444999619945925
490.655172,,0.0014231877205811007,490.577,0.46000000834465027,-2.5992785341795708
491.12069,,0.00037592963190807263,491.044,0.4650000035762787,-2.5886540943026692
491.586207,,0.0002573822929923478,491.507,0.4860000014305115,-2.5431190630587963
492.05172400000004,,0.0010755358770290593,491.97,0.46700000762939453,-2.584670286050834
492.517241,,0.002094032989097003,492.44,0.48500001430511475,-2.5455466257281096
492.982759,,0.003046240622023246,492.9,0.47699999809265137,-2.5629997239111186
493.448276,,0.003920795757512567,493.37,0.46399998664855957,-2.5912770661055027
493.913793,,0.004825360878873425,493.835,0.45500001311302185,-2.610772659053082
494.37931000000003,,0.00556590946013445,494.299,0.47600001096725464,-2.564845144756703
494.844828,,0.0057574979597023864,494.765,0.4569999873638153,-2.6060048529602615
495.310345,,0.005340378296153018,495.225,0.4779999852180481,-2.5599666703167614
495.775862,,0.004729857559656553,495.691,0.48100000619888306,-2.5531003886170764
496.241379,,0.004395118763768356,496.156,0.4580000042915344,-2.6028452530102872
496.70689699999997,,0.004417902121146307,496.621,0.46399998664855957,-2.5893873570399752
497.172414,,0.00450747255944954,497.089,0.46799999475479126,-2.580276714434007
497.637931,,0.004327327846945301,497.55,0.39500001072883606,-2.7389253526871262
498.103448,,0.0036603108399961078,498.018,0.36399999260902405,-2.806089430742152
498.568966,,0.002331567213636868,498.481,0.4620000123977661,-2.59223843492699
499.03448299999997,,0.00034462970255917923,498.951,0.46399998664855957,-2.587575893135923
499.5,,0.0017050749712996757,499.414,0.4830000102519989,-2.5459211814394016
499.96551700000003,,0.0027674508957697625,499.88,0.46799999475479126,-2.5783930229258174
500.431034,,0.0023902938121882935,500.343,0.4950000047683716,-2.519419994946295
500.89655200000004,,0.0014066153961570938,500.808,0.46000000834465027,-2.595586268887558
501.362069,,0.0010178040896144092,501.274,0.4560000002384186,-2.6042811658818765
501.827586,,0.0013604900800232354,501.739,0.46399998664855957,-2.5869004850594
502.293103,,0.001597148436028566,502.204,0.46399998664855957,-2.5870157105096268
502.758621,,0.0012793268163877164,502.67,0.4880000054836273,-2.5349062070384694
503.224138,,0.0008807428447270771,503.137,0.4650000035762787,-2.5852505503905436
503.68965499999996,,0.0009644005046255033,503.595,0.4620000123977661,-2.5920727863373036
504.15517200000005,,0.00149524216986732,504.063,0.46399998664855957,-2.5880448601888832
504.62068999999997,,0.002077662350192021,504.525,0.3930000066757202,-2.7430928190053074
505.08620699999994,,0.002344017184634988,504.993,0.45500001311302185,-2.608405658005697
505.55172400000004,,0.001985823218166625,505.455,0.49399998784065247,-2.5238392487487267
506.017241,,0.0007329470202520514,505.926,0.41999998688697815,-2.6854585062337244
506.48275899999993,,0.0016157798409332763,506.388,0.4740000069141388,-2.5681978470131184
506.948276,,0.005186054754066325,506.854,0.46399998664855957,-2.5903457815299986
507.413793,,0.009777703636584522,507.317,0.49000000953674316,-2.5340249661967715
507.87931,,0.01441623187109165,507.783,0.4300000071525574,-2.6650210932178195
508.344828,,0.017494161070317107,508.248,0.4169999957084656,-2.6935671816418605
508.810345,,0.01787855074954205,508.713,0.46399998664855957,-2.591334452974001
509.27586199999996,,0.016016764227849346,509.178,0.46000000834465027,-2.6001461626995956
509.74137900000005,,0.01368434843913622,509.644,0.4880000054836273,-2.5391699706544326
510.20689699999997,,0.012341869124883309,510.111,0.4569999873638153,-2.606661397620721
510.67241399999995,,0.011718764263014757,510.577,0.4959999918937683,-2.5215756149738118
511.13793100000004,,0.01019644494145936,511.037,0.47200000286102295,-2.5736759059306644
511.603448,,0.006610105975895224,511.507,0.47600001096725464,-2.5647107944373007
512.0689659999999,,0.0015334404974993129,511.97,0.45399999618530273,-2.612335579262417
512.534483,,0.003153016725170045,512.432,0.45399999618530273,-2.6119849784649087
513.0,,0.005779812597324655,512.9,0.47200000286102295,-2.5723843055226343
513.465517,,0.006119212150697204,513.362,0.47699999809265137,-2.5610826665999693
513.931034,,0.005410404095256458,513.828,0.4569999873638153,-2.604236167945581
514.396552,,0.005142941168814122,514.292,0.4650000035762787,-2.5863897083865734
514.862069,,0.005695064213005756,514.757,0.46000000834465027,-2.596881009395582
515.327586,,0.006278846180499627,515.222,0.4659999907016754,-2.5834348587921894
515.793103,,0.006137452686077978,515.688,0.4819999933242798,-2.5482409943458335
516.258621,,0.005365033480831537,516.152,0.46799999475479126,-2.578455451866262
516.724138,,0.00449110134311134,516.618,0.4650000035762787,-2.5847628985291013
517.189655,,0.0037675874995211885,517.081,0.46700000762939453,-2.580242873944706
517.655172,,0.003159864839523736,517.551,0.46399998664855957,-2.586687239071119
518.1206900000001,,0.002741328781723669,518.014,0.37299999594688416,-2.78492864982531
518.5862070000001,,0.002722026030116439,518.477,0.4749999940395355,-2.5627690446760236
519.051724,,0.003132762795431811,518.945,0.4729999899864197,-2.5672633870659975
519.517241,,0.0037836723040973234,519.407,0.45500001311302185,-2.6066848868154566
519.982759,,0.004565788454001774,519.873,0.45100000500679016,-2.615668758172969
520.448276,,0.00548961986648224,520.335,0.4690000116825104,-2.5767776600179286
520.9137929999999,,0.006384957702003499,520.801,0.46399998664855957,-2.5880404726584914
521.37931,,0.006952607337891803,521.266,0.45100000500679016,-2.6167660510843556
521.844828,,0.0072098184141088945,521.732,0.4429999887943268,-2.6346204550181853
522.310345,,0.007422411400774216,522.196,0.46399998664855957,-2.5893030239472674
522.7758620000001,,0.007382421026454102,522.662,0.46299999952316284,-2.5919108001981397
523.241379,,0.006247870302083889,523.126,0.4779999852180481,-2.5596412438142493
523.7068969999999,,0.003622558771918382,523.592,0.47600001096725464,-2.564376379536511
524.172414,,0.0005666300354760474,524.055,0.5249999761581421,-2.4579554131796444
524.637931,,0.0012588077927579739,524.525,0.46700000762939453,-2.5845936297505845
525.103448,,0.0017183855885640439,524.985,0.4729999899864197,-2.5717348878842103
525.568966,,0.0026250150966889902,525.454,0.45899999141693115,-2.6023801743458295
526.034483,,0.005286547061895287,525.915,0.47200000286102295,-2.5741287650408777
526.5,,0.008351557321362401,526.385,0.503000020980835,-2.5065855566592576
526.9655170000001,,0.009219440523543008,526.851,0.4690000116825104,-2.580577953399602
527.4310340000001,,0.007180513379844333,527.314,0.47699999809265137,-2.562993583195704
527.8965519999999,,0.0039553432858622836,527.78,0.47600001096725464,-2.564948732930684
528.362069,,0.0013408540399778553,528.245,0.4779999852180481,-2.56030660000811
528.827586,,0.000369415820585846,528.71,0.48100000619888306,-2.553433078155275
529.293103,,0.001576897967590301,529.17,0.4699999988079071,-2.5770186456511204
529.7586210000001,,0.0024062333056089073,529.636,0.4819999933242798,-2.550465161611775
530.224138,,0.003114193653242412,530.1,0.46299999952316284,-2.591432512614135
530.689655,,0.004383140685628056,530.565,0.4830000102519989,-2.5474286351234694
531.155172,,0.006372841747140955,531.033,0.46700000762939453,-2.5818655239032795
531.62069,,0.008181228339864321,531.496,0.49399998784065247,-2.5226426668238364
532.086207,,0.009102614493616469,531.966,0.4749999940395355,-2.563671753166631
532.5517239999999,,0.009938292210874234,532.429,0.49000000953674316,-2.5306721074432272
533.017241,,0.012150684367802976,532.9,0.4779999852180481,-2.5565513621262244
533.482759,,0.01591493668203278,533.355,0.503000020980835,-2.501883647678481
533.9482760000001,,0.019822474218962046,533.82,0.48500001430511475,-2.5409670100492363
534.413793,,0.022528612918325263,534.292,0.48100000619888306,-2.549622777061168
534.87931,,0.02397992849058053,534.75,0.4909999966621399,-2.52785313194837
535.344828,,0.024776867066022595,535.222,0.5419999957084656,-2.4168328218184087
535.810345,,0.02494834584194789,535.68,0.48399999737739563,-2.543355536937168
536.275862,,0.023886905278107325,536.145,0.4830000102519989,-2.5457619068592914
536.7413789999999,,0.021036354242525958,536.611,0.49000000953674316,-2.5307999383117936
537.206897,,0.015832022369546783,537.081,0.49399998784065247,-2.522425729795655
537.672414,,0.007231264598873014,537.543,0.5210000276565552,-2.4639830857494514
538.137931,,0.005429510378205241,538.007,0.503000020980835,-2.5036080434490002
538.6034480000001,,0.02058565361313738,538.477,0.4909999966621399,-2.5301773707124418
539.0689659999999,,0.03433309604099134,538.937,0.5080000162124634,-2.4935695224446617
539.5344829999999,,0.04299767409918706,539.4,0.5149999856948853,-2.4787384080454613
540.0,,0.045574014004276575,539.866,0.5070000290870667,-2.4965638006890156
540.465517,,0.04337899954905937,540.336,0.503000020980835,-2.505639822011393
540.931034,,0.038057092260316915,540.802,0.5059999823570251,-2.4994197298428706
541.396552,,0.030569338672476975,541.267,0.515999972820282,-2.477893565831023
541.862069,,0.02147446414487898,541.726,0.5419999957084656,-2.4214446531524247
542.327586,,0.011234146955622096,542.192,0.503000020980835,-2.5065372919263313
542.7931030000001,,0.0003518668074761869,542.658,0.515999972820282,-2.4782666821000956
543.258621,,0.010176767276738833,543.123,0.5170000195503235,-2.4760647598827514
543.7241379999999,,0.01863632425442533,543.588,0.5400000214576721,-2.425857862564895
544.189655,,0.023446175685445898,544.051,0.5460000038146973,-2.412615385339374
544.655172,,0.02454564580688347,544.521,0.5339999794960022,-2.438520902934777
545.12069,,0.023592225455581685,544.981,0.5410000085830688,-2.422971971165007
545.5862070000001,,0.02225093261648409,545.451,0.5170000195503235,-2.474910993988151
546.051724,,0.020224242383894645,545.911,0.5419999957084656,-2.420057296467072
546.517241,,0.015413278225986229,546.38,0.5329999923706055,-2.439250450091845
546.982759,,0.006229494474532131,546.846,0.5230000019073486,-2.4606080583223804
547.448276,,0.006552925601940403,547.31,0.5210000276565552,-2.4645362303030107
547.9137929999999,,0.02029862682297559,547.776,0.5239999890327454,-2.457584649466574
548.3793099999999,,0.03233612811260852,548.24,0.5189999938011169,-2.468088440530674
548.844828,,0.04100925922705269,548.706,0.5379999876022339,-2.4263427680618026
549.310345,,0.04552021877335346,549.171,0.5360000133514404,-2.430397008057347
549.775862,,0.045660753151110234,549.637,0.5410000085830688,-2.4192580650257542
550.241379,,0.042041702804419115,550.096,0.5329999923706055,-2.4365064268114525
550.706897,,0.0361837182526202,550.562,0.5450000166893005,-2.410252074689889
551.172414,,0.02982329649545689,551.03,0.5339999794960022,-2.434180418076569
551.637931,,0.023929909526100867,551.492,0.5360000133514404,-2.4298610364546978
552.103448,,0.018435621452923955,551.955,0.5239999890327454,-2.456116873874493
552.568966,,0.01284762953335363,552.425,0.5139999985694885,-2.4780864220764287
553.034483,,0.007002638565614784,552.891,0.5210000276565552,-2.463084701411819
553.5,,0.001302430655180259,553.356,0.5419999957084656,-2.417639559996694
553.965517,,0.0035933657530471405,553.822,0.5170000195503235,-2.4724596434798416
554.4310340000001,,0.007251643198554661,554.281,0.492000013589859,-2.5273172040360343
554.896552,,0.009741354846926323,554.746,0.5099999904632568,-2.488519098452314
555.3620689999999,,0.011506710435290985,555.213,0.5239999890327454,-2.458448162469186
555.827586,,0.012992543972830884,555.678,0.5720000267028809,-2.3543003811625294
556.293103,,0.014391969230600423,556.144,0.5120000243186951,-2.4854297409592023
556.758621,,0.015659432515536087,556.61,0.5180000066757202,-2.4727395926965405
557.224138,,0.01660937150877541,557.073,0.5180000066757202,-2.4730815606178362
557.689655,,0.01701878272501893,557.536,0.4659999907016754,-2.5866637288817658
558.155172,,0.01685175399580529,558.004,0.5130000114440918,-2.484501813709419
558.6206900000001,,0.01645463469409336,558.466,0.5139999985694885,-2.48249184785298
559.0862070000001,,0.01627862107286546,558.937,0.5009999871253967,-2.510910874095159
559.5517239999999,,0.016210451836331848,559.399,0.5019999742507935,-2.508753973162289
560.017241,,0.015448507278856926,559.864,0.5049999952316284,-2.5021641313525076
560.482759,,0.013560975556240291,560.328,0.49399998784065247,-2.526001411428931
560.948276,,0.011723932280194235,560.793,0.4819999933242798,-2.5519476240863805
561.413793,,0.012222923275033517,561.259,0.47600001096725464,-2.5647589053421562
561.87931,,0.0159993251676138,561.725,0.47699999809265137,-2.5622649708729073
562.344828,,0.020826683226122838,562.185,0.47999998927116394,-2.5553685196947717
562.8103450000001,,0.02273285328653819,562.65,0.4880000054836273,-2.5375441670734475
563.275862,,0.01967573367517313,563.122,0.46399998664855957,-2.5894141148196463
563.7413789999999,,0.013523997344323923,563.58,0.47999998927116394,-2.554128598653728
564.206897,,0.008076411087595438,564.048,0.46399998664855957,-2.5885635176155715
564.672414,,0.0053042918201067725,564.51,0.4650000035762787,-2.585978120338512
565.137931,,0.0038903773269427793,564.978,0.47200000286102295,-2.5703500789379485
565.603448,,0.0013377493075603215,565.44,0.47999998927116394,-2.5525836220991307
566.068966,,0.003094008605279567,565.908,0.4729999899864197,-2.56754698567665
566.534483,,0.007838065930875729,566.37,0.4620000123977661,-2.5912840282385194
567.0,,0.010850279846402753,566.836,0.45399999618530273,-2.6085519368528467
567.465517,,0.011345567761003875,567.307,0.45399999618530273,-2.6084627194659036
567.931034,,0.00995602188778556,567.765,0.45500001311302185,-2.606269701920982
568.396552,,0.007939288999329297,568.23,0.4519999921321869,-2.6128666160523837
568.862069,,0.006330172085201995,568.695,0.47600001096725464,-2.56071284583791
569.327586,,0.005197966241587944,569.16,0.4819999933242798,-2.5478426276445996
569.793103,,0.003470211320626189,569.625,0.4749999940395355,-2.563355821375202
570.2586210000001,,2.49726248396741e-05,570.099,0.4699999988079071,-2.574564914827795
570.724138,,0.004781311475164753,570.558,0.492000013589859,-2.5269939418006233
571.189655,,0.009212622501600749,571.025,0.5049999952316284,-2.4990624874256118
571.655172,,0.012088780891123663,571.488,0.4650000035762787,-2.5866190340583315
572.12069,,0.01401490427036582,571.951,0.453000009059906,-2.613182198552399
572.586207,,0.0161375483069926,572.421,0.46700000762939453,-2.583097640182063
573.051724,,0.01828391480302509,572.88,0.4729999899864197,-2.570426534414081
573.517241,,0.019323075261471624,573.35,0.4659999907016754,-2.586049660756174
573.982759,,0.019154218799213935,573.816,0.46399998664855957,-2.590740386850647
574.4482760000001,,0.01920554947283215,574.282,0.4519999921321869,-2.617168843885513
574.913793,,0.020711044672585433,574.74,0.46000000834465027,-2.5999673340187455
575.37931,,0.02333248704781149,575.207,0.45399999618530273,-2.613203187401796
575.844828,,0.025851507487881144,575.672,0.47600001096725464,-2.565367705333129
576.310345,,0.02760202894507462,576.137,0.4729999899864197,-2.571925869980144
576.775862,,0.02869007770320492,576.602,0.49399998784065247,-2.526122340906787
577.241379,,0.02898309891674187,577.066,0.46700000762939453,-2.584821171705383
577.706897,,0.027326746448453565,577.536,0.46000000834465027,-2.5998788144554807
578.172414,,0.021964991416423805,577.999,0.46700000762939453,-2.5843735920914566
578.6379310000001,,0.011666994924120442,578.462,0.46000000834465027,-2.5993153610628457
579.1034480000001,,0.0034856549301982066,578.93,0.48899999260902405,-2.535780592773333
579.5689659999999,,0.021830138970706788,579.392,0.46399998664855957,-2.5898578468506703
580.034483,,0.04013164209603055,579.858,0.4690000116825104,-2.5785525837120495
580.5,,0.05450002645548963,580.324,0.45399999618530273,-2.610810426497682
580.965517,,0.06261285770533297,580.789,0.4650000035762787,-2.586426371308338
581.431034,,0.0654126137983346,581.251,0.4830000102519989,-2.546806969222783
581.896552,,0.06588832435524145,581.717,0.48399999737739563,-2.544251118710705
582.362069,,0.06584372474891265,582.182,0.460999995470047,-2.5940207533501196
582.827586,,0.064464615997285,582.647,0.4519999921321869,-2.6133385167656495
583.2931030000001,,0.06033482697291802,583.114,0.45100000500679016,-2.61528583846173
583.758621,,0.05390234198942522,583.58,0.4569999873638153,-2.602048546784272
584.2241379999999,,0.046937109877852316,584.044,0.46799999475479126,-2.5779883713735128
584.689655,,0.040000338436690173,584.507,0.5239999890327454,-2.45596067706187
585.155172,,0.03175982735073268,584.97,0.45100000500679016,-2.6150501080359434
585.6206900000001,,0.02112701672415882,585.44,0.48500001430511475,-2.5410951396770267
586.0862070000001,,0.009140601368701574,585.904,0.4620000123977661,-2.5913912504625527
586.551724,,0.0019105554201933788,586.366,0.4950000047683716,-2.5197450990300427
587.017241,,0.010741510402097728,586.832,0.46399998664855957,-2.5875869503411146
587.482759,,0.01773265808098198,587.297,0.4490000009536743,-2.6206165405605675
587.948276,,0.023410138457848978,587.763,0.45899999141693115,-2.599216645789818
588.4137929999999,,0.026852588102112735,588.23,0.47600001096725464,-2.56259082366459
588.87931,,0.025976910310783006,588.696,0.46399998664855957,-2.5891576296735717
589.344828,,0.019475450455921202,589.156,0.453000009059906,-2.6135449778187403
589.810345,,0.008531192431642758,589.622,0.4620000123977661,-2.5943463903624226
590.2758620000001,,0.0033232916970877074,590.093,0.47200000286102295,-2.5729434720971542
590.741379,,0.012089115441162588,590.552,0.46000000834465027,-2.599433123507774
591.2068969999999,,0.015243296932656854,591.015,0.4620000123977661,-2.5953736964397094
591.672414,,0.012346611052513857,591.485,0.46000000834465027,-2.5999719689074614
592.137931,,0.004522041952856672,591.948,0.4620000123977661,-2.5957912951921043
592.603448,,0.006283666485844589,592.41,0.46299999952316284,-2.59371942433575
593.068966,,0.01798326801591022,592.876,0.46000000834465027,-2.600288800453973
593.534483,,0.029111678787234762,593.346,0.4740000069141388,-2.5697464947674664
594.0,,0.039374720786072556,593.812,0.4650000035762787,-2.58923922011389
594.4655170000001,,0.049432364237279036,594.271,0.460999995470047,-2.597768261544754
594.9310340000001,,0.05988341324296436,594.736,0.460999995470047,-2.597518010376311
595.3965519999999,,0.07013850239649898,595.203,0.47600001096725464,-2.5645305227478747
595.862069,,0.0779853757868451,595.669,0.4690000116825104,-2.579424635456415
596.327586,,0.08014366906627005,596.133,0.4860000014305115,-2.5419928295667296
596.793103,,0.07356964866940005,596.599,0.4620000123977661,-2.59385908192239
597.2586210000001,,0.05696375903822906,597.06,0.46799999475479126,-2.580352631453125
597.724138,,0.03177259354438038,597.529,0.46000000834465027,-2.597347490404615
598.189655,,0.0021124077873016125,597.992,0.4880000054836273,-2.5359241882054357
598.655172,,0.026457772582001222,598.462,0.4819999933242798,-2.548600234038529
599.12069,,0.0487980245068653,598.922,0.4650000035762787,-2.585278799982986
599.586207,,0.061738019614493295,599.385,0.4749999940395355,-2.563182941139239
600.0517239999999,,0.06450368661534384,599.85,0.47999998927116394,-2.552038849219542
600.517241,,0.05828189719164998,600.322,0.46000000834465027,-2.5954273404619577
600.982759,,0.04599414022488663,600.78,0.4449999928474426,-2.627995877707999
601.448276,,0.03215325589390139,601.251,0.4729999899864197,-2.5669597411248652
601.913793,,0.02118495391628194,601.717,0.4880000054836273,-2.5343234948590676
602.37931,,0.014360974706251233,602.181,0.48500001430511475,-2.5409783155116803
602.844828,,0.00875861956895634,602.647,0.42399999499320984,-2.674067817145129
603.310345,,0.0005073893280039137,603.112,0.49000000953674316,-2.5305372466621954
603.775862,,0.010825309777910455,603.57,0.46799999475479126,-2.5787876637530087
604.2413789999999,,0.021834231194596723,604.04,0.47200000286102295,-2.5704428510986506
604.706897,,0.029083405433705068,604.503,0.46299999952316284,-2.590459489007203
605.172414,,0.03230477390739102,604.966,0.3779999911785126,-2.7760819386851137
605.637931,,0.033794128476023894,605.436,0.47600001096725464,-2.563028145008762
606.1034480000001,,0.03581761098027562,605.895,0.46399998664855957,-2.589626651698667
606.5689659999999,,0.03896991769806581,606.366,0.46799999475479126,-2.581351929368539
607.0344829999999,,0.041848039202342334,606.831,0.4860000014305115,-2.5425474009739175
607.5,,0.04148275433247382,607.296,0.4830000102519989,-2.5494522618194346
607.965517,,0.0350060407666181,607.755,0.46399998664855957,-2.5911619410747435
608.431034,,0.022055828115897434,608.222,0.4749999940395355,-2.5674491163260242
608.896552,,0.0053309886122568295,608.688,0.492000013589859,-2.530593085494363
609.362069,,0.01178076611982689,609.155,0.48399999737739563,-2.548125637284647
609.827586,,0.027692142385759667,609.621,0.49399998784065247,-2.5263612290383475
610.293103,,0.042359154739150674,610.081,0.47699999809265137,-2.563338356983037
610.758621,,0.05544085951848604,610.551,0.515999972820282,-2.4782307566280295
611.2241379999999,,0.06575580048297144,611.014,0.47200000286102295,-2.5738744682474337
611.689655,,0.07214862456817697,611.477,0.47099998593330383,-2.575767570828336
612.155172,,0.07376367202294319,611.94,0.47600001096725464,-2.564529535826223
612.62069,,0.0695843117486623,612.41,0.47699999809265137,-2.5619575507744696
613.0862070000001,,0.05911891853003523,612.876,0.46000000834465027,-2.598564973734772
613.551724,,0.04418597042529755,613.338,0.46399998664855957,-2.5893984777479324
614.017241,,0.028917179598577324,613.804,0.4790000021457672,-2.5562582963226697
614.4827590000001,,0.016800376070744857,614.27,0.46299999952316284,-2.5906617303938333
614.948276,,0.007978400163558606,614.735,0.46399998664855957,-2.5880479702660293
615.4137929999999,,0.00020903333275080184,615.2,0.46299999952316284,-2.5898249966886238
615.8793099999999,,0.007830218051865801,615.666,0.4560000002384186,-2.6047200217778137
616.344828,,0.015038387303296716,616.125,0.46399998664855957,-2.586992478969521
616.810345,,0.019545603776881283,616.591,0.4790000021457672,-2.5540801574845204
617.275862,,0.020876850193770943,617.055,0.4830000102519989,-2.5452051303572096
617.741379,,0.020053319150975277,617.525,0.46700000762939453,-2.579979992884869
618.206897,,0.0181808469085597,617.988,0.4819999933242798,-2.5472963989199453
618.672414,,0.015571918459120128,618.451,0.48399999737739563,-2.54301462607486
619.137931,,0.012049897182933684,618.919,0.4569999873638153,-2.6019909285253986
619.603448,,0.007651643102318722,619.381,0.4699999988079071,-2.573894440908976
620.068966,,0.00314466545538257,619.847,0.4970000088214874,-2.5153626276535586
620.534483,,0.00010882385789637919,620.314,0.46799999475479126,-2.578891277274479
621.0,,9.22460245912806e-05,620.779,0.4519999921321869,-2.614143694721401
621.465517,,0.003090923363153532,621.244,0.4740000069141388,-2.56664224411016
621.9310340000001,,0.007081642724822776,621.71,0.46399998664855957,-2.5888789369250804
622.396552,,0.009740558327764765,622.17,0.4749999940395355,-2.565371103179723
622.862069,,0.010656495270323267,622.635,0.43799999356269836,-2.646431977129872
623.327586,,0.0112999028694819,623.1,0.4690000116825104,-2.579324860442294
623.793103,,0.012822750302678784,623.565,0.46399998664855957,-2.5906156837631538
624.258621,,0.014690180909664475,624.033,0.4309999942779541,-2.662862969863942
624.724138,,0.015808439937352984,624.496,0.45500001311302185,-2.6108714934931148
625.189655,,0.016143807093927345,624.966,0.46399998664855957,-2.5914943786690015
625.655172,,0.016398420504391352,625.429,0.4869999885559082,-2.541542113576003
626.1206900000001,,0.016559187866132828,625.895,0.4830000102519989,-2.550333363988638
626.5862070000001,,0.015777421612345903,626.359,0.4650000035762787,-2.5895433393652594
627.0517239999999,,0.01371520753379964,626.824,0.46299999952316284,-2.5938133547266493
627.5172409999999,,0.011191176853917064,627.289,0.46000000834465027,-2.6001835081704603
627.982759,,0.009182656227634924,627.755,0.453000009059906,-2.6151951237679087
628.448276,,0.0077694081565984775,628.222,0.46399998664855957,-2.590925376671909
628.913793,,0.006490986210962927,628.68,0.47099998593330383,-2.5753133884195356
629.37931,,0.0052980050451365245,629.145,0.45899999141693115,-2.6010498061435454
629.844828,,0.004558661172712149,629.61,0.45899999141693115,-2.6006094073845887
630.3103450000001,,0.0043564661258416616,630.081,0.46399998664855957,-2.5892564652901515
630.7758620000001,,0.00442527402354149,630.543,0.45100000500679016,-2.617114117538309
631.2413789999999,,0.0047170345907041585,631.011,0.45500001311302185,-2.6079444088371844
631.706897,,0.00531920726971833,631.474,0.453000009059906,-2.611870489221649
632.172414,,0.005660229031272108,631.937,0.46299999952316284,-2.589689815606839
632.637931,,0.004620419902747781,632.407,0.45500001311302185,-2.6067738207359348
633.103448,,0.0020458730565916243,632.865,0.4480000138282776,-2.6217391884980845
633.568966,,0.00043264006345257266,633.336,0.47099998593330383,-2.5714139534209033
634.034483,,0.0010323193433469735,633.801,0.3709999918937683,-2.7891391718343144
634.5,,8.057386140239364e-05,634.267,0.46399998664855957,-2.5864676674665312
634.9655170000001,,0.0003773509691272879,634.725,0.47600001096725464,-2.5603491015952167
635.431034,,0.0006990526761124508,635.197,0.4620000123977661,-2.5909550760703217
635.8965519999999,,0.0021197580503298473,635.655,0.46700000762939453,-2.580243237810768
636.362069,,0.002310009042197919,636.122,0.44699999690055847,-2.6240689636688024
636.827586,,0.0013411201056167201,636.588,0.453000009059906,-2.611313800877724
637.293103,,0.0005283849757904204,637.051,0.5090000033378601,-2.489679567876181
637.7586210000001,,0.0007965927807935193,637.521,0.4699999988079071,-2.5750574789221394
638.224138,,0.0021427251990168814,637.985,0.4699999988079071,-2.575496352927706
638.689655,,0.004212364602949201,638.447,0.503000020980835,-2.50405475763954
639.155172,,0.006575471157015661,638.911,0.49000000953674316,-2.5328313021518105
639.62069,,0.008476010202117945,639.381,0.45899999141693115,-2.6008104498213247
640.086207,,0.009111115355214878,639.846,0.46399998664855957,-2.5903331120453075
640.551724,,0.008595409208515824,640.311,0.45100000500679016,-2.619034444582877
641.017241,,0.008137288930156044,640.77,0.4950000047683716,-2.523504013774697
641.482759,,0.008669405860449503,641.237,0.4560000002384186,-2.6087420891417237
641.9482760000001,,0.00962943847393701,641.703,0.46000000834465027,-2.600231288100936
642.413793,,0.009735379817523038,642.17,0.49300000071525574,-2.52846665149847
642.87931,,0.00875204414005313,642.636,0.46399998664855957,-2.591700613260803
643.344828,,0.007766758321443362,643.101,0.47099998593330383,-2.576424350009016
643.810345,,0.007696457901505693,643.566,0.47200000286102295,-2.574142283184493
644.275862,,0.008174576012360388,644.029,0.46399998664855957,-2.5913936995743163
644.7413789999999,,0.008171131620029326,644.492,0.4690000116825104,-2.580253831946544
645.206897,,0.007309573116365362,644.955,0.46299999952316284,-2.5930180627946213
645.672414,,0.006227819905745392,645.425,0.4129999876022339,-2.7015921811790675
646.1379310000001,,0.005743194586604235,645.891,0.4690000116825104,-2.5791905156432287
646.6034480000001,,0.005924208656455557,646.357,0.4749999940395355,-2.565693199813461
647.0689659999999,,0.006092045374367344,646.815,0.4869999885559082,-2.5391070283259243
647.534483,,0.005604300598434008,647.282,0.45500001311302185,-2.6083777413419162
648.0,,0.004422603574822001,647.748,0.4699999988079071,-2.5752624971092453
648.465517,,0.0029599742005277717,648.214,0.45500001311302185,-2.6075305306337335
648.931034,,0.0017053372037491529,648.68,0.46700000762939453,-2.581011334122566
649.396552,,0.001070115631293882,649.141,0.46399998664855957,-2.5872192827698828
649.862069,,0.0011450792212687327,649.606,0.46799999475479126,-2.578233600934828
650.327586,,0.0012833522036339255,650.074,0.45100000500679016,-2.6150648233066205
650.7931030000001,,0.0003817082181563896,650.537,0.43799999356269836,-2.643253674943076
651.258621,,0.001789663872886454,651.0,0.46299999952316284,-2.588730233664494
651.7241379999999,,0.00376751228070657,651.47,0.46700000762939453,-2.5800356399282864
652.189655,,0.00369794881454251,651.933,0.47200000286102295,-2.56923817106857
652.655172,,0.001652508811865718,652.395,0.4880000054836273,-2.5345477087466137
653.12069,,6.272371284505263e-05,652.861,0.46399998664855957,-2.5870700328136778
653.5862070000001,,0.0012985982023698778,653.325,0.37599998712539673,-2.779087764923261
654.051724,,0.004856265654178285,653.79,0.46299999952316284,-2.589896872863225
654.517241,,0.007490966544134467,654.255,0.45899999141693115,-2.5990058724993013
654.982759,,0.006611815605466161,654.721,0.45100000500679016,-2.616858825611557
655.448276,,0.0033517673399536124,655.188,0.46299999952316284,-2.5911554820271947
655.9137929999999,,0.0015953830273806675,655.654,0.46000000834465027,-2.5981348596351257
656.37931,,0.0036818828425197484,656.118,0.4650000035762787,-2.587674428880637
656.844828,,0.007554773149817585,656.584,0.4519999921321869,-2.6164060716543975
657.310345,,0.008732634098095554,657.052,0.45500001311302185,-2.6102436157122506
657.7758620000001,,0.004994202494101166,657.514,0.45899999141693115,-2.601855768681371
658.241379,,0.0013661109295207672,657.977,0.44600000977516174,-2.6304482563469374
658.7068969999999,,0.005880143219507883,658.44,0.47200000286102295,-2.5740086968359623
659.172414,,0.0059592521534226044,658.908,0.4690000116825104,-2.580678357330613
659.637931,,0.002613101669654925,659.37,0.4429999887943268,-2.637381632207137
660.103448,,0.0010868532049561497,659.835,0.453000009059906,-2.6155772698890054
660.568966,,0.0026662062456498563,660.3,0.4690000116825104,-2.5806253673144486
661.034483,,0.001724748879984921,660.765,0.45899999141693115,-2.6022450717652306
661.5,,0.0003837516168727393,661.23,0.453000009059906,-2.6150821431967857
661.965517,,0.0018992687997569618,661.696,0.46700000762939453,-2.5842857042513083
662.4310340000001,,0.0019368001409278926,662.163,0.4790000021457672,-2.5577944308313008
662.8965519999999,,0.0008890963294008504,662.629,0.4390000104904175,-2.6445514257743756
663.362069,,0.0002404532363370883,663.096,0.42800000309944153,-2.6680995361280635
663.827586,,0.0008868220743066183,663.562,0.46399998664855957,-2.5892362454847118
664.293103,,0.0012951065357622552,664.022,0.46399998664855957,-2.5888013330768325
664.7586210000001,,0.0019130500735892824,664.492,0.45500001311302185,-2.6079838890769005
665.224138,,0.002581814190196561,664.955,0.4440000057220459,-2.6315468792373014
665.689655,,0.0025108213010004866,665.417,0.4620000123977661,-2.591964426932385
666.155172,,0.0012487121566648425,665.883,0.47999998927116394,-2.5524276601559652
666.62069,,0.0002813788584157072,666.346,0.46399998664855957,-2.587019454945079
667.086207,,0.00013406799186439208,666.811,0.4749999940395355,-2.562850276202944
667.5517239999999,,0.0026932208926814475,667.277,0.46000000834465027,-2.5953948248658794
668.017241,,0.006671772676113514,667.743,0.46299999952316284,-2.5887969488630933
668.482759,,0.008740457023240432,668.208,0.45500001311302185,-2.6062395387818955
668.948276,,0.007266391170201403,668.673,0.4569999873638153,-2.601970865274466
669.413793,,0.0037469296508514365,669.141,0.46299999952316284,-2.589059904725257
669.87931,,0.0012046445666894813,669.606,0.45100000500679016,-2.6154320935649755
670.3448279999999,,0.0010244169298297677,670.07,0.47600001096725464,-2.5612546295167715
670.810345,,0.0018262994545211724,670.532,0.4650000035762787,-2.585559663196949
671.275862,,0.0014708028918706565,670.996,0.46700000762939453,-2.5815829387856146
671.7413789999999,,0.0004951947719101215,671.466,0.4659999907016754,-2.584171559679774
672.206897,,0.0027980730749487016,671.926,0.4399999976158142,-2.641243821834299
672.672414,,0.00418535922003587,672.395,0.4620000123977661,-2.5937460424103436
673.137931,,0.004410496574525209,672.861,0.4620000123977661,-2.5941703071095534
673.6034480000001,,0.003849204309579655,673.324,0.46399998664855957,-2.5902157777700032
674.068966,,0.003116588953698779,673.79,0.45500001311302185,-2.610192641747014
674.5344829999999,,0.003052839843380177,674.255,0.46399998664855957,-2.5909092734087937
675.0,,0.004171738290242068,674.721,0.48100000619888306,-2.5541416551631904
675.465517,,0.005803178701495582,675.186,0.46000000834465027,-2.60009924383375
