Trial: ,19
Threshold: ,0.0
Maximum EMG: ,0.03484511687029372
Success: ,True

EMG Time,Raw EMG,Filtered EMG,Force Time,Raw Force (V),Filtered Force (N)
0.0,samples,1.3324346465502926e-06,0.467,0.5419999957084656,-2.419443371780357
0.46551699999999996,time,1.435338061535671e-06,0.93,0.5230000019073486,-2.4606161437477465
0.9310339999999999,value,1.5375698025550696e-06,1.396,0.5049999952316284,-2.4996109571226266
1.396552,,1.6387364881381137e-06,1.86,0.49799999594688416,-2.5146491033022498
1.862069,,1.7384315436653513e-06,2.326,0.5289999842643738,-2.4469134269271677
2.327586,,1.8362360806966614e-06,2.79,0.49000000953674316,-2.531703403997229
2.793103,,1.931719858164616e-06,3.256,0.515999972820282,-2.474907061300665
3.258621,,2.024442325542492e-06,3.727,0.527999997138977,-2.4486411561443786
3.724138,,2.113953747809181e-06,4.189,0.5130000114440918,-2.481230881000684
4.189654999999999,,2.199796411734044e-06,4.657,0.5170000195503235,-2.4724608778037265
4.655172,,2.281505912694304e-06,5.119,0.6320000290870667,-2.221894575577018
5.12069,,2.3586125209165467e-06,5.587,0.5090000033378601,-2.4898787952881665
5.586207,,2.4306426257029416e-06,6.049,0.5149999856948853,-2.476850899897194
6.051723999999999,,2.497120255862683e-06,6.514,0.515999972820282,-2.4747503978067167
6.517241,,2.5575686742206855e-06,6.979,0.5299999713897705,-2.444358613683071
6.982759,,2.6115120437196393e-06,7.445,0.5170000195503235,-2.4728176630612486
7.448276,,2.6584771622691058e-06,7.908,0.5170000195503235,-2.472977760737067
7.913793000000001,,2.6979952631273625e-06,8.374,0.4959999918937683,-2.5189086561412797
8.379309999999998,,2.7296038772293232e-06,8.838,0.5180000066757202,-2.471171554713719
8.844828000000001,,2.75284875349818e-06,9.305,0.5199999809265137,-2.4670152034351926
9.310345,,2.7672858328006325e-06,9.768,0.5339999794960022,-2.4367158705543472
9.775862,,2.7724832708269098e-06,10.231,0.531000018119812,-2.443447806543169
10.241379,,2.768023504798651e-06,10.701,0.550000011920929,-2.4022375737105066
10.706897,,2.7535053585313537e-06,11.163,0.5419999957084656,-2.4198330492636355
11.172414,,2.7285461800050466e-06,11.631,0.5260000228881836,-2.4548352962545836
11.637931,,2.692784005228464e-06,12.094,0.49000000953674316,-2.5333857250709384
12.103447999999998,,2.6458797418199017e-06,12.559,0.5130000114440918,-2.4833689249720536
12.568966000000001,,2.5875193653736195e-06,13.022,0.5329999923706055,-2.4398582366047328
13.034483,,2.517416121335757e-06,13.488,0.5139999985694885,-2.481282555814171
13.5,,2.435312724779854e-06,13.952,0.5370000004768372,-2.431170673093053
13.965517,,2.3409835501509116e-06,14.418,0.515999972820282,-2.4768867506234047
14.431034,,2.2342368027401438e-06,14.882,0.5230000019073486,-2.461569426579098
14.896552,,2.1149166633619302e-06,15.348,0.5490000247955322,-2.4048285748161162
15.362069,,1.9829053974316697e-06,15.812,0.5230000019073486,-2.461350856887324
15.827586000000002,,1.8381254193900085e-06,16.278,0.5220000147819519,-2.463384486963798
16.293103,,1.6805413031870385e-06,16.745,0.5249999761581421,-2.4566862666877607
16.758621,,1.5101617293312466e-06,17.208,0.4860000014305115,-2.541479417797471
17.224138,,1.3270413588240276e-06,17.671,0.5260000228881836,-2.454153428671526
17.689655,,1.1312826241431466e-06,18.141,0.5339999794960022,-2.4365429041746243
18.155172,,9.230374273093793e-07,18.601,0.5440000295639038,-2.4145774880559987
18.62069,,7.025087349713326e-07,19.071,0.5270000100135803,-2.4514433463612106
19.086207,,4.6995206037581264e-07,19.53,0.5220000147819519,-2.4621784403381053
19.551724,,2.256768220566773e-07,19.997,0.5400000214576721,-2.4228223728615523
20.017241000000002,,2.9952430924587185e-08,20.463,0.5090000033378601,-2.4902419183208258
20.482758999999998,,2.965149373167582e-07,20.928,0.5090000033378601,-2.4901491674179246
20.948276,,5.735327956511874e-07,21.393,0.5210000276565552,-2.4639412899141604
21.413793000000002,,8.604701997911854e-07,21.86,0.5099999904632568,-2.487872550598128
21.87931,,1.1567328478475097e-06,22.326,0.5019999742507935,-2.5052989024701766
22.344828,,1.4616675340538388e-06,22.79,0.515999972820282,-2.474825993588061
22.810344999999998,,1.7745619329583361e-06,23.256,0.5249999761581421,-2.4552756172230388
23.275862,,2.0946445850060356e-06,23.716,0.44200000166893005,-2.636189088787516
23.741379,,2.4210850922608795e-06,24.187,0.5270000100135803,-2.4511161048490413
24.206897,,2.7529945326451103e-06,24.65,0.5210000276565552,-2.464321488791944
24.672414,,3.089426100656681e-06,25.112,0.5339999794960022,-2.4361480093606893
25.137931,,3.429375982061941e-06,25.583,0.5149999856948853,-2.4777017487148902
25.603448,,3.7717844695507035e-06,26.045,0.5419999957084656,-2.4190431699587074
26.068966,,4.115537325783727e-06,26.511,0.5239999890327454,-2.458424048548681
26.534483,,4.4594673996585675e-06,26.976,0.4959999918937683,-2.5195873699815396
27.0,,4.802356500968843e-06,27.435,0.531000018119812,-2.4434877262512877
27.465517,,5.142937537934509e-06,27.901,0.5249999761581421,-2.4566997616024766
27.931034,,5.479896921337164e-06,28.367,0.5170000195503235,-2.474251609753176
28.396552,,5.811877238205466e-06,28.832,0.5199999809265137,-2.467818216941371
28.862069,,6.137480197162155e-06,29.298,0.515999972820282,-2.4766124700302066
29.327586,,6.455269846667165e-06,29.76,0.5260000228881836,-2.4548806420324865
29.793103000000002,,6.763776066471901e-06,30.23,0.5270000100135803,-2.4527304490488695
30.258620999999998,,7.0614983316396675e-06,30.694,0.5170000195503235,-2.4745186184108663
30.724138,,7.346909747487834e-06,31.156,0.5249999761581421,-2.457065155766686
31.189655000000002,,7.6184613527707225e-06,31.624,0.5210000276565552,-2.465730412772781
31.655172000000004,,7.874586687350305e-06,32.086,0.5170000195503235,-2.4743729626353645
32.12069,,8.113706619497107e-06,32.551,0.5139999985694885,-2.480816927824025
32.586207,,8.334234426828486e-06,33.022,0.5210000276565552,-2.4654575104315604
33.051724,,8.5345811237287e-06,33.48,0.5339999794960022,-2.4370126877915332
33.517241000000006,,8.713161026907592e-06,33.949,0.515999972820282,-2.4760958299152738
33.982759,,8.868397549545603e-06,34.414,0.5070000290870667,-2.4955656338400174
34.448276,,8.99872921324563e-06,34.878,0.5130000114440918,-2.4823552441891152
34.913793,,9.102615865770377e-06,35.344,0.5289999842643738,-2.447361500223541
35.37931,,9.17854509129122e-06,35.809,0.5360000133514404,-2.43198164908607
35.844828,,9.225038798615214e-06,36.275,0.5249999761581421,-2.4558270871419703
36.310345,,9.24065997159482e-06,36.738,0.4620000123977661,-2.5929763453057237
36.775862,,9.224019564664803e-06,37.2,0.5189999938011169,-2.468706320105276
37.241378999999995,,9.173783525196848e-06,37.668,0.5249999761581421,-2.455566965457604
37.706897000000005,,9.08867992311975e-06,38.131,0.5149999856948853,-2.4773058606673897
38.172414,,8.967506167026315e-06,38.601,0.5210000276565552,-2.4642072102541914
38.637931,,8.809136284782545e-06,39.064,0.593999981880188,-2.3051589760061706
39.103448,,8.612528245475228e-06,39.529,0.515999972820282,-2.475104715303058
39.568965999999996,,8.376731298386475e-06,39.993,0.5249999761581421,-2.4555265926089875
40.034483,,8.100893303573027e-06,40.459,0.5109999775886536,-2.486076212342933
40.5,,7.784268027560302e-06,40.923,0.5299999713897705,-2.4447474967398355
40.965517,,7.426222376641404e-06,41.389,0.5049999952316284,-2.4992941907553288
41.431034,,7.026243539305698e-06,41.857,0.515999972820282,-2.475422332558712
41.896552,,6.58394600841568e-06,42.315,0.5239999890327454,-2.458096081855041
42.362069000000005,,6.099078452910629e-06,42.782,0.5170000195503235,-2.473455801399532
42.827586000000004,,5.571530408046716e-06,43.248,0.5109999775886536,-2.4866402986899487
43.293103,,5.001338752491654e-06,43.716,0.5249999761581421,-2.45625183924633
43.758621,,4.388693939983486e-06,44.178,0.5289999842643738,-2.4476462959939695
44.224138,,3.7339459527433974e-06,44.646,0.5070000290870667,-2.495678988578923
44.689655,,3.0376099434073006e-06,45.108,0.5189999938011169,-2.4696289902382693
45.155172,,2.3003715319158105e-06,45.574,0.5260000228881836,-2.454460689626962
45.620689999999996,,1.5230917235827341e-06,46.04,0.5339999794960022,-2.437099778790676
46.086206999999995,,7.068114144536455e-07,46.505,0.5299999713897705,-2.4458664929462377
46.551724,,1.47244549926362e-07,46.972,0.5149999856948853,-2.47858139222635
47.017241,,1.0376637960880251e-06,47.43,0.5170000195503235,-2.4742423211327664
47.482759,,1.9628433580541517e-06,47.895,0.5370000004768372,-2.4306705253754513
47.948276,,2.9209871597096596e-06,48.36,0.5130000114440918,-2.482942129487394
48.413793,,3.910104076718779e-06,48.827,0.515999972820282,-2.4763745442546727
48.879310000000004,,4.92800660992461e-06,49.292,0.515999972820282,-2.476328669455868
49.344828,,5.972310201365821e-06,49.76,0.5249999761581421,-2.4566621896578464
49.810345,,7.040433223099286e-06,50.223,0.5239999890327454,-2.458771032560699
50.275862,,8.129597667923037e-06,50.686,0.5289999842643738,-2.447798825575292
50.741379,,9.236830569848454e-06,51.156,0.531000018119812,-2.4433554667266035
51.206897,,1.0358966180772127e-05,51.62,0.5239999890327454,-2.4585155616203656
51.672414,,1.1492648928244676e-05,52.082,0.515999972820282,-2.4758527221693387
52.137931,,1.263433717752477e-05,52.547,0.527999997138977,-2.4496180322994507
52.603448,,1.378030781924114e-05,53.01,0.5270000100135803,-2.4517092148066344
53.068966,,1.492666170196322e-05,53.476,0.5120000243186951,-2.484307291260011
53.534483,,1.606932992680285e-05,53.942,0.5170000195503235,-2.4733408020593712
54.0,,1.7204081018836178e-05,54.407,0.5170000195503235,-2.473277801708145
54.465517,,1.832652898764802e-05,54.871,0.5299999713897705,-2.4449038171451143
54.931034,,1.943214228666279e-05,55.337,0.4790000021457672,-2.55597610548202
55.396552,,2.0516253678139514e-05,55.801,0.5189999938011169,-2.468805879314112
55.862069,,2.1574071007777095e-05,56.267,0.5299999713897705,-2.4448304570818236
56.327586,,2.2600688889803814e-05,56.735,0.5370000004768372,-2.429581980990508
56.793102999999995,,2.3591101300217107e-05,57.197,0.515999972820282,-2.475347689254351
57.258621000000005,,2.4540215072501426e-05,57.66,0.5130000114440918,-2.481909379132276
57.724138,,2.5442864286689758e-05,58.13,0.5210000276565552,-2.4645170821537112
58.189655,,2.629382553905519e-05,58.594,0.5419999957084656,-2.4188115981976206
58.655172,,2.7087834076030353e-05,59.056,0.515999972820282,-2.475509807517929
59.120689999999996,,2.781960077216314e-05,59.522,0.5210000276565552,-2.464675800959985
59.586207,,2.8483829928035998e-05,59.987,0.5230000019073486,-2.460382571405898
60.051724,,2.9075237860113006e-05,60.452,0.5170000195503235,-2.4735213001305754
60.517241,,2.958857225044462e-05,60.919,0.515999972820282,-2.4757682459984967
60.982758999999994,,3.0018632220065856e-05,61.385,0.5170000195503235,-2.4736574316515068
61.448276,,3.0360289085781213e-05,61.851,0.515999972820282,-2.475902211497989
61.913793,,3.0608507755852204e-05,62.31,0.5139999985694885,-2.480322080041454
62.379310000000004,,3.07583687159038e-05,62.783,0.515999972820282,-2.4760226950458506
62.84482800000001,,3.080509055215875e-05,63.241,0.515999972820282,-2.476074477646552
63.310345000000005,,3.0744052954907965e-05,63.709,0.5249999761581421,-2.4565110402464323
63.775862000000004,,3.0570820140946645e-05,64.172,0.515999972820282,-2.4761548861410083
64.241379,,3.0281164629564725e-05,64.642,0.5540000200271606,-2.3933925014944233
64.706897,,2.98710913025941e-05,65.104,0.5180000066757202,-2.4718397311309626
65.172414,,2.9336861674999e-05,65.57,0.5109999775886536,-2.4870962979690208
65.637931,,2.867501829856942e-05,66.034,0.531000018119812,-2.4435200488526925
66.103448,,2.7882409217456587e-05,66.5,0.5270000100135803,-2.4522221836252434
66.56896599999999,,2.6956212390593588e-05,66.965,0.5249999761581421,-2.4565581675346864
67.03448300000001,,2.5893959992491023e-05,67.43,0.5080000162124634,-2.4935660657471717
67.5,,2.469356250050674e-05,67.89,0.5,-2.5109603208321816
67.965517,,2.3353332473478495e-05,68.356,0.5080000162124634,-2.493491643108285
68.431034,,2.1872007923598548e-05,68.82,0.5199999809265137,-2.4673046214141237
68.896552,,2.024877518061905e-05,69.286,0.515999972820282,-2.4759725403779793
69.362069,,1.8483291144925882e-05,69.757,0.5540000200271606,-2.3931339104514535
69.827586,,1.6575704823726147e-05,70.219,0.503000020980835,-2.5041926693299383
70.293103,,1.4526678042579414e-05,70.682,0.5339999794960022,-2.436601515515111
70.75862099999999,,1.2337405222785163e-05,71.145,0.5260000228881836,-2.4539777815367856
71.22413800000001,,1.000963211373675e-05,71.616,0.5299999713897705,-2.4452114842122317
71.689655,,7.5456733682849796e-06,72.078,0.5299999713897705,-2.445161769910068
72.15517200000001,,4.9484288484397325e-06,72.544,0.5149999856948853,-2.4777951135956275
72.62069,,2.2213985483941925e-06,73.008,0.515999972820282,-2.475575006942325
73.086207,,6.313039780999465e-07,73.473,0.5270000100135803,-2.451574091138013
73.551724,,3.6049397985296062e-06,73.938,0.5260000228881836,-2.453723150881374
74.017241,,6.6941345022444994e-06,74.403,0.5070000290870667,-2.4950948647077893
74.482759,,9.892869931259129e-06,74.868,0.5120000243186951,-2.484187105995827
74.94827599999999,,1.3194477849829975e-05,75.334,0.5170000195503235,-2.47328782017802
75.41379300000001,,1.6591635659189115e-05,75.802,0.5199999809265137,-2.4667541617767488
75.87931,,2.00763642611247e-05,76.26,0.5339999794960022,-2.4362630115706345
76.344828,,2.3640028170922105e-05,76.731,0.531000018119812,-2.4428158156847757
76.810345,,2.7273337976507815e-05,77.193,0.5419999957084656,-2.4188739986838543
77.275862,,3.0966355236462657e-05,77.661,0.5130000114440918,-2.482084188924062
77.741379,,3.470849990488496e-05,78.123,0.5180000066757202,-2.4712267582747276
78.206897,,3.848856036588236e-05,78.587,0.4950000047683716,-2.52137805631438
78.67241399999999,,4.229470615474961e-05,79.056,0.492000013589859,-2.5279629047691583
79.137931,,4.611450343664655e-05,79.515,0.5210000276565552,-2.4648364838644294
79.603448,,4.993493330682558e-05,79.987,0.515999972820282,-2.475787626703237
80.068966,,5.374241296917234e-05,80.445,0.5180000066757202,-2.471489610922638
80.53448300000001,,5.7522819842020975e-05,80.912,0.5289999842643738,-2.447583829423114
81.0,,6.12615186318918e-05,81.378,0.5210000276565552,-2.465070433136719
81.465517,,6.494339140698109e-05,81.842,0.5170000195503235,-2.4738394761635965
81.931034,,6.855287069292134e-05,82.307,0.5329999923706055,-2.4390311136718323
82.396552,,7.207397560353535e-05,82.78,0.550000011920929,-2.4020373966937867
82.86206899999999,,7.549035100904501e-05,83.238,0.5379999876022339,-2.4282161575872423
83.327586,,7.878530973348091e-05,83.701,0.5360000133514404,-2.4325991461202836
83.79310299999999,,8.194187776189018e-05,84.171,0.515999972820282,-2.4761888246954205
84.258621,,8.494284242637993e-05,84.635,0.527999997138977,-2.450052590271928
84.72413800000001,,8.777080352808288e-05,85.097,0.5040000081062317,-2.5023389210205393
85.189655,,9.040822733981937e-05,85.563,0.5220000147819519,-2.4631134636048935
85.65517200000001,,9.283750342158098e-05,86.025,0.5199999809265137,-2.467452501529297
86.12069,,9.504100416800851e-05,86.491,0.5540000200271606,-2.3933508527275285
86.586207,,9.700114699381185e-05,86.956,0.5370000004768372,-2.4303509232356886
87.051724,,9.870045904961851e-05,87.422,0.515999972820282,-2.4760573094786915
87.517241,,0.00010012164434707774,87.886,0.5260000228881836,-2.454219083926306
87.98275899999999,,0.00010124765315822881,88.352,0.4339999854564667,-2.654599919239069
88.448276,,0.00010206175354020816,88.819,0.5249999761581421,-2.4562873363051354
88.913793,,0.00010254760482236284,89.285,0.5339999794960022,-2.43662273692095
89.37931,,0.00010268933287880744,89.746,0.5249999761581421,-2.4561719149843464
89.844828,,0.00010247160699545335,90.215,0.5170000195503235,-2.473542000662776
90.310345,,0.0001018797181266079,90.675,0.5260000228881836,-2.453876414780126
90.775862,,0.00010089965832243477,91.145,0.515999972820282,-2.4756078926644416
91.241379,,9.951820109494459e-05,91.609,0.5419999957084656,-2.4189114900221207
91.706897,,9.77229824767998e-05,92.071,0.5130000114440918,-2.4820455115590296
92.17241399999999,,9.550258251412973e-05,92.537,0.5199999809265137,-2.4667546771522493
92.63793100000001,,9.284660692181922e-05,93.0,0.5109999775886536,-2.4863301799837605
93.103448,,8.974576861741706e-05,93.466,0.515999972820282,-2.4754136989600406
93.568966,,8.619196883797156e-05,93.93,0.515999972820282,-2.475400319092244
94.03448300000001,,8.21783775328028e-05,94.396,0.5299999713897705,-2.444895920708873
94.5,,7.769951271452612e-05,94.861,0.5270000100135803,-2.4514384053601965
94.965517,,7.275131844061518e-05,95.327,0.503000020980835,-2.503742933858733
95.431034,,6.733124108849778e-05,95.794,0.5210000276565552,-2.4645550412404345
95.896552,,6.143830357868104e-05,96.259,0.5109999775886536,-2.4863798325112842
96.36206899999999,,5.5073177192764746e-05,96.72,0.5170000195503235,-2.473355634335076
96.827586,,4.8238250626491946e-05,97.189,0.5289999842643738,-2.4472680611362976
97.293103,,4.093769591226212e-05,97.65,0.5400000214576721,-2.4233653351952715
97.758621,,3.317753084086252e-05,98.12,0.5099999904632568,-2.4887922495268286
98.224138,,2.4965677508615513e-05,98.583,0.49000000953674316,-2.532437168845099
98.689655,,1.6312016613756417e-05,99.045,0.5130000114440918,-2.4824039464816137
99.155172,,7.2284371247055375e-06,99.511,0.49000000953674316,-2.5325903288146354
99.62069,,2.2711190569634668e-06,99.975,0.5460000038146973,-2.410662440733914
100.086207,,1.2170617814573547e-05,100.441,0.5400000214576721,-2.4238060524568916
100.551724,,2.2451899288247905e-05,100.908,0.5149999856948853,-2.4783369893644394
101.017241,,3.309465046917671e-05,101.374,0.5410000085830688,-2.4217482259733925
101.482759,,4.40763842789381e-05,101.838,0.49799999594688416,-2.515476477702743
101.948276,,5.537242548921027e-05,102.304,0.5139999985694885,-2.4806538855428175
102.413793,,6.695590382828196e-05,102.772,0.5109999775886536,-2.4872141957309806
102.87931,,7.879775461022747e-05,103.233,0.5199999809265137,-2.4676178359699907
103.344828,,9.086672721042989e-05,103.701,0.5199999809265137,-2.467615545569145
103.810345,,0.00010312940169728357,104.164,0.5059999823570251,-2.49810033806049
104.275862,,0.00011555021391436398,104.627,0.515999972820282,-2.476283965149975
104.741379,,0.00012809148929010107,105.097,0.5099999904632568,-2.4893127401194515
105.206897,,0.00014071348563302193,105.555,0.5669999718666077,-2.3650732817083804
105.672414,,0.00015337444514993247,106.025,0.5339999794960022,-2.4368986081622235
106.13793100000001,,0.0001660306559019857,106.491,0.5220000147819519,-2.4629607494318084
106.603448,,0.00017863652288944556,106.956,0.5170000195503235,-2.4737642094237944
107.068966,,0.00019114464893010805,107.422,0.5299999713897705,-2.4453464953754787
107.534483,,0.00020350592546880943,107.886,0.5170000195503235,-2.4735703569436245
108.0,,0.00021566963342625867,108.352,0.5189999938011169,-2.469114570068158
108.46551699999999,,0.00022758355416461313,108.817,0.5339999794960022,-2.43633902265607
108.931034,,0.00023919409061481123,109.275,0.5199999809265137,-2.466749516087823
109.396552,,0.0002504463985767334,109.745,0.5049999952316284,-2.4993472035955118
109.862069,,0.0002612845281678388,110.208,0.5419999957084656,-2.4186664745929196
110.32758600000001,,0.0002716515753590853,110.676,0.531000018119812,-2.4425736061943377
110.793103,,0.0002814898434987512,111.138,0.5299999713897705,-2.4447089007409324
111.258621,,0.0002907410146853247,111.601,0.515999972820282,-2.4751832003732
111.724138,,0.00029934633080998935,112.071,0.5099999904632568,-2.4882468043605726
112.189655,,0.0003072467840475216,112.537,0.5239999890327454,-2.457756893734834
112.655172,,0.00031438331653171463,113.001,0.5199999809265137,-2.4665018612027834
113.12069,,0.0003206970289078801,113.466,0.5170000195503235,-2.4730867010391915
113.586207,,0.000326129397410664,113.93,0.515999972820282,-2.4753321820774437
114.051724,,0.0003306224990704768,114.396,0.5049999952316284,-2.4993804124552437
114.51724100000001,,0.00033411924460641527,114.86,0.5289999842643738,-2.4471901868546873
114.982759,,0.00033656361851778924,115.326,0.5059999823570251,-2.4974077024337253
115.448276,,0.00033790092584041646,115.79,0.5180000066757202,-2.4713807804981482
115.913793,,0.0003380780449878557,116.256,0.5170000195503235,-2.4736812487512747
116.37931,,0.00033704368605188385,116.72,0.5130000114440918,-2.4825188779838125
116.84482799999999,,0.0003347486538909558,117.182,0.5299999713897705,-2.445602203250812
117.310345,,0.000331146115290313,117.65,0.5139999985694885,-2.480574059889638
117.77586199999999,,0.0003261918694330169,118.112,0.5320000052452087,-2.4414614819552702
118.241379,,0.00031984462087762314,118.583,0.515999972820282,-2.4764092429443596
118.70689700000001,,0.00031206625419565335,119.045,0.5210000276565552,-2.4655885607266272
119.172414,,0.0003028221093807133,119.511,0.503000020980835,-2.5048582683674674
119.63793100000001,,0.0002920812571013555,119.976,0.546999990940094,-2.409030869713101
120.103448,,0.00027981677283176403,120.435,0.5210000276565552,-2.4656856672450185
120.568966,,0.00026600600885803453,120.901,0.5210000276565552,-2.4656720375698398
121.034483,,0.00025063086312332304,121.366,0.5130000114440918,-2.4830647044945517
121.5,,0.00023367804384304537,121.831,0.5260000228881836,-2.454683563039054
121.96551699999999,,0.00021513932879236794,122.297,0.5189999938011169,-2.469854624211427
122.431034,,0.0001950118181423266,122.76,0.5299999713897705,-2.4457910417207818
122.896552,,0.00017329817969686614,123.23,0.515999972820282,-2.4761774126670875
123.362069,,0.00015000688536072747,123.694,0.5199999809265137,-2.467335383531355
123.827586,,0.00012515243765016273,124.156,0.5170000195503235,-2.4737350247795233
124.293103,,9.875558504798089e-05,124.624,0.531000018119812,-2.4430927294908313
124.758621,,7.084352499868695e-05,125.086,0.515999972820282,-2.475630444167056
125.22413800000001,,4.145009333050731e-05,125.551,0.5090000033378601,-2.490742672806197
125.68965500000002,,1.0615938878589338e-05,126.021,0.5210000276565552,-2.4644690654601735
126.15517200000001,,2.1611317915757593e-05,126.487,0.5099999904632568,-2.4883169803265144
126.62069000000001,,5.517694362695934e-05,126.945,0.5099999904632568,-2.488216060461023
127.086207,,9.001896885239981e-05,127.411,0.5210000276565552,-2.4641695850536647
127.55172400000001,,0.00012606808477793883,127.875,0.47600001096725464,-2.56215038669456
128.017241,,0.00016324756051628033,128.341,0.5249999761581421,-2.455363579059044
128.48275900000002,,0.00020147318240336693,128.805,0.5139999985694885,-2.479321423947847
128.948276,,0.0002406532162729704,129.27,0.5130000114440918,-2.481518574160502
129.413793,,0.0002806883935905025,129.738,0.5260000228881836,-2.453240075766318
129.87931,,0.0003214719224753001,130.201,0.421999990940094,-2.6798894290297053
130.344828,,0.00036288952495252814,130.671,0.5149999856948853,-2.4773705699951645
130.81034499999998,,0.00040481950161478525,131.134,0.5170000195503235,-2.4731300331035055
131.275862,,0.0004471328239858801,131.595,0.5249999761581421,-2.4558335657004133
131.741379,,0.0004896932543716537,132.064,0.5170000195503235,-2.4734068441524295
132.206897,,0.0005323574942592946,132.529,0.5249999761581421,-2.4561290533642652
132.67241399999997,,0.000574975364231894,132.993,0.5199999809265137,-2.46717603429619
133.13793099999998,,0.0006173900170901028,133.46,0.527999997138977,-2.449898163930864
133.60344800000001,,0.000659438180755269,133.924,0.5299999713897705,-2.445685017883937
134.06896600000002,,0.0007009504258720944,134.39,0.5199999809265137,-2.4676038857666716
134.53448300000002,,0.0007417514620220836,134.856,0.49000000953674316,-2.533080861540132
135.0,,0.0007816604768177968,135.322,0.5419999957084656,-2.4198906002316924
135.465517,,0.0008204915216854387,135.78,0.5289999842643738,-2.4482902394276818
135.931034,,0.0008580539182521733,136.245,0.5429999828338623,-2.417840912457837
136.396552,,0.0008941526566675059,136.712,0.5450000166893005,-2.413508002847726
136.862069,,0.0009285888163202596,137.182,0.5199999809265137,-2.467970919902463
137.327586,,0.0009611600916229618,137.642,0.515999972820282,-2.4766554570010286
137.793103,,0.0009916614253037634,138.105,0.515999972820282,-2.4766003273493116
138.258621,,0.001019885579990496,138.57,0.546999990940094,-2.4089832419231043
138.724138,,0.0010456235066134767,139.041,0.5080000162124634,-2.493849856022971
139.189655,,0.0010686647429354647,139.507,0.5289999842643738,-2.4479795506217945
139.655172,,0.0010887983171102434,139.972,0.5099999904632568,-2.489241037977091
140.12069,,0.0011058140529133416,140.43,0.527999997138977,-2.44988249600619
140.586207,,0.0011195032149082158,140.895,0.5230000019073486,-2.460627048368265
141.05172399999998,,0.0011296578560277778,141.36,0.5139999985694885,-2.4800849408533443
141.51724099999998,,0.0011360705387748321,141.827,0.5120000243186951,-2.4842959870780983
141.982759,,0.0011385370702504968,142.292,0.5170000195503235,-2.473264889572642
142.44827600000002,,0.0011368609165227435,142.76,0.5189999938011169,-2.4687820675567753
142.913793,,0.0011308527984094582,143.223,0.5230000019073486,-2.459957645268112
143.37931,,0.0011203230245684663,143.69,0.4569999873638153,-2.6036587694884124
143.844828,,0.0011050779684684574,144.152,0.5130000114440918,-2.4815885732738003
144.310345,,0.0010849348083526225,144.62,0.5210000276565552,-2.4641182868523592
144.77586200000002,,0.0010597423322454215,145.082,0.5400000214576721,-2.422706908514264
145.241379,,0.0010293690392246474,145.548,0.49000000953674316,-2.531646669751179
145.706897,,0.0009936526871187452,146.011,0.48100000619888306,-2.5512873374961997
146.172414,,0.000952386331914789,146.476,0.5299999713897705,-2.4445910533864668
146.637931,,0.0009054127434316554,146.942,0.515999972820282,-2.4751707923001676
147.103448,,0.000852730219462419,147.408,0.5199999809265137,-2.4665529094697813
147.568966,,0.0007943846198549263,147.872,0.5210000276565552,-2.4644859073236276
148.034483,,0.000730167400986899,148.338,0.5040000081062317,-2.5016463993420195
148.5,,0.0006595984451848176,148.805,0.5730000138282776,-2.3514501325254913
148.965517,,0.0005825349327011222,149.27,0.5120000243186951,-2.4844802654290343
149.43103399999998,,0.000499693935097181,149.731,0.5120000243186951,-2.484611862165955
149.89655199999999,,0.00041181881910404164,150.2,0.4950000047683716,-2.5217771913500333
150.362069,,0.0003179411696781727,150.661,0.531000018119812,-2.443466938843857
150.82758600000003,,0.00021570980429817563,151.13,0.515999972820282,-2.4762566023624806
151.293103,,0.00010522843471241013,151.591,0.4729999899864197,-2.5700345826748197
151.758621,,8.558420456531362e-06,152.06,0.5239999890327454,-2.4590041158544436
152.224138,,0.00012185234124941319,152.526,0.5429999828338623,-2.417671302838805
152.68965500000002,,0.0002416817760671586,152.986,0.515999972820282,-2.476534446458833
153.155172,,0.00038131286637486185,153.452,0.515999972820282,-2.4765518532834663
153.62069,,0.0005366819013502426,153.917,0.5170000195503235,-2.4743685720612576
154.086207,,0.0006770316735002525,154.383,0.5170000195503235,-2.474342485096871
154.551724,,0.000785902601957433,154.849,0.527999997138977,-2.450330576896263
155.017241,,0.000913084678202659,155.315,0.5139999985694885,-2.480765630437913
155.482759,,0.001131770861019114,155.78,0.527999997138977,-2.4501815702455647
155.948276,,0.0013975529610776563,156.245,0.515999972820282,-2.4762281637351005
156.413793,,0.0015240490071902076,156.708,0.5170000195503235,-2.473941152900866
156.87931,,0.0014534018756321254,157.171,0.5109999775886536,-2.4868975559730053
157.34482799999998,,0.0015221534283819964,157.639,0.5049999952316284,-2.4998503732222064
157.81034499999998,,0.0021170400466285003,158.101,0.515999972820282,-2.4757665018057327
158.275862,,0.002853594608017659,158.566,0.531000018119812,-2.442971075275302
158.741379,,0.002629174279870185,159.03,0.44200000166893005,-2.636762746113201
159.20689700000003,,0.0013582315735348413,159.496,0.5189999938011169,-2.4689107279161013
159.672414,,0.0012593812644768048,159.96,0.5270000100135803,-2.4513987702657998
160.137931,,0.004314388831570303,160.426,0.5540000200271606,-2.3925056744244326
160.60344800000001,,0.007432079609948132,160.893,0.49799999594688416,-2.5144553347309726
161.06896600000002,,0.0030515373268729523,161.359,0.527999997138977,-2.4490582338900357
161.534483,,0.011739942638535216,161.824,0.515999972820282,-2.4751825350358416
162.0,,0.02828366339748595,162.289,0.5070000290870667,-2.4947891184702735
162.465517,,0.03325051502424088,162.757,0.5249999761581421,-2.455590779471907
162.931034,,0.022216179438011085,163.219,0.5120000243186951,-2.483947666421604
163.396552,,0.002536287144345232,163.687,0.515999972820282,-2.47528385966555
163.862069,,0.01626262688678373,164.149,0.5339999794960022,-2.4361330133084795
164.327586,,0.030505741043087387,164.617,0.515999972820282,-2.475425260215427
164.793103,,0.041173088518845775,165.079,0.5249999761581421,-2.455903464640353
165.258621,,0.04921719038930345,165.544,0.42800000309944153,-2.6673271890130046
165.72413799999998,,0.05394352779256055,166.008,0.5289999842643738,-2.4473859685052015
166.189655,,0.05426223559119245,166.474,0.4830000102519989,-2.547709417347659
166.655172,,0.04997241071381851,166.938,0.5120000243186951,-2.484633642685868
167.12069,,0.041926091819264946,167.404,0.5289999842643738,-2.4476975391337645
167.58620699999997,,0.03134918789011365,167.869,0.5299999713897705,-2.4456113569414932
168.051724,,0.01909813526857103,168.334,0.5199999809265137,-2.4674790407709857
168.517241,,0.005846562396142553,168.801,0.5410000085830688,-2.4217950535924864
168.98275900000002,,0.006889049363023715,169.26,0.5270000100135803,-2.452348238928641
169.44827600000002,,0.016651305484864244,169.731,0.5180000066757202,-2.4719916507189947
169.913793,,0.021852287195639367,170.193,0.5239999890327454,-2.458938621028903
170.37931,,0.023528406275349283,170.661,0.515999972820282,-2.476369881198095
170.844828,,0.024484242348695482,171.123,0.5009999871253967,-2.509035645360471
171.310345,,0.026491277036036837,171.586,0.5170000195503235,-2.4741484949309784
171.775862,,0.028825437481871507,172.056,0.5669999718666077,-2.3651726596145655
172.241379,,0.029780409010849322,172.515,0.5109999775886536,-2.4871192621046605
172.706897,,0.029122154743193098,172.987,0.5180000066757202,-2.47179974634426
173.172414,,0.0284569478329049,173.445,0.5099999904632568,-2.489152208524932
173.637931,,0.029269453799548543,173.912,0.527999997138977,-2.4498542492296265
174.103448,,0.03128969101935438,174.378,0.5189999938011169,-2.4693766198913734
174.568966,,0.03310499578229045,174.843,0.5059999823570251,-2.4976132775265034
175.034483,,0.0337959416604963,175.308,0.5419999957084656,-2.419098303432636
175.5,,0.03343157770794868,175.771,0.527999997138977,-2.449519647979514
175.96551699999998,,0.03242008764089244,176.241,0.5339999794960022,-2.43637388830402
176.43103399999998,,0.03106242009738176,176.701,0.5260000228881836,-2.4537371658890494
176.896552,,0.029426271203301765,177.171,0.515999972820282,-2.4754681732655124
177.36206900000002,,0.026860247830265985,177.635,0.5339999794960022,-2.436208715168382
177.827586,,0.021715910905559542,178.097,0.5400000214576721,-2.4231052363782752
178.293103,,0.012403996226256382,178.563,0.5109999775886536,-2.4862675570228108
178.758621,,0.0007554444738793309,179.025,0.515999972820282,-2.4753697349205024
179.224138,,0.014795897355411697,179.491,0.515999972820282,-2.4753793276616896
179.68965500000002,,0.02550062511589222,179.957,0.5239999890327454,-2.457972987682402
180.155172,,0.03003801582422597,180.422,0.515999972820282,-2.475437209914888
180.62069,,0.02875567229907473,180.886,0.5130000114440918,-2.4820189799702748
181.086207,,0.024502760988931952,181.352,0.531000018119812,-2.442858317522906
181.551724,,0.020069976667301325,181.817,0.5360000133514404,-2.4320265909595085
182.01724099999998,,0.01636466045443493,182.282,0.5130000114440918,-2.4822013277044594
182.482759,,0.013039753894082505,182.746,0.515999972820282,-2.4757341184671815
182.948276,,0.010282389898366162,183.216,0.5130000114440918,-2.4823396861233578
183.413793,,0.009235762965736444,183.679,0.5170000195503235,-2.4736936432733887
183.87931,,0.010569262926323736,184.141,0.5130000114440918,-2.482473597248878
184.34482799999998,,0.013266664086971343,184.609,0.527999997138977,-2.4498538566164854
184.81034499999998,,0.015508286828039418,185.071,0.5170000195503235,-2.47387154482791
185.27586200000002,,0.016700223501987545,185.536,0.527999997138977,-2.449950164629779
185.74137900000002,,0.01786675773771295,186.0,0.5249999761581421,-2.456519727094394
186.206897,,0.019610819703434975,186.466,0.5099999904632568,-2.4892222963509116
186.672414,,0.02035194464375555,186.93,0.5049999952316284,-2.5001280096039373
187.137931,,0.017559621368054258,187.396,0.5189999938011169,-2.469629158938395
187.60344800000001,,0.010742354104952709,187.861,0.5289999842643738,-2.4478343057467704
188.06896600000002,,0.002368262405142327,188.327,0.5339999794960022,-2.436921907590358
188.534483,,0.004587554447058263,188.794,0.5210000276565552,-2.465215073945309
189.0,,0.009501044579058437,189.26,0.5139999985694885,-2.480428245436301
189.465517,,0.014102973732510557,189.72,0.550000011920929,-2.401952421193136
189.931034,,0.020086731338810056,190.19,0.5130000114440918,-2.4825121521491464
190.39655199999999,,0.02728688224675382,190.653,0.5400000214576721,-2.4236344462822306
190.862069,,0.03398742516811549,191.116,0.5260000228881836,-2.4540793475066596
191.327586,,0.038369311358518295,191.586,0.5099999904632568,-2.4888818213781128
191.793103,,0.03954211927067009,192.049,0.515999972820282,-2.475756781285195
192.25862099999998,,0.03760295103007342,192.515,0.5239999890327454,-2.4582787858817388
192.72413799999998,,0.0330381728212846,192.98,0.5389999747276306,-2.4255555151414696
193.189655,,0.026150378218664706,193.446,0.5320000052452087,-2.440768313975149
193.655172,,0.017127420309949327,193.905,0.5230000019073486,-2.460345559922896
194.12069000000002,,0.006700944937179738,194.371,0.515999972820282,-2.475574021772907
194.586207,,0.003440280517459351,194.838,0.5199999809265137,-2.4668465493658553
195.051724,,0.011209477487434514,195.304,0.527999997138977,-2.4494137178489415
195.517241,,0.0153278693471073,195.772,0.5109999775886536,-2.486456202779694
195.98275900000002,,0.016105075061434604,196.233,0.527999997138977,-2.449433203599059
196.448276,,0.015218339571690389,196.701,0.5379999876022339,-2.427668191124888
196.913793,,0.014852488540423687,197.164,0.5289999842643738,-2.447303337616299
197.37931,,0.016714307305955134,197.627,0.5299999713897705,-2.44515680804174
197.844828,,0.021195049573856865,198.09,0.5299999713897705,-2.445192539780352
198.310345,,0.027173895338891793,198.555,0.5329999923706055,-2.43869448444157
198.775862,,0.032928237184954745,199.025,0.515999972820282,-2.4757705353554234
199.241379,,0.03755026471512402,199.491,0.5339999794960022,-2.4365937204052477
199.706897,,0.04136002230624274,199.956,0.5099999904632568,-2.48891886007225
200.172414,,0.0447074542839666,200.415,0.5049999952316284,-2.499847801671875
200.63793099999998,,0.04659142288611526,200.886,0.515999972820282,-2.475915829818157
201.103448,,0.045035852510777595,201.345,0.4959999918937683,-2.519518324205482
201.568966,,0.039084498006683746,201.812,0.5260000228881836,-2.4541838275594006
202.034483,,0.03012808313124645,202.277,0.3269999921321869,-2.8877578422784
202.5,,0.02096020629685079,202.746,0.5210000276565552,-2.4651227443661186
202.965517,,0.013577291037153957,203.208,0.531000018119812,-2.4433547362809382
203.431034,,0.007975039546941553,203.675,0.5170000195503235,-2.473865235678965
203.896552,,0.0029092424643223183,204.137,0.5220000147819519,-2.462972101626717
204.36206900000002,,0.0023863070169928163,204.605,0.5249999761581421,-2.4564269011812105
204.827586,,0.007283839251110608,205.068,0.5139999985694885,-2.480373437985018
205.293103,,0.010503716398093456,205.533,0.5379999876022339,-2.4280585920965194
205.758621,,0.011635760155070578,205.997,0.5249999761581421,-2.456345518031702
206.224138,,0.011714569194082314,206.462,0.5249999761581421,-2.456303038232101
206.689655,,0.012238713687192522,206.928,0.5180000066757202,-2.4715060393095873
207.155172,,0.013808608310393239,207.393,0.5379999876022339,-2.4278822987791364
207.62069,,0.01584369960105329,207.861,0.5109999775886536,-2.486653569644187
208.086207,,0.017478748919328813,208.326,0.5339999794960022,-2.4364931190247963
208.551724,,0.01848036677330766,208.79,0.5109999775886536,-2.486553433372261
209.01724099999998,,0.019209553432570123,209.255,0.5339999794960022,-2.4364007415971414
209.482759,,0.019926671555611817,209.716,0.5120000243186951,-2.4842938450167398
209.948276,,0.020477568294724614,210.186,0.5299999713897705,-2.4450495249229993
210.413793,,0.02065153744598706,210.646,0.5170000195503235,-2.473352742027343
210.87930999999998,,0.02045089787190707,211.116,0.5379999876022339,-2.427592425044145
211.344828,,0.019813499777150374,211.586,0.5370000004768372,-2.4297727468213948
211.810345,,0.018419202420639328,212.041,0.527999997138977,-2.4493928101369407
212.27586200000002,,0.01618595205990822,212.507,0.5139999985694885,-2.479917112898476
212.741379,,0.013801232576073097,212.972,0.5180000066757202,-2.471236798725704
213.206897,,0.01220943850299818,213.437,0.5410000085830688,-2.421171956647419
213.672414,,0.011468632469982297,213.905,0.5040000081062317,-2.501834261792849
214.137931,,0.010684528096226348,214.371,0.5210000276565552,-2.464856588024449
214.60344800000001,,0.009403763982916471,214.835,0.5149999856948853,-2.477993255921837
215.068966,,0.008517781482830524,215.3,0.5080000162124634,-2.4933114508656744
215.534483,,0.009153033454456151,215.764,0.5239999890327454,-2.458521488419224
216.0,,0.010967396790759322,216.226,0.5059999823570251,-2.497803511819774
216.465517,,0.012349482315420431,216.694,0.48899999260902405,-2.5349029321823076
216.93103399999998,,0.01239845645532265,217.157,0.5329999923706055,-2.439098492790942
217.39655199999999,,0.011946261423220536,217.62,0.5130000114440918,-2.4827179592762754
217.862069,,0.012155171110471923,218.09,0.5299999713897705,-2.4457154537749184
218.327586,,0.012741179995566778,218.555,0.5199999809265137,-2.4675225289968945
218.793103,,0.012483344168126869,219.018,0.5299999713897705,-2.445741475732517
219.25862099999998,,0.011173021737869028,219.483,0.515999972820282,-2.476232191435932
219.724138,,0.009785525288490103,219.95,0.515999972820282,-2.4762062575222163
220.18965500000002,,0.00844749596640867,220.415,0.515999972820282,-2.4761654749979916
220.65517200000002,,0.005528928890110912,220.875,0.5109999775886536,-2.4870041712043416
221.12069,,0.0002901193629586265,221.341,0.5210000276565552,-2.465150787401688
221.586207,,0.007749239719689082,221.805,0.5139999985694885,-2.480324209974765
222.051724,,0.013867141678634285,222.27,0.515999972820282,-2.4758818296117484
222.517241,,0.016918981748862184,222.738,0.527999997138977,-2.4496474876780443
222.98275900000002,,0.017720325597890694,223.2,0.5120000243186951,-2.4844127998529695
223.448276,,0.017905968381003844,223.668,0.5130000114440918,-2.4821422053043833
223.913793,,0.017769270738946828,224.13,0.527999997138977,-2.449374804148952
224.37931,,0.016226061956137128,224.601,0.5080000162124634,-2.4928673193983384
224.844828,,0.012327220425183711,225.064,0.5170000195503235,-2.4731896318544546
225.31034499999998,,0.0062016717527508414,225.529,0.48399999737739563,-2.5450292450444683
225.775862,,0.0011982240909370306,225.993,0.5170000195503235,-2.473094635573271
226.241379,,0.008690690064131168,226.459,0.5320000052452087,-2.4403933689123654
226.706897,,0.015301459364062084,226.923,0.5249999761581421,-2.4556401327703905
227.172414,,0.02058709497292164,227.389,0.5120000243186951,-2.483977190104674
227.63793099999998,,0.024478553470665777,227.856,0.5249999761581421,-2.4556885407975146
228.103448,,0.02638127334145109,228.315,0.5329999923706055,-2.4383109527901543
228.56896600000002,,0.024509367212747088,228.787,0.5170000195503235,-2.4732374075291927
229.03448300000002,,0.016829211273208834,229.245,0.5109999775886536,-2.4863927669734074
229.5,,0.003236303337533174,229.716,0.5180000066757202,-2.4712388137983736
229.965517,,0.013401484285194302,230.178,0.5139999985694885,-2.4800604193061706
230.431034,,0.029013912786447882,230.642,0.5230000019073486,-2.4605664487590713
230.896552,,0.04132762628967183,231.105,0.5419999957084656,-2.4192886668778253
231.362069,,0.05063058360090951,231.571,0.515999972820282,-2.476048628922816
231.827586,,0.05746648205370796,232.041,0.5230000019073486,-2.460908235155105
232.293103,,0.0605726396720651,232.5,0.5339999794960022,-2.4370448405081664
232.758621,,0.0580706912598079,232.965,0.5199999809265137,-2.467635312447449
233.224138,,0.05024450337841263,233.431,0.527999997138977,-2.450280145185349
233.689655,,0.039905680334975914,233.897,0.5299999713897705,-2.445978825368952
234.155172,,0.029704337592952334,234.363,0.5109999775886536,-2.487408861056668
234.62069,,0.019912315646162575,234.827,0.515999972820282,-2.4765301233729433
235.086207,,0.009452981256136323,235.293,0.531000018119812,-2.4438425157446892
235.55172399999998,,0.0014764014860763669,235.761,0.5429999828338623,-2.417667640159798
236.01724099999998,,0.010855690204536198,236.223,0.5249999761581421,-2.4568289208412435
236.482759,,0.016979831193605455,236.686,0.5299999713897705,-2.4458596767946883
236.94827600000002,,0.02019816990747884,237.156,0.515999972820282,-2.476265633805891
237.413793,,0.02204986744836634,237.616,0.5070000290870667,-2.4957624188412186
237.87931,,0.02334750505506587,238.086,0.5040000081062317,-2.5021755882676207
238.344828,,0.023715154750155544,238.552,0.515999972820282,-2.4759008945217476
238.810345,,0.022580510937874162,239.014,0.5239999890327454,-2.458335964019879
239.27586200000002,,0.019992479908347915,239.48,0.5270000100135803,-2.4516631556139363
239.741379,,0.016593496659870702,239.945,0.5070000290870667,-2.49510258502052
240.206897,,0.013252263547327144,240.411,0.5130000114440918,-2.4819053717437574
240.672414,,0.010770228917421631,240.875,0.5249999761581421,-2.4556484659754556
241.137931,,0.009623676530560165,241.341,0.515999972820282,-2.4751586545708912
241.603448,,0.009709707953149203,241.805,0.5249999761581421,-2.455471948919106
242.068966,,0.010268079564200333,242.27,0.49399998784065247,-2.522953210306282
242.534483,,0.010183035570770316,242.731,0.5049999952316284,-2.4989561546379266
243.0,,0.008678100833663148,243.2,0.5120000243186951,-2.483699988233949
243.465517,,0.006024114880822802,243.661,0.5180000066757202,-2.4706488573830474
243.93103399999998,,0.0035717440555716293,244.131,0.5299999713897705,-2.4445512696933185
244.39655199999999,,0.0027880882645005944,244.594,0.5170000195503235,-2.472943713374208
244.862069,,0.0039873354867339264,245.056,0.5040000081062317,-2.5013589204653925
245.327586,,0.005984591176732246,245.522,0.515999972820282,-2.475328499082922
245.793103,,0.007105759839768761,245.987,0.5419999957084656,-2.4188134420867904
246.258621,,0.006569285985100741,246.452,0.5249999761581421,-2.455992261630895
246.724138,,0.004851330616767688,246.92,0.5149999856948853,-2.477928447927775
247.18965500000002,,0.0028477113845244706,247.385,0.5120000243186951,-2.484618234028446
247.655172,,0.001007806027758587,247.85,0.5230000019073486,-2.460806657245402
248.12069,,0.0006561374377793613,248.316,0.5130000114440918,-2.4827413060877443
248.586207,,0.002130433703112041,248.783,0.515999972820282,-2.4763437295330832
249.051724,,0.0032810736142009096,249.241,0.5170000195503235,-2.474289008632484
249.517241,,0.003942259330903254,249.709,0.5339999794960022,-2.437357377874775
249.982759,,0.0038969805316805,250.171,0.5070000290870667,-2.4962637487290666
250.44827600000002,,0.0030157229429235623,250.642,0.5419999957084656,-2.4200688662480405
250.913793,,0.0016503138076763703,251.104,0.515999972820282,-2.476743971517628
251.37931000000003,,0.0006645639142966939,251.57,0.5170000195503235,-2.4745668545861235
251.844828,,0.0007555968271726886,252.034,0.5199999809265137,-2.468004106838885
252.31034499999998,,0.0017176762123890504,252.5,0.5260000228881836,-2.4548769814203792
252.77586200000002,,0.002506657448923916,252.965,0.5329999923706055,-2.439544090483821
253.241379,,0.0021260055148168157,253.43,0.5180000066757202,-2.4721162839681328
253.706897,,0.0004696047393294156,253.89,0.5289999842643738,-2.4480218863294576
254.172414,,0.0017167125587475712,254.355,0.5099999904632568,-2.48926914121201
254.63793099999998,,0.003610346942883926,254.82,0.5270000100135803,-2.4520718166741866
255.10344800000001,,0.004919317691565665,255.286,0.5249999761581421,-2.4562603723237233
255.56896600000002,,0.005825259018739893,255.753,0.5249999761581421,-2.4560879089319396
256.03448299999997,,0.006582479743929683,256.216,0.5180000066757202,-2.471167787556945
256.5,,0.007194758104232189,256.686,0.5289999842643738,-2.4470393578918803
256.965517,,0.0072678797179930735,257.149,0.5149999856948853,-2.4773895236622137
257.431034,,0.00617254489524751,257.616,0.515999972820282,-2.475077536334708
257.896552,,0.003670237086569126,258.078,0.5419999957084656,-2.418320867164678
258.362069,,0.000464603188202615,258.544,0.5109999775886536,-2.485772214333754
258.827586,,0.002284761941622582,259.007,0.5299999713897705,-2.4443192876856363
259.29310300000003,,0.004231498147671138,259.473,0.5320000052452087,-2.439933486492611
259.758621,,0.006195009591816781,259.938,0.5080000162124634,-2.492224026710107
260.224138,,0.008888299099327408,260.404,0.5410000085830688,-2.4203635102330314
260.689655,,0.011681651307579971,260.869,0.515999972820282,-2.474895564023565
261.155172,,0.013085036764311622,261.334,0.5120000243186951,-2.48370533626894
261.62068999999997,,0.012225602873592215,261.801,0.515999972820282,-2.4751135755705875
262.086207,,0.009507972666055317,262.26,0.5210000276565552,-2.4643666510701188
262.551724,,0.006076149511131314,262.727,0.515999972820282,-2.4754256630164173
263.017241,,0.0029417581528087236,263.197,0.5040000081062317,-2.5017495474871185
263.482759,,0.0003497137180982882,263.66,0.5249999761581421,-2.4561873065718394
263.94827599999996,,0.002369189727220583,264.123,0.5139999985694885,-2.480344638497469
264.413793,,0.006140273536933018,264.591,0.5170000195503235,-2.4739977210999458
264.87931,,0.011054318407364363,265.053,0.5429999828338623,-2.4175324343098197
265.34482799999995,,0.01597069385733961,265.519,0.5170000195503235,-2.474340884600731
265.810345,,0.019167012589943223,265.983,0.5120000243186951,-2.485377190568838
266.27586199999996,,0.019151555926093015,266.449,0.5090000033378601,-2.4920317073815887
266.741379,,0.014997266971586121,266.916,0.5149999856948853,-2.47904993560168
267.206897,,0.0065436725425374355,267.381,0.550000011920929,-2.402854833685058
267.672414,,0.0051993034681926025,267.845,0.5130000114440918,-2.483487248123005
268.137931,,0.017867078147584405,268.311,0.5339999794960022,-2.4377220882442714
268.603448,,0.028377437618855212,268.772,0.5149999856948853,-2.479067192238754
269.06896600000005,,0.034293485672580205,269.241,0.5419999957084656,-2.4201598474601984
269.53448299999997,,0.03498461177322381,269.705,0.515999972820282,-2.476688585979602
270.0,,0.03162119848107267,270.167,0.5370000004768372,-2.4307917794738145
270.465517,,0.02604690193240773,270.631,0.515999972820282,-2.476373890015531
270.931034,,0.01961000011198804,271.101,0.4959999918937683,-2.519758715662806
271.396552,,0.012895597091109674,271.566,0.515999972820282,-2.4759856712615704
271.86206899999996,,0.006218318026040421,272.029,0.515999972820282,-2.4757793873524827
272.327586,,1.110098501710722e-05,272.495,0.5210000276565552,-2.464679483365635
272.793103,,0.0055624266043753446,272.96,0.5189999938011169,-2.4688363592171676
273.258621,,0.010791178828129631,273.426,0.515999972820282,-2.475184240452545
273.724138,,0.016351525582335137,273.891,0.5099999904632568,-2.4880865946142743
274.18965499999996,,0.02243614978741331,274.356,0.5080000162124634,-2.4922986790927273
274.655172,,0.02862675408480763,274.817,0.5170000195503235,-2.472574715247562
275.12069,,0.03455925334345278,275.282,0.4959999918937683,-2.5182432252603317
275.586207,,0.04024549556456283,275.745,0.515999972820282,-2.4746230425971887
276.051724,,0.04536630101285456,276.215,0.5070000290870667,-2.494220930230734
276.517241,,0.04856088019846693,276.676,0.5329999923706055,-2.4376036597346786
276.98275900000004,,0.04793831388286767,277.145,0.48399999737739563,-2.5444217854209485
277.448276,,0.042357086399642765,277.605,0.527999997138977,-2.4486610302195375
277.913793,,0.03207119158815236,278.075,0.5249999761581421,-2.4553286908623244
278.37931,,0.018393052119277286,278.54,0.531000018119812,-2.442415447344106
278.844828,,0.003156401904073214,279.0,0.5339999794960022,-2.4360603876761155
279.31034500000004,,0.011648695883786699,279.465,0.5120000243186951,-2.484188158790503
279.77586199999996,,0.024404335810237567,279.931,0.531000018119812,-2.4430026287701723
280.241379,,0.034368875890854446,280.397,0.503000020980835,-2.5042186739010632
280.706897,,0.04140466824967004,280.864,0.5210000276565552,-2.465215746319267
281.172414,,0.045195119739149504,281.329,0.5080000162124634,-2.4937434365877715
281.637931,,0.045261355330578276,281.794,0.5270000100135803,-2.4525402329238255
282.10344799999996,,0.04191206476756678,282.26,0.5130000114440918,-2.4832121685938606
282.568966,,0.036529499533734106,282.72,0.5249999761581421,-2.45721361732547
283.034483,,0.030444274848273,283.19,0.5,-2.5117949563665976
283.5,,0.023980890100863454,283.65,0.531000018119812,-2.44433837733303
283.965517,,0.017188154919331254,284.119,0.5109999775886536,-2.4879564509930856
284.431034,,0.011108589031719615,284.583,0.5270000100135803,-2.4531046934759164
284.89655200000004,,0.007350649452325156,285.045,0.5249999761581421,-2.457429873347287
285.362069,,0.006221721868164475,285.511,0.5130000114440918,-2.48350330041798
285.827586,,0.006119965731824544,285.975,0.5170000195503235,-2.4746827004964347
286.293103,,0.005373676718808052,286.441,0.5040000081062317,-2.502866891184079
286.758621,,0.004198950592630315,286.906,0.5170000195503235,-2.4743781201891557
287.22413800000004,,0.0040206033539717445,287.371,0.5210000276565552,-2.4654738068423763
287.689655,,0.004963522263302319,287.835,0.5289999842643738,-2.447836769445975
288.155172,,0.005060558988540642,288.301,0.5080000162124634,-2.4933684700704446
288.62069,,0.002576759469915622,288.771,0.4819999933242798,-2.5497894334539035
289.086207,,0.0015428907411618607,289.234,0.5180000066757202,-2.471137492845141
289.55172400000004,,0.004543389498906105,289.697,0.5090000033378601,-2.490534268510607
290.01724099999996,,0.005073041681895,290.16,0.5249999761581421,-2.4554801447760912
290.482759,,0.004590424452389331,290.631,0.527999997138977,-2.448769165296587
290.948276,,0.005318261625356222,291.093,0.5070000290870667,-2.4943719584889035
291.413793,,0.007631362406433064,291.559,0.5059999823570251,-2.4964335667165147
291.87931,,0.010109123143233884,292.022,0.5210000276565552,-2.46367208338491
292.344828,,0.011671736007624526,292.487,0.47200000286102295,-2.5703828171718057
292.81034500000004,,0.012756587418909126,292.956,0.5170000195503235,-2.472341113697748
293.275862,,0.014294858949090597,293.421,0.41999998688697815,-2.6837096184675877
293.74137900000005,,0.016265469882497212,293.886,0.5099999904632568,-2.4877124800581596
294.206897,,0.01773695320796276,294.352,0.5210000276565552,-2.4638661008486085
294.672414,,0.01799679363290257,294.816,0.503000020980835,-2.5032326921361236
295.13793100000004,,0.01719010776843759,295.282,0.515999972820282,-2.475088805038034
295.603448,,0.01598850234004492,295.742,0.46299999952316284,-2.590758451308251
296.068966,,0.015012734793080152,296.205,0.5210000276565552,-2.4646152630066194
296.534483,,0.014590077130731339,296.675,0.5170000195503235,-2.473557714097157
297.0,,0.014743020381846796,297.138,0.527999997138977,-2.449821521553245
297.46551700000003,,0.015124883082741802,297.601,0.5210000276565552,-2.4652946626043173
297.931034,,0.014965318036717664,298.071,0.5120000243186951,-2.4851123092135086
298.396552,,0.013316967355841262,298.537,0.5120000243186951,-2.4853032917767477
298.862069,,0.009605775007348487,299.0,0.5289999842643738,-2.4484325559901845
299.327586,,0.004124270454486813,299.466,0.515999972820282,-2.47689106176817
299.79310300000003,,0.0018691880128894945,299.93,0.5149999856948853,-2.479171691378275
300.258621,,0.0066287480015356365,300.396,0.49900001287460327,-2.51409560465072
300.724138,,0.008914815964370073,300.861,0.5059999823570251,-2.4988729296339214
301.189655,,0.008794916177268242,301.32,0.5139999985694885,-2.481432916001983
301.65517200000005,,0.007303504425362933,301.786,0.5379999876022339,-2.429095587413145
302.12069,,0.005227326341314801,302.252,0.5090000033378601,-2.49218880410912
302.586207,,0.002572212361926075,302.72,0.515999972820282,-2.4768163105139482
303.05172400000004,,0.0006819869020450126,303.182,0.515999972820282,-2.476664057062665
303.517241,,0.00394577774614423,303.646,0.5239999890327454,-2.4590568913645927
303.982759,,0.0065932306202373305,304.115,0.5299999713897705,-2.4457866171446105
304.448276,,0.008676013677284511,304.583,0.5329999923706055,-2.4390375355914022
304.913793,,0.010547375329144206,305.045,0.5170000195503235,-2.473674875050932
305.37931000000003,,0.012079607520936909,305.511,0.5320000052452087,-2.4407734759581015
305.844828,,0.012604450621120073,305.975,0.5220000147819519,-2.462344424784513
306.310345,,0.011385221858179036,306.44,0.6190000176429749,-2.2508111155876813
306.775862,,0.007938333737747482,306.905,0.5400000214576721,-2.4227357411349413
307.241379,,0.002050615579298471,307.371,0.4690000116825104,-2.5772553753239507
307.70689699999997,,0.0063199442039035,307.831,0.5170000195503235,-2.472548415560772
308.172414,,0.016826850506180206,308.296,0.515999972820282,-2.474631845480174
308.637931,,0.027990575776879204,308.764,0.5170000195503235,-2.472396346771696
309.103448,,0.036951949279479555,309.227,0.5189999938011169,-2.468022615635688
309.568966,,0.04096660251863796,309.69,0.5210000276565552,-2.4636893243159603
310.034483,,0.03951217395589726,310.16,0.43799999356269836,-2.644582508941548
310.5,,0.03425904901023655,310.62,0.5339999794960022,-2.435537622876703
310.96551700000003,,0.026740235145548196,311.09,0.5249999761581421,-2.455285617360733
311.431034,,0.016949107048917975,311.555,0.5260000228881836,-2.4532755543575626
311.896552,,0.004756469632149914,312.018,0.5249999761581421,-2.4556460880485247
312.362069,,0.008267908027219863,312.484,0.492000013589859,-2.527750638163772
312.827586,,0.01966296185682875,312.95,0.5149999856948853,-2.477862374956847
313.29310300000003,,0.028491276328213532,313.415,0.527999997138977,-2.4497642264770416
313.758621,,0.03578961701276547,313.875,0.5130000114440918,-2.4826640138468723
314.224138,,0.04228314924680279,314.341,0.531000018119812,-2.4436570012526384
314.689655,,0.04657157679537997,314.805,0.5379999876022339,-2.428596566994711
315.155172,,0.04629496015954402,315.271,0.5260000228881836,-2.454905231518706
315.62068999999997,,0.04054409317948622,315.739,0.5730000138282776,-2.352642829833216
316.086207,,0.030269510599273075,316.201,0.5360000133514404,-2.4333511128562786
316.551724,,0.016613181720738467,316.671,0.5109999775886536,-2.4878779311640975
317.017241,,2.2510082466615713e-05,317.134,0.5270000100135803,-2.453041940759776
317.482759,,0.018860925764886842,317.598,0.5299999713897705,-2.44648993722651
317.94827599999996,,0.037585447756745605,318.06,0.5370000004768372,-2.4311849080919217
318.413793,,0.053177389007016004,318.526,0.49000000953674316,-2.5334913698238397
318.87931000000003,,0.06372920006841429,318.99,0.5210000276565552,-2.465831844169084
319.344828,,0.06885152419097143,319.455,0.5109999775886536,-2.487469858103876
319.810345,,0.06862034870768202,319.92,0.5299999713897705,-2.4459041691493826
320.275862,,0.06307476803380084,320.386,0.5210000276565552,-2.465323078629196
320.741379,,0.05293247591615914,320.853,0.5139999985694885,-2.480373748880881
321.20689699999997,,0.04002825405561542,321.319,0.5210000276565552,-2.4649188865144027
321.672414,,0.026473379813544102,321.783,0.5170000195503235,-2.4734314630229783
322.137931,,0.01355855075551095,322.248,0.5320000052452087,-2.440558129905773
322.603448,,0.0017733538242644903,322.716,0.5389999747276306,-2.4251279589587114
323.068966,,0.008358009134246142,323.179,0.5120000243186951,-2.4837912413098064
323.53448299999997,,0.016071127421838263,323.642,0.5080000162124634,-2.492371226236126
324.0,,0.021134391311987355,324.112,0.5189999938011169,-2.46830159754003
324.465517,,0.024254589152784927,324.57,0.515999972820282,-2.474765983958661
324.931034,,0.026263252530093074,325.042,0.5210000276565552,-2.4638357708238794
325.396552,,0.027253866686107863,325.5,0.5180000066757202,-2.4703704762076457
325.86206899999996,,0.026962588366274246,325.972,0.5070000290870667,-2.4943697816809527
326.327586,,0.025601401398722523,326.43,0.5260000228881836,-2.4530438504504946
326.793103,,0.02368486897364252,326.901,0.5249999761581421,-2.455322148050998
327.258621,,0.02131541061054798,327.367,0.5080000162124634,-2.4924862804433268
327.724138,,0.018416490075806997,327.831,0.5170000195503235,-2.4730293537916523
328.189655,,0.01561635168524094,328.296,0.5199999809265137,-2.4666629601985135
328.655172,,0.014076095164535637,328.757,0.5120000243186951,-2.4842742607262496
329.12068999999997,,0.014168404742993074,329.227,0.5170000195503235,-2.473570054864667
329.586207,,0.014918890863407211,329.69,0.5130000114440918,-2.482474337393601
330.051724,,0.015101576365907825,330.152,0.5400000214576721,-2.423834441833224
330.517241,,0.014424106706277322,330.616,0.5199999809265137,-2.467578650840804
330.982759,,0.013276052038537533,331.086,0.5210000276565552,-2.465553272431346
331.44827599999996,,0.011839355782086865,331.551,0.5419999957084656,-2.419932435524561
331.913793,,0.010131671668277322,332.014,0.531000018119812,-2.444000984603373
332.37931,,0.008703357011626443,332.48,0.5230000019073486,-2.461503494345885
332.844828,,0.008497230907900423,332.945,0.5059999823570251,-2.498582464446762
333.310345,,0.00977804543760769,333.411,0.5070000290870667,-2.496413986865248
333.77586199999996,,0.011596141798404925,333.876,0.531000018119812,-2.444104944122074
334.241379,,0.012506703073981794,334.341,0.5419999957084656,-2.420086532507196
334.706897,,0.011684034492823516,334.805,0.515999972820282,-2.476648021552066
335.17241399999995,,0.009412889718655336,335.271,0.5049999952316284,-2.500503591857004
335.637931,,0.006718516992603128,335.731,0.5299999713897705,-2.4459061263315403
336.103448,,0.004448735706280911,336.201,0.5379999876022339,-2.4283275146452037
336.56896600000005,,0.0025172007790440006,336.664,0.5299999713897705,-2.4455937488225032
337.034483,,2.3429068842009945e-05,337.127,0.515999972820282,-2.4759241559804797
337.5,,0.003802256408659092,337.594,0.5070000290870667,-2.4953600804940868
337.965517,,0.008667334998268439,338.056,0.5149999856948853,-2.477764211143652
338.431034,,0.01325769482395561,338.522,0.515999972820282,-2.4754291449237975
338.89655200000004,,0.016494540711084246,338.987,0.5230000019073486,-2.4600371323380776
339.36206899999996,,0.018685379921014725,339.453,0.5249999761581421,-2.455557683883027
339.827586,,0.02072687340386984,339.92,0.5400000214576721,-2.422778149840309
340.293103,,0.02208571485713704,340.386,0.5149999856948853,-2.4771701688222945
340.758621,,0.020757422567519272,340.846,0.515999972820282,-2.474945475401146
341.224138,,0.01594564836515168,341.311,0.5170000195503235,-2.4727505030626125
341.68965499999996,,0.009794053651485118,341.783,0.5379999876022339,-2.4270123335827103
342.155172,,0.005394359534442914,342.241,0.5299999713897705,-2.4444831533011673
342.62069,,0.0034887064624572095,342.705,0.5529999732971191,-2.394441806465511
343.086207,,0.0019149903871107119,343.175,0.5139999985694885,-2.479500194454943
343.551724,,0.0019107784625387893,343.635,0.5249999761581421,-2.455647369862319
344.01724099999996,,0.008454021111786857,344.105,0.49000000953674316,-2.532030533287296
344.48275900000004,,0.015691718243976863,344.57,0.5339999794960022,-2.436314609126756
344.948276,,0.020657787439781312,345.034,0.515999972820282,-2.475683381497597
345.413793,,0.021299737406096628,345.5,0.5630000233650208,-2.373442130333945
345.87931,,0.017277777052887747,345.964,0.5249999761581421,-2.4563826874794805
346.344828,,0.00947495531270831,346.43,0.5370000004768372,-2.430382370947512
346.81034500000004,,0.0008761748040950028,346.89,0.5210000276565552,-2.4653718903354154
347.275862,,0.012401458092418827,347.356,0.5139999985694885,-2.4807376746151633
347.741379,,0.023154085242339806,347.82,0.49300000071525574,-2.5265857953903263
348.206897,,0.030667132533183712,348.286,0.5299999713897705,-2.446050862619704
348.672414,,0.03316687494163829,348.757,0.5339999794960022,-2.437386434409853
349.13793100000004,,0.030884542102457162,349.219,0.5339999794960022,-2.4374094651281437
349.60344799999996,,0.02576616992873441,349.682,0.515999972820282,-2.4766207505348525
350.068966,,0.019741245371228806,350.145,0.5170000195503235,-2.4744111617222857
350.534483,,0.013700754789650648,350.613,0.5299999713897705,-2.4460328577225545
351.0,,0.008234609027417907,351.075,0.515999972820282,-2.476454650890084
351.465517,,0.004365231999047297,351.541,0.5210000276565552,-2.465461659329587
351.93103399999995,,0.002566505648306087,352.007,0.531000018119812,-2.443558568888976
352.396552,,0.001517777529327591,352.473,0.5099999904632568,-2.489180564336052
352.862069,,0.0008615941348923684,352.938,0.5289999842643738,-2.447648099032907
353.32758600000005,,0.004782550589087192,353.403,0.5090000033378601,-2.4910791467587705
353.793103,,0.00789095521554384,353.868,0.5249999761581421,-2.456079985671412
354.258621,,0.007912725670412825,354.333,0.531000018119812,-2.442872539424415
354.72413800000004,,0.00550497577581296,354.797,0.5249999761581421,-2.45581846752596
355.189655,,0.0035352775351488687,355.263,0.4779999852180481,-2.5581034020614766
355.655172,,0.003572180596871191,355.731,0.5099999904632568,-2.488294410229688
356.12069,,0.004151342871906288,356.193,0.5090000033378601,-2.4904027574934644
356.586207,,0.0030603212901665427,356.661,0.5199999809265137,-2.4663906457422797
357.05172400000004,,0.0004991925340601563,357.123,0.5170000195503235,-2.4729036974773564
357.517241,,0.0010924691967437732,357.59,0.5239999890327454,-2.457654863882506
357.982759,,0.0001318216114284154,358.053,0.5199999809265137,-2.46639511343926
358.448276,,0.0023768000950636563,358.518,0.5210000276565552,-2.464264870694301
358.913793,,0.004682884912729015,358.982,0.5170000195503235,-2.473049124741334
359.37931000000003,,0.006883035025738151,359.448,0.5529999732971191,-2.3947055530087242
359.844828,,0.010516014428500284,359.912,0.5149999856948853,-2.4775963155009624
360.310345,,0.015877974335874116,360.377,0.5419999957084656,-2.4188860484774968
360.775862,,0.021150726958241745,360.842,0.5199999809265137,-2.466937121886578
361.241379,,0.024686757592296642,361.307,0.515999972820282,-2.4757763669779504
361.706897,,0.027111572799792816,361.78,0.5230000019073486,-2.4606506161620194
362.172414,,0.03037988719812642,362.238,0.5339999794960022,-2.436806165812082
362.63793100000004,,0.03537877047027537,362.701,0.531000018119812,-2.4434541016985456
363.103448,,0.04107692503384846,363.171,0.5299999713897705,-2.4457327427252475
363.568966,,0.04535347755222884,363.635,0.5239999890327454,-2.458889423789467
364.034483,,0.04584482790789808,364.097,0.5180000066757202,-2.4720288363568357
364.5,,0.04051762546595652,364.563,0.5289999842643738,-2.4481121913970445
364.96551700000003,,0.028723754826584458,365.025,0.5249999761581421,-2.4568545888532487
365.431034,,0.012262271217569357,365.491,0.5410000085830688,-2.42200224668323
365.896552,,0.0050883832824221605,365.957,0.5199999809265137,-2.4677383341392196
366.362069,,0.019750163418472747,366.423,0.515999972820282,-2.476416971273171
366.827586,,0.030205368291493923,366.887,0.515999972820282,-2.4763626076123426
367.29310300000003,,0.0366717872836392,367.353,0.5239999890327454,-2.458862560745873
367.758621,,0.03945867845172345,367.819,0.527999997138977,-2.4500628039589536
368.224138,,0.03842880381909234,368.285,0.5149999856948853,-2.4782886802258464
368.689655,,0.03403978839117955,368.746,0.5180000066757202,-2.471648274761906
369.155172,,0.02793470375685724,369.216,0.4860000014305115,-2.541257026450654
369.62068999999997,,0.021814151745478426,369.679,0.5130000114440918,-2.482325967867173
370.086207,,0.01602166013847351,370.141,0.5049999952316284,-2.499651365722276
370.55172400000004,,0.009751740376979214,370.609,0.503000020980835,-2.5039114936180242
371.017241,,0.0025919642147340274,371.071,0.5139999985694885,-2.4798589414881698
371.482759,,0.004418249067194778,371.537,0.5080000162124634,-2.492855275056327
371.948276,,0.009230545796059683,372.0,0.5170000195503235,-2.473185794440128
372.413793,,0.010192929759768658,372.466,0.5090000033378601,-2.490568834254523
372.87931000000003,,0.007093555108104098,372.931,0.5929999947547913,-2.3075312340157144
373.344828,,0.0008295760832861518,373.397,0.5210000276565552,-2.4643769344204394
373.810345,,0.007920899779350643,373.864,0.5170000195503235,-2.473090156635482
374.275862,,0.019306386954887737,374.329,0.5400000214576721,-2.422996307632555
374.741379,,0.0331352416438515,374.794,0.5249999761581421,-2.455706551331034
375.20689699999997,,0.04727436287967628,375.26,0.5210000276565552,-2.4644658709583953
375.672414,,0.05797731858070976,375.723,0.5379999876022339,-2.4274867892570082
376.137931,,0.06232064819665159,376.186,0.5189999938011169,-2.4689499321326256
376.603448,,0.06013971955102121,376.657,0.527999997138977,-2.4494199086301776
377.068966,,0.05340556795345453,377.119,0.5170000195503235,-2.473469647075594
377.53448299999997,,0.04422263387323586,377.587,0.5180000066757202,-2.471380123354291
378.0,,0.0338537684151997,378.049,0.5210000276565552,-2.4649350862115917
378.465517,,0.022966579336581725,378.514,0.5210000276565552,-2.4650250269095144
378.931034,,0.011725255930572312,378.979,0.5109999775886536,-2.4868979916817233
379.396552,,0.00021961858832061443,379.444,0.5180000066757202,-2.471727843677108
379.862069,,0.012778651774530551,379.908,0.5049999952316284,-2.500122650320043
380.327586,,0.024336983025157417,380.374,0.5379999876022339,-2.4282890668962294
380.79310300000003,,0.03259479066561827,380.839,0.5170000195503235,-2.474089529718007
381.258621,,0.03682388322434547,381.305,0.5210000276565552,-2.4654095814885792
381.724138,,0.03847147206217953,381.768,0.5170000195503235,-2.474143996523343
382.189655,,0.039190317179611016,382.23,0.5210000276565552,-2.4654338198846424
382.655172,,0.039164733141154984,382.698,0.515999972820282,-2.476316249319699
383.12068999999997,,0.03791544275028564,383.167,0.515999972820282,-2.4762904830178725
383.586207,,0.03586838701528906,383.627,0.5329999923706055,-2.4392134551177915
384.051724,,0.034222298540514985,384.09,0.5299999713897705,-2.4456960362928757
384.517241,,0.0336747232699142,384.555,0.5230000019073486,-2.4608812772447086
384.982759,,0.034018324404534526,385.026,0.5180000066757202,-2.471699941975102
385.44827599999996,,0.03471403359298244,385.491,0.5249999761581421,-2.4563681023566843
385.913793,,0.03513160828352102,385.956,0.5199999809265137,-2.467175659051185
386.37931,,0.03432813340988132,386.415,0.5400000214576721,-2.423514934772874
386.84482799999995,,0.03136425679812276,386.886,0.515999972820282,-2.475715508476063
387.310345,,0.02616441087047235,387.345,0.5210000276565552,-2.464738689955827
387.775862,,0.019748026196635838,387.817,0.5230000019073486,-2.4603044455941894
388.241379,,0.013444452648244008,388.275,0.5289999842643738,-2.4471641024150865
388.70689699999997,,0.008115518702508293,388.745,0.5180000066757202,-2.471071237744882
389.172414,,0.004158067130159292,389.208,0.5249999761581421,-2.455775232846237
389.637931,,0.0017903777656429881,389.676,0.5419999957084656,-2.418706021867668
390.103448,,0.0010080671697805961,390.138,0.5170000195503235,-2.473154091084293
390.56896600000005,,0.0014870596706788675,390.605,0.5210000276565552,-2.464436432198966
391.03448299999997,,0.002796989657268384,391.068,0.531000018119812,-2.4426621474884995
391.5,,0.004550833496624835,391.534,0.5099999904632568,-2.4884407635662535
391.965517,,0.006059306010445067,391.997,0.5370000004768372,-2.429658065561085
392.431034,,0.0058629057506854486,392.463,0.5109999775886536,-2.4863563203958243
392.896552,,0.002040175855228974,392.928,0.5329999923706055,-2.4384901464777347
393.36206899999996,,0.006330931361929375,393.394,0.5120000243186951,-2.484314684065197
393.827586,,0.017627915864219447,393.86,0.6269999742507935,-2.2338478550240453
394.293103,,0.02803254671197602,394.326,0.5289999842643738,-2.4474334676025546
394.75862099999995,,0.03418131882419601,394.785,0.5540000200271606,-2.3930442137510046
395.224138,,0.03558852386706028,395.251,0.503000020980835,-2.504231102487839
395.68965499999996,,0.03416580124286953,395.715,0.5379999876022339,-2.4280516358355926
396.155172,,0.031676383528418485,396.185,0.5130000114440918,-2.4825864842778596
396.62069,,0.028338558277252086,396.646,0.5130000114440918,-2.482649009878128
397.086207,,0.023757531082966115,397.115,0.46399998664855957,-2.5894588856261906
397.551724,,0.01825936849163396,397.583,0.5170000195503235,-2.4740391043741883
398.017241,,0.012810031148882933,398.045,0.5379999876022339,-2.4283259619451094
398.48275900000004,,0.00799859738261712,398.511,0.5070000290870667,-2.495889686689431
398.94827599999996,,0.0035858844082800683,398.975,0.5440000295639038,-2.4152917993241254
399.413793,,0.0008596684911281153,399.441,0.515999972820282,-2.476291902952179
399.87931,,0.005062345514963311,399.906,0.550000011920929,-2.4022008601372247
400.344828,,0.007988931325938227,400.371,0.5109999775886536,-2.487137050530816
400.810345,,0.00876868197534893,400.831,0.5249999761581421,-2.4565918274476384
401.27586199999996,,0.007546639607780421,401.296,0.5270000100135803,-2.4521787749269017
401.741379,,0.005314184909669513,401.764,0.5199999809265137,-2.4673635229682302
402.206897,,0.0029221834057256385,402.227,0.5339999794960022,-2.4367882450992706
402.672414,,0.00029731482903423175,402.694,0.5099999904632568,-2.488995486044884
403.137931,,0.0033658799875332978,403.156,0.5210000276565552,-2.464946600397655
403.60344799999996,,0.008540166280473481,403.624,0.5389999747276306,-2.4256461772154494
404.068966,,0.01434016253781296,404.086,0.5139999985694885,-2.480028411254026
404.534483,,0.018581051865287045,404.552,0.5429999828338623,-2.416767145234758
405.0,,0.019128160484934105,405.022,0.5339999794960022,-2.4362999821650964
405.465517,,0.01551336866612966,405.48,0.5130000114440918,-2.4819844906348667
405.931034,,0.009384871282256367,405.949,0.5339999794960022,-2.436176495142464
406.39655200000004,,0.003356573356581572,406.414,0.492000013589859,-2.5276360772660134
406.862069,,0.0007039170105203616,406.879,0.5139999985694885,-2.4796772160474734
407.327586,,0.002534760643314146,407.345,0.5299999713897705,-2.444805880011003
407.793103,,0.0030657662307376405,407.805,0.5170000195503235,-2.4731304956070455
408.258621,,0.0033902895468495694,408.27,0.5379999876022339,-2.427396286024577
408.72413800000004,,0.003978338688749057,408.742,0.5370000004768372,-2.429606359527238
409.18965499999996,,0.004595814993892323,409.204,0.5230000019073486,-2.460152044651945
409.655172,,0.004876367047969696,409.672,0.515999972820282,-2.4754598374936507
410.12069,,0.004901114278744559,410.134,0.42500001192092896,-2.673787208394742
410.586207,,0.005060688863345883,410.602,0.5239999890327454,-2.458184141169466
411.05172400000004,,0.0054364216689246495,411.064,0.5109999775886536,-2.4865981925315754
411.51724099999996,,0.005671830317585283,411.529,0.515999972820282,-2.475800591860776
411.982759,,0.005458195019666003,411.994,0.515999972820282,-2.475897262773279
412.448276,,0.0048063039180769,412.459,0.492000013589859,-2.5282796995380465
412.913793,,0.003944756099137972,412.924,0.5109999775886536,-2.486976113278871
413.37931,,0.003384287670762425,413.39,0.5289999842643738,-2.447843224111835
413.844828,,0.003868273474013552,413.856,0.527999997138977,-2.4500930333033333
414.31034500000004,,0.0055964470173444775,414.315,0.5199999809265137,-2.467579304669703
414.775862,,0.0075585293580491516,414.78,0.5130000114440918,-2.4828712259114125
415.241379,,0.008324251526968307,415.245,0.5339999794960022,-2.437144131394438
415.706897,,0.007602384620547922,415.716,0.4699999988079071,-2.576584838157962
416.172414,,0.006463470560983187,416.178,0.5410000085830688,-2.421891026269898
416.63793100000004,,0.005896912570631302,416.642,0.5080000162124634,-2.4937592355355354
417.103448,,0.005693904599263657,417.112,0.515999972820282,-2.47628598268847
417.568966,,0.004998040097894333,417.57,0.515999972820282,-2.4762265405198027
418.034483,,0.0035058229354072426,418.042,0.6299999952316284,-2.227785318711735
418.5,,0.0017800608286166763,418.5,0.5189999938011169,-2.4695247524374393
418.96551700000003,,0.0006052016323384415,418.965,0.5149999856948853,-2.4781384040799854
419.43103399999995,,0.0002614558150894225,419.43,0.5149999856948853,-2.4780327942705864
419.896552,,0.0003207571937222954,419.897,0.5130000114440918,-2.482283505512851
420.362069,,7.663374194913009e-05,420.363,0.5130000114440918,-2.4821797628283924
420.827586,,0.0007476072940711248,420.828,0.5170000195503235,-2.473367686179049
421.293103,,0.0017261094180234188,421.294,0.5120000243186951,-2.48417299186956
421.758621,,0.0021934601697599213,421.757,0.5070000290870667,-2.4949910118153507
422.22413800000004,,0.0019140058112451872,422.226,0.515999972820282,-2.4753234364033583
422.689655,,0.0013148219998248788,422.686,0.492000013589859,-2.527568641432452
423.15517200000005,,0.00113771630401311,423.156,0.5410000085830688,-2.420791320506821
423.62069,,0.0017583367332017047,423.62,0.5239999890327454,-2.4578233282840247
424.086207,,0.002738074228309734,424.082,0.5260000228881836,-2.4534791510516243
424.55172400000004,,0.0031874011043545045,424.548,0.5210000276565552,-2.464403731695937
425.017241,,0.002662024241921676,425.011,0.5120000243186951,-2.4840603468942963
425.482759,,0.0014863035861732783,425.477,0.527999997138977,-2.449266707716274
425.948276,,0.0001011120087698559,425.942,0.5339999794960022,-2.436272765119359
426.413793,,0.0015737894827504116,426.407,0.5130000114440918,-2.4821127508808565
426.87931000000003,,0.003923697416026861,426.872,0.5339999794960022,-2.4364574718818117
427.344828,,0.007110721784911125,427.337,0.5249999761581421,-2.4561660691219585
427.810345,,0.010965115077271,427.802,0.5170000195503235,-2.4736971529332683
428.275862,,0.014978280225705385,428.267,0.5460000038146973,-2.410616154497157
428.741379,,0.018075062643566963,428.731,0.5400000214576721,-2.4237815237092133
429.20689699999997,,0.018824864768694265,429.2,0.5230000019073486,-2.460902795296723
429.672414,,0.016391553783238706,429.661,0.5130000114440918,-2.4827623677092836
430.137931,,0.011106214059448569,430.13,0.5149999856948853,-2.478465448155961
430.603448,,0.003775939584281587,430.591,0.5080000162124634,-2.4937617724363244
431.068966,,0.005255434748970608,431.06,0.515999972820282,-2.4763626215825547
431.534483,,0.015710917405366346,431.526,0.527999997138977,-2.450231431354845
432.0,,0.02601678149628654,431.99,0.49399998784065247,-2.5243004629849106
432.46551700000003,,0.03315137739164093,432.455,0.5270000100135803,-2.452382741996326
432.931034,,0.034685489773335576,432.915,0.5210000276565552,-2.4654153169617303
433.396552,,0.030989220954481225,433.381,0.5230000019073486,-2.4610025102549358
433.862069,,0.02493570872739592,433.845,0.503000020980835,-2.504505733436208
434.327586,,0.019387575829883607,434.311,0.5210000276565552,-2.4652087039895205
434.79310300000003,,0.015331610742066796,434.783,0.5189999938011169,-2.4694754193487882
435.258621,,0.012241347870963336,435.241,0.5339999794960022,-2.436698031414852
435.724138,,0.009383449601957543,435.709,0.5339999794960022,-2.4365958983224685
436.189655,,0.006419937637025736,436.172,0.5230000019073486,-2.4604576061557966
436.655172,,0.0032908192084683866,436.642,0.5320000052452087,-2.4407487185665784
437.12068999999997,,3.399035314135304e-05,437.104,0.5180000066757202,-2.471154561703823
437.586207,,0.0032620904741842045,437.57,0.515999972820282,-2.475426034573042
438.051724,,0.006385136542481261,438.034,0.5260000228881836,-2.4535658989004197
438.517241,,0.00888270126892025,438.5,0.5419999957084656,-2.418648249449585
438.982759,,0.010282596526035926,438.96,0.5109999775886536,-2.486143150357508
439.448276,,0.010783219399887106,439.425,0.5389999747276306,-2.425115660598417
439.913793,,0.011532457376104817,439.891,0.5170000195503235,-2.4730394097133237
440.37931000000003,,0.013529871687021704,440.356,0.515999972820282,-2.4752313110260267
440.844828,,0.016090726404749036,440.823,0.5149999856948853,-2.477442886608566
441.310345,,0.01714300965784583,441.289,0.5109999775886536,-2.4862094782618227
441.775862,,0.015538234902850697,441.757,0.5289999842643738,-2.447063050941097
442.241379,,0.012564546235603973,442.219,0.5370000004768372,-2.429717498088779
442.70689699999997,,0.010718378914480959,442.683,0.5130000114440918,-2.4821003236154784
443.172414,,0.011438618741811351,443.145,0.5230000019073486,-2.4604182617356654
443.637931,,0.014486173808144499,443.616,0.5379999876022339,-2.4278485693814176
444.103448,,0.01899666867902365,444.079,0.5440000295639038,-2.414887809405547
444.568966,,0.02436732322713748,444.544,0.5170000195503235,-2.4738202249526653
445.03448299999997,,0.0302627206389263,445.008,0.5180000066757202,-2.4717454834459422
445.5,,0.03644796675107026,445.474,0.531000018119812,-2.443518773321315
445.965517,,0.04268271534769205,445.94,0.5299999713897705,-2.445781535132312
446.431034,,0.048166932066428296,446.406,0.5130000114440918,-2.4828880898072856
446.896552,,0.05087865717467858,446.871,0.5329999923706055,-2.4393682969347688
447.36206899999996,,0.04809790597652951,447.33,0.5289999842643738,-2.4481174301124806
447.827586,,0.038256459490697586,447.795,0.515999972820282,-2.476454566497488
448.29310300000003,,0.022230514002765184,448.26,0.5149999856948853,-2.478627986607765
448.758621,,0.0024932570903033412,448.728,0.5109999775886536,-2.4873178974124572
449.224138,,0.018783396062331884,449.19,0.5009999871253967,-2.5090611330522146
449.689655,,0.04026585332481874,449.66,0.5249999761581421,-2.4567129880945946
450.155172,,0.060299057253667535,450.123,0.5230000019073486,-2.460993334841092
450.62068999999997,,0.07620265332848032,450.587,0.5299999713897705,-2.4456513890635274
451.086207,,0.08543767440643688,451.057,0.515999972820282,-2.476049204766552
451.551724,,0.08728001012698329,451.515,0.5360000133514404,-2.4323642169710076
452.017241,,0.08290399156367478,451.98,0.5210000276565552,-2.4649266120845477
452.482759,,0.07399094034180514,452.445,0.5540000200271606,-2.3929117350315647
452.94827599999996,,0.0617855259313312,452.912,0.5299999713897705,-2.445081093403342
453.413793,,0.047470251544149876,453.378,0.5389999747276306,-2.4253600045574735
453.87931,,0.03267917335329035,453.843,0.5049999952316284,-2.499330380564491
454.344828,,0.018978203339763924,454.308,0.5230000019073486,-2.4600248641656903
454.810345,,0.006971922624501964,454.771,0.5120000243186951,-2.483917212042642
455.27586199999996,,0.0034898297906153166,455.242,0.5669999718666077,-2.3640375212294087
455.741379,,0.012069340763006536,455.704,0.5170000195503235,-2.47293547922579
456.206897,,0.017525362812357868,456.167,0.5090000033378601,-2.490352377386653
456.672414,,0.019151269922164676,456.635,0.5370000004768372,-2.4293613432087304
457.137931,,0.018275990327522806,457.097,0.49000000953674316,-2.531792352245326
457.603448,,0.01741994636630785,457.563,0.5249999761581421,-2.4555973251808663
458.06896600000005,,0.017794601622440807,458.026,0.5329999923706055,-2.438246617926454
458.53448299999997,,0.0182596379186643,458.491,0.5049999952316284,-2.4993454435399163
459.0,,0.01692955055344647,458.956,0.5180000066757202,-2.4711354669105314
459.465517,,0.01333711750387538,459.422,0.5249999761581421,-2.4560097103421086
459.931034,,0.008891543212735322,459.887,0.5210000276565552,-2.4648567671453123
460.39655200000004,,0.005616841132489296,460.352,0.5239999890327454,-2.458457040961071
460.86206899999996,,0.004613854116296872,460.819,0.5540000200271606,-2.3932321988668432
461.327586,,0.0054861535460816865,461.286,0.5120000243186951,-2.4848639529048056
461.793103,,0.006959721015522121,461.749,0.5370000004768372,-2.4305164106611463
462.258621,,0.007941959680125774,462.212,0.5090000033378601,-2.4916238335398884
462.724138,,0.008091348501822093,462.675,0.5249999761581421,-2.456854144627309
463.18965499999996,,0.007701405068592909,463.145,0.531000018119812,-2.4438509911239996
463.655172,,0.007350703670016723,463.605,0.5289999842643738,-2.4482545041458565
464.12069,,0.007618287042981099,464.075,0.515999972820282,-2.476598940782706
464.58620699999994,,0.008758476283671678,464.541,0.5260000228881836,-2.4548095626404325
465.051724,,0.010377963467315766,465.0,0.5180000066757202,-2.4722111526461044
465.517241,,0.011556646687267675,465.465,0.5149999856948853,-2.4786954706907918
465.98275900000004,,0.01156575432213292,465.931,0.515999972820282,-2.476442805691924
466.448276,,0.010512207782142121,466.396,0.5540000200271606,-2.3935590683746617
466.913793,,0.009136506387020009,466.861,0.5130000114440918,-2.482769984238444
467.37931,,0.007982244679786775,467.327,0.5210000276565552,-2.4652124299958533
467.844828,,0.006950580399578663,467.794,0.5370000004768372,-2.4302153274531704
468.31034500000004,,0.005732542712092044,468.26,0.515999972820282,-2.4758218004954915
468.77586199999996,,0.004454540648314876,468.723,0.49900001287460327,-2.5127124936947767
469.241379,,0.003637998419621922,469.186,0.5170000195503235,-2.4733548600465793
469.706897,,0.0036146496875915043,469.654,0.5210000276565552,-2.46450674500964
470.172414,,0.004338150845590686,470.115,0.5210000276565552,-2.4643854794124826
470.63793100000004,,0.00571575036096605,470.586,0.5339999794960022,-2.435957725872865
471.10344799999996,,0.007552647031485902,471.049,0.515999972820282,-2.4750871705076034
471.568966,,0.009138656028219094,471.514,0.5189999938011169,-2.4684873507668343
472.034483,,0.009723041498597929,471.98,0.5249999761581421,-2.4553764154881454
472.5,,0.009692538963597352,472.445,0.5199999809265137,-2.466256570273258
472.965517,,0.010433828861068358,472.905,0.49000000953674316,-2.5316301603371314
473.43103399999995,,0.012513333391341844,473.37,0.5339999794960022,-2.4358112321078917
473.89655200000004,,0.014686704589018587,473.842,0.5239999890327454,-2.4576646314140156
474.362069,,0.015380395040526858,474.3,0.5199999809265137,-2.466469196769589
474.827586,,0.01466754000432039,474.768,0.5149999856948853,-2.4774731447696925
475.293103,,0.013933865783171264,475.231,0.5400000214576721,-2.4231347368902636
475.758621,,0.013748438137237383,475.701,0.527999997138977,-2.4494191252783426
476.22413800000004,,0.013022816299457615,476.163,0.515999972820282,-2.4757120283208525
476.689655,,0.010617557249425391,476.631,0.5249999761581421,-2.4562576380402743
477.155172,,0.007080895561007314,477.093,0.5210000276565552,-2.465125158353461
477.62069,,0.004188869934533808,477.558,0.5109999775886536,-2.487059730724541
478.086207,,0.00308875806017688,478.02,0.515999972820282,-2.4763050683983336
478.55172400000004,,0.0035161400160770807,478.486,0.5419999957084656,-2.419784389987006
479.01724099999996,,0.00473017156863587,478.952,0.5210000276565552,-2.465641192227398
479.482759,,0.006458142599926558,479.418,0.5090000033378601,-2.491868351038905
479.948276,,0.008571888872285691,479.882,0.527999997138977,-2.450533143820139
480.413793,,0.010344298319286084,480.348,0.515999972820282,-2.4767096095530428
480.87931000000003,,0.010534185030527981,480.812,0.5139999985694885,-2.4810718950110227
481.344828,,0.008018980528551985,481.277,0.5299999713897705,-2.446190665447958
481.810345,,0.0020409252460552017,481.746,0.5249999761581421,-2.457033093782052
482.275862,,0.007839616229710859,482.208,0.5210000276565552,-2.4656702190812902
482.74137900000005,,0.021321499737800335,482.675,0.5230000019073486,-2.4612115150411955
483.206897,,0.03657758077767737,483.137,0.5109999775886536,-2.4872330389368034
483.672414,,0.05029395398363998,483.605,0.5170000195503235,-2.4740218644561005
484.13793100000004,,0.059209898559469135,484.067,0.4950000047683716,-2.521800769425854
484.603448,,0.062007040576838854,484.533,0.5239999890327454,-2.4584611336586697
485.068966,,0.05967330758820786,484.997,0.5320000052452087,-2.4408696709506534
485.534483,,0.05414057171276438,485.462,0.5249999761581421,-2.4559589454746975
486.0,,0.046886645400821096,485.928,0.531000018119812,-2.4427315534545913
486.46551700000003,,0.03878085427556789,486.393,0.5210000276565552,-2.4643735419233197
486.931034,,0.030668796866512395,486.86,0.5249999761581421,-2.455530295175132
487.396552,,0.023508160673241595,487.326,0.5080000162124634,-2.4924587247684635
487.862069,,0.017750302318692002,487.79,0.5049999952316284,-2.498910619224392
488.327586,,0.01281659579427635,488.256,0.5199999809265137,-2.4661741909285135
488.79310300000003,,0.007622016709347381,488.719,0.5189999938011169,-2.4683249336131245
489.258621,,0.0018521844471153022,489.182,0.5099999904632568,-2.4879347272637697
489.724138,,0.003487231356618929,489.65,0.5080000162124634,-2.492324251091167
490.189655,,0.007101606898245551,490.112,0.5299999713897705,-2.444455679917095
490.655172,,0.008970724852191025,490.578,0.5149999856948853,-2.47722406263157
491.12069,,0.010603502813357995,491.041,0.43700000643730164,-2.6472733788435123
491.586207,,0.013494221049997047,491.507,0.5210000276565552,-2.464405695197532
492.05172400000004,,0.01733621290060252,491.972,0.503000020980835,-2.5037787754968517
492.517241,,0.020056629558996054,492.438,0.5180000066757202,-2.4712687535804223
492.982759,,0.01986167625972913,492.905,0.5270000100135803,-2.451837087293393
493.448276,,0.017094172919644143,493.371,0.5260000228881836,-2.4541921599506367
493.913793,,0.013848173849760193,493.835,0.5270000100135803,-2.452184471180132
494.37931000000003,,0.01196516217345398,494.301,0.5360000133514404,-2.4327363967565594
494.844828,,0.011685826135721108,494.764,0.5070000290870667,-2.49606091652733
495.310345,,0.011993794313854623,495.226,0.5360000133514404,-2.433003613159916
495.775862,,0.01182694817999175,495.69,0.5130000114440918,-2.4832117755654983
496.241379,,0.010950267219060627,496.16,0.5180000066757202,-2.472390581248691
496.70689699999997,,0.009842126027029427,496.62,0.5210000276565552,-2.465897346626224
497.172414,,0.00879302858756895,497.09,0.4740000069141388,-2.568306688033932
497.637931,,0.007386505025631771,497.555,0.5440000295639038,-2.415783945583893
498.103448,,0.005292535602746328,498.018,0.5040000081062317,-2.5028821685448945
498.568966,,0.0033772243919743595,498.483,0.515999972820282,-2.476661508053568
499.03448299999997,,0.0032264059911282813,498.949,0.46399998664855957,-2.5898487576664775
499.5,,0.00527028797477485,499.415,0.5080000162124634,-2.493864129428294
499.96551700000003,,0.007927045427732577,499.879,0.5239999890327454,-2.4588630608793403
500.431034,,0.009047285345639505,500.344,0.5109999775886536,-2.487027180189454
500.89655200000004,,0.008044825106573355,500.809,0.515999972820282,-2.475964907213631
501.362069,,0.006395199489924896,501.275,0.5350000262260437,-2.4343956069781703
501.827586,,0.006060038381937521,501.735,0.5320000052452087,-2.4407555910279384
502.293103,,0.007401327457687177,502.204,0.5230000019073486,-2.4601916891407747
502.758621,,0.008692984075779678,502.667,0.5239999890327454,-2.4578513683948913
503.224138,,0.007948278783452454,503.13,0.515999972820282,-2.4751343896286087
503.68965499999996,,0.005218231885460568,503.601,0.5249999761581421,-2.4554006488536677
504.15517200000005,,0.0026805494486581527,504.064,0.515999972820282,-2.4749070187006765
504.62068999999997,,0.0024077393584265036,504.529,0.5130000114440918,-2.4813694101699895
505.08620699999994,,0.004489050054283566,504.994,0.5130000114440918,-2.481326740055748
505.55172400000004,,0.007400779283921468,505.46,0.515999972820282,-2.4747805589688623
506.017241,,0.009695261771058335,505.927,0.5239999890327454,-2.4573736362163574
506.48275899999993,,0.011149647147238416,506.385,0.45100000500679016,-2.616470440081578
506.948276,,0.01275249092115997,506.85,0.46399998664855957,-2.5882373818409237
507.413793,,0.01588695602694225,507.316,0.5070000290870667,-2.494675938788445
507.87931,,0.021135729749401613,507.782,0.5249999761581421,-2.4556061338618846
508.344828,,0.02734329523927914,508.248,0.515999972820282,-2.4753789598061307
508.810345,,0.03190627074738785,508.716,0.515999972820282,-2.47555784938346
509.27586199999996,,0.03252580918826136,509.179,0.5070000290870667,-2.49535297267077
509.74137900000005,,0.02895263561076631,509.642,0.5899999737739563,-2.314713896071053
510.20689699999997,,0.022814544542690236,510.105,0.5170000195503235,-2.4739375754096993
510.67241399999995,,0.015740992752464298,510.57,0.5419999957084656,-2.419642435697052
511.13793100000004,,0.008217507955826956,511.041,0.5299999713897705,-2.44594129111619
511.603448,,0.0005286497851763924,511.5,0.5270000100135803,-2.4526113815264554
512.0689659999999,,0.0060886726466999955,511.965,0.5199999809265137,-2.4679717895631264
512.534483,,0.010520369670422547,512.43,0.503000020980835,-2.505091421335221
513.0,,0.014016463685303116,512.897,0.5249999761581421,-2.457214673760824
513.465517,,0.01998418117700409,513.363,0.5149999856948853,-2.4790234395629436
513.931034,,0.030517282601580365,513.828,0.5180000066757202,-2.472477883998978
514.396552,,0.043544262741291674,514.294,0.515999972820282,-2.4767943165021187
514.862069,,0.054232501235599945,514.757,0.5370000004768372,-2.4309712648922637
515.327586,,0.05909317005222388,515.227,0.5070000290870667,-2.496230996612344
515.793103,,0.05805571889317967,515.687,0.5170000195503235,-2.474320219650732
516.258621,,0.052658375364080294,516.157,0.5379999876022339,-2.4284234364670456
516.724138,,0.04342686880667776,516.62,0.515999972820282,-2.476191614996631
517.189655,,0.03005899772256328,517.082,0.531000018119812,-2.4433379588474557
517.655172,,0.013668677084212443,517.548,0.5139999985694885,-2.4801951561954634
518.1206900000001,,0.0026735950732730256,518.011,0.5130000114440918,-2.4821938382645365
518.5862070000001,,0.01611700570398483,518.476,0.5180000066757202,-2.4711264850085306
519.051724,,0.025726128012882064,518.942,0.515999972820282,-2.4753208411034198
519.517241,,0.03141163021675682,519.407,0.5400000214576721,-2.4228858154726978
519.982759,,0.032215896207758096,519.872,0.5139999985694885,-2.47940326132302
520.448276,,0.026951836657322592,520.337,0.5099999904632568,-2.4880147786835987
520.9137929999999,,0.0163751616563194,520.801,0.5139999985694885,-2.479225179768264
521.37931,,0.00358114843407951,521.267,0.5289999842643738,-2.4465005121945
521.844828,,0.008158886155348632,521.735,0.5170000195503235,-2.4726301974027014
522.310345,,0.01731348833222881,522.197,0.5289999842643738,-2.4465036862992657
522.7758620000001,,0.023646092803974478,522.66,0.5180000066757202,-2.4705165846536667
523.241379,,0.026902783944449154,523.13,0.5289999842643738,-2.4466283271366605
523.7068969999999,,0.026867175750168584,523.594,0.5440000295639038,-2.414051423228786
524.172414,,0.024126183949066283,524.056,0.531000018119812,-2.442499165695937
524.637931,,0.019653237517118668,524.522,0.5270000100135803,-2.451357797784052
525.103448,,0.013716551969439491,524.987,0.5400000214576721,-2.4231938071054095
525.568966,,0.00609409923234091,525.452,0.5270000100135803,-2.451684181749302
526.034483,,0.0025360753310775005,525.92,0.5289999842643738,-2.4474993728294043
526.5,,0.010179914613431078,526.385,0.5360000133514404,-2.4324205232875284
526.9655170000001,,0.01491547524042899,526.849,0.5199999809265137,-2.467444866108465
527.4310340000001,,0.016418227028902287,527.315,0.5339999794960022,-2.4370989901818514
527.8965519999999,,0.015804821195455367,527.78,0.550000011920929,-2.4023798732125803
528.362069,,0.014180421657066653,528.246,0.5400000214576721,-2.424284978443493
528.827586,,0.011845578822204005,528.709,0.527999997138977,-2.450523548871956
529.293103,,0.00899391142085465,529.171,0.5450000166893005,-2.41355486320331
529.7586210000001,,0.006536400157818481,529.635,0.5379999876022339,-2.4288453249335724
530.224138,,0.005582234335381059,530.104,0.5419999957084656,-2.4201408507817836
530.689655,,0.006175376399024136,530.57,0.5519999861717224,-2.3983344788006553
531.155172,,0.007081779873941854,531.034,0.5509999990463257,-2.4004635379436663
531.62069,,0.00709268450743052,531.5,0.5370000004768372,-2.4308872462167805
532.086207,,0.006314966077572739,531.96,0.5709999799728394,-2.356710523114631
532.5517239999999,,0.00589528178704269,532.425,0.5460000038146973,-2.4110515242815955
533.017241,,0.006603003856359805,532.891,0.5379999876022339,-2.4283376131400614
533.482759,,0.008070373816298253,533.356,0.5410000085830688,-2.4216458418162716
533.9482760000001,,0.009409107485803302,533.823,0.5490000247955322,-2.4040530524290302
534.413793,,0.010038812030206904,534.289,0.5379999876022339,-2.427851950010724
534.87931,,0.00971423116877566,534.753,0.6230000257492065,-2.242501480340483
535.344828,,0.008379213387237499,535.215,0.5699999928474426,-2.357809083867254
535.810345,,0.006522548798532353,535.683,0.5540000200271606,-2.392516647305613
536.275862,,0.00518826616903327,536.146,0.6060000061988831,-2.2790916985146987
536.7413789999999,,0.004982266770708505,536.616,0.5630000233650208,-2.37265741445068
537.206897,,0.005369086866356062,537.079,0.5709999799728394,-2.3551354779568525
537.672414,,0.005512221926187056,537.544,0.5950000286102295,-2.302781410872217
538.137931,,0.005507935998567797,538.008,0.6480000019073486,-2.187273363863404
538.6034480000001,,0.006112165140087025,538.474,0.593999981880188,-2.3049075276240605
539.0689659999999,,0.00726107630596976,538.939,0.6060000061988831,-2.278779058216593
539.5344829999999,,0.0074641514246134915,539.404,0.5809999704360962,-2.3332900159408876
540.0,,0.00503847005171527,539.871,0.5910000205039978,-2.3115769036745255
540.465517,,0.0001923035440434821,540.33,0.5979999899864197,-2.2964268539975743
540.931034,,0.0066430833309784965,540.795,0.656000018119812,-2.170188252154181
541.396552,,0.012304049479363569,541.261,0.6079999804496765,-2.2749044835997503
541.862069,,0.01618822990409265,541.731,0.6000000238418579,-2.292489365039301
542.327586,,0.01867387171523482,542.193,0.5920000076293945,-2.3100861238787336
542.7931030000001,,0.020706730704498463,542.661,0.5080000162124634,-2.493269122416846
543.258621,,0.022587485603706315,543.123,0.6100000143051147,-2.2712285027734183
543.7241379999999,,0.023382335015353247,543.587,0.6039999723434448,-2.2844795300552247
544.189655,,0.021685154429558425,544.056,0.6039999723434448,-2.2846487487767737
544.655172,,0.017210687044557162,544.515,0.6010000109672546,-2.291338832218164
545.12069,,0.011631422966437582,544.987,0.6299999952316284,-2.2282918852711338
545.5862070000001,,0.007607430875238612,545.445,0.656000018119812,-2.1717545568521066
546.051724,,0.0066983462027141874,545.912,0.5759999752044678,-2.3461243834875694
546.517241,,0.008073401145637708,546.378,0.6079999804496765,-2.2764548760208516
546.982759,,0.009289942872797864,546.846,0.640999972820282,-2.204574212569292
547.448276,,0.008273051524813875,547.312,0.6700000166893005,-2.1413724129547953
547.9137929999999,,0.0044477735636251825,547.776,0.6140000224113464,-2.263320049926547
548.3793099999999,,0.0016539437681265402,548.235,0.6100000143051147,-2.2719453814080657
548.844828,,0.009127185702553033,548.705,0.6520000100135803,-2.180323355604368
549.310345,,0.016838548884684494,549.167,0.6359999775886536,-2.21503599177347
549.775862,,0.023440485617939263,549.635,0.6200000047683716,-2.2497260807271116
550.241379,,0.02787588994574948,550.098,0.6320000290870667,-2.2233975335815925
550.706897,,0.030049318079827064,550.563,0.6230000257492065,-2.242810068073427
551.172414,,0.030892114903422575,551.026,0.6100000143051147,-2.2709331560814654
551.637931,,0.03155522305624373,551.492,0.6190000176429749,-2.251128696462267
552.103448,,0.03235306776541416,551.957,0.6209999918937683,-2.2465837421083346
552.568966,,0.03262085113929942,552.422,0.6079999804496765,-2.2747333771740355
553.034483,,0.031895610378156525,552.89,0.6330000162124634,-2.220114621051575
553.5,,0.030942753239661384,553.356,0.6119999885559082,-2.265738831577021
553.965517,,0.03078968688239983,553.82,0.609000027179718,-2.2721766493684377
554.4310340000001,,0.030672123163019545,554.286,0.6169999837875366,-2.2546824658823486
554.896552,,0.02791618775554333,554.749,0.6179999709129333,-2.2524735748666247
555.3620689999999,,0.020412004329840385,555.212,0.6240000128746033,-2.2394068396187623
555.827586,,0.00885706054404854,555.675,0.6069999933242798,-2.2764846491455315
556.293103,,0.003380685966736705,556.145,0.6140000224113464,-2.26130939769863
556.758621,,0.012085738088169288,556.609,0.5979999899864197,-2.296275838981847
557.224138,,0.014546190656812223,557.071,0.6539999842643738,-2.1744081109088276
557.689655,,0.011778913950108022,557.536,0.6290000081062317,-2.2290338860089114
558.155172,,0.008826621470863954,558.0,0.6269999742507935,-2.233568729859244
558.6206900000001,,0.011555706604555521,558.466,0.6100000143051147,-2.270796319541299
559.0862070000001,,0.022206954047246083,558.93,0.6320000290870667,-2.2230640946622193
559.5517239999999,,0.038191383283145613,559.396,0.6150000095367432,-2.2603003077168746
560.017241,,0.05492115376632867,559.86,0.6179999709129333,-2.2539585307005066
560.482759,,0.06879130178162504,560.326,0.5960000157356262,-2.302072263437363
560.948276,,0.07745813155904405,560.791,0.5920000076293945,-2.3109549209713394
561.413793,,0.07896902345437598,561.257,0.6000000238418579,-2.2936732724140456
561.87931,,0.07223059033899679,561.72,0.5960000157356262,-2.3025100696263423
562.344828,,0.058276692626453526,562.19,0.6200000047683716,-2.2503148075738517
562.8103450000001,,0.04014293339490907,562.653,0.5820000171661377,-2.3331626128756326
563.275862,,0.021068208482329986,563.116,0.5799999833106995,-2.3375449007628157
563.7413789999999,,0.0028726508790022412,563.587,0.5929999947547913,-2.309212558890662
564.206897,,0.014149312236291357,564.049,0.5540000200271606,-2.3941353872868842
564.672414,,0.030184884836698286,564.515,0.5889999866485596,-2.3178052875621242
565.137931,,0.04471961293310015,564.979,0.5830000042915344,-2.33076818777171
565.603448,,0.05609115032923955,565.445,0.5950000286102295,-2.3044861608352227
566.068966,,0.062281444394094825,565.905,0.5699999928474426,-2.3587890503173026
566.534483,,0.062276485966284253,566.37,0.574999988079071,-2.3477124448237583
567.0,,0.056408821352518075,566.835,0.5879999995231628,-2.3191920086527227
567.465517,,0.045411398548066126,567.301,0.550000011920929,-2.4017740075557645
567.931034,,0.02992366342281256,567.771,0.5680000185966492,-2.362349931814669
568.396552,,0.011421183374116831,568.233,0.5490000247955322,-2.4035407226989065
568.862069,,0.007106312469877572,568.701,0.5440000295639038,-2.4142417892046213
569.327586,,0.02241207145666372,569.164,0.5540000200271606,-2.3922805780016936
569.793103,,0.03287392172898696,569.627,0.5789999961853027,-2.3376615275182804
570.2586210000001,,0.03859043104897566,570.09,0.5950000286102295,-2.3026751958242286
570.724138,,0.03996075311813307,570.555,0.5419999957084656,-2.4180445892649054
571.189655,,0.03705561099192797,571.025,0.5519999861717224,-2.396192371341691
571.655172,,0.030416380196384502,571.491,0.5419999957084656,-2.417949321164328
572.12069,,0.02166847254238433,571.95,0.5490000247955322,-2.4027064550066775
572.586207,,0.012878557495936156,572.415,0.5860000252723694,-2.322140522341694
573.051724,,0.0054062894734561735,572.882,0.5260000228881836,-2.4529382923773126
573.517241,,0.0006045867448441792,573.348,0.5830000042915344,-2.3288670787207866
573.982759,,0.005791327448028523,573.812,0.5419999957084656,-2.4183329124772124
574.4482760000001,,0.010610897851649382,574.278,0.5709999799728394,-2.3553185463076174
574.913793,,0.014597226897119207,574.746,0.5759999752044678,-2.344611663305068
575.37931,,0.016538480945629583,575.208,0.5669999718666077,-2.364419748371971
575.844828,,0.015592901555667407,575.671,0.5540000200271606,-2.3929508071168066
576.310345,,0.012379761226493544,576.142,0.546999990940094,-2.408413281806072
576.775862,,0.008855827902116132,576.605,0.5669999718666077,-2.3650492301349026
577.241379,,0.006848830325550587,577.068,0.5669999718666077,-2.365248338504328
577.706897,,0.006595528151985376,577.533,0.550000011920929,-2.4024686414910748
578.172414,,0.006859303059660509,577.997,0.46700000762939453,-2.5834608561934798
578.6379310000001,,0.006559132739254525,578.463,0.5389999747276306,-2.4267405594913463
579.1034480000001,,0.006036814389124334,578.928,0.5419999957084656,-2.420319338558122
579.5689659999999,,0.0065301493622945935,579.393,0.5820000171661377,-2.3332545423209603
580.034483,,0.008720848743999412,579.86,0.5540000200271606,-2.3943005861017554
580.5,,0.0121847400881287,580.326,0.5630000233650208,-2.3746977521595753
580.965517,,0.01590945980158334,580.79,0.546999990940094,-2.4095224053354456
581.431034,,0.01860534231826466,581.256,0.5680000185966492,-2.3636988483108765
581.896552,,0.018567531457054347,581.716,0.5440000295639038,-2.4158783388919964
582.362069,,0.014184843995103261,582.187,0.5759999752044678,-2.346020324670266
582.827586,,0.005251765591540003,582.65,0.5699999928474426,-2.358920949255255
583.2931030000001,,0.006374759613531269,583.112,0.5849999785423279,-2.3260444941572356
583.758621,,0.01771120185682577,583.578,0.5419999957084656,-2.419510335749003
584.2241379999999,,0.026212107164150233,584.041,0.5540000200271606,-2.393138795140959
584.689655,,0.0305092085370728,584.507,0.550000011920929,-2.401621412020274
585.155172,,0.030209397703896176,584.972,0.5540000200271606,-2.392677438249987
585.6206900000001,,0.0256708460387987,585.438,0.5659999847412109,-2.3663137467105817
586.0862070000001,,0.018145216838716973,585.902,0.5799999833106995,-2.335608077891576
586.551724,,0.009696649997589275,586.368,0.5410000085830688,-2.4203925264707102
587.017241,,0.0023724570269764724,586.834,0.5460000038146973,-2.409345124784305
587.482759,,0.0029297708181540423,587.3,0.5540000200271606,-2.391795701740196
587.948276,,0.006844594905152393,587.761,0.5419999957084656,-2.4178570495818654
588.4137929999999,,0.010703367231898102,588.23,0.4050000011920929,-2.716292779063303
588.87931,,0.015279274442762922,588.694,0.5519999861717224,-2.396039377377396
589.344828,,0.02034586466549871,589.157,0.5419999957084656,-2.4178780234578356
589.810345,,0.025239449838787596,589.62,0.5540000200271606,-2.3918261957212805
590.2758620000001,,0.02947589796998568,590.09,0.5709999799728394,-2.354917562332293
590.741379,,0.0327383958959421,590.555,0.5640000104904175,-2.370327872100397
591.2068969999999,,0.03461402883473319,591.018,0.5709999799728394,-2.355263574377319
591.672414,,0.03474772846789014,591.484,0.5,-2.5101556135832337
592.137931,,0.03336389825399516,591.949,0.5830000042915344,-2.3295520927396165
592.603448,,0.03138259834067857,592.415,0.5540000200271606,-2.3929655159696552
593.068966,,0.02960510699300503,592.879,0.5669999718666077,-2.364876224884351
593.534483,,0.027671029396834846,593.345,0.5669999718666077,-2.3651026415570313
594.0,,0.024198571790765764,593.805,0.5669999718666077,-2.3653153369796898
594.4655170000001,,0.018268451522208788,594.27,0.578000009059906,-2.341542500154224
594.9310340000001,,0.010512442087818406,594.738,0.5730000138282776,-2.352601784010517
595.3965519999999,,0.002355316013549111,595.2,0.5460000038146973,-2.4115606796303815
595.862069,,0.005661207248385253,595.671,0.5360000133514404,-2.4334491996837944
596.327586,,0.014351943024201353,596.134,0.5389999747276306,-2.426980033810271
596.793103,,0.02461047686453305,596.598,0.5450000166893005,-2.413937514894792
597.2586210000001,,0.035902267295583615,597.06,0.5529999732971191,-2.3964994690101333
597.724138,,0.046155621596560836,597.526,0.574999988079071,-2.3485213471712405
598.189655,,0.05313544891284752,597.991,0.5419999957084656,-2.420331276216644
598.655172,,0.0559255652419515,598.456,0.5709999799728394,-2.357030290375783
599.12069,,0.05505700462653924,598.923,0.5669999718666077,-2.365593325945817
599.586207,,0.051367673009937845,599.389,0.5630000233650208,-2.374129192531052
600.0517239999999,,0.045264283016567264,599.853,0.5440000295639038,-2.4153239226428704
600.517241,,0.03736626551563181,600.318,0.5730000138282776,-2.3519289123002243
600.982759,,0.029232594010041867,600.783,0.5669999718666077,-2.364777966462524
601.448276,,0.022536980940189827,601.249,0.5540000200271606,-2.392875359359623
601.913793,,0.017465289174193505,601.712,0.5529999732971191,-2.3948346100887683
602.37931,,0.012562780171839831,602.182,0.5460000038146973,-2.409878086507161
602.844828,,0.006443709308583642,602.642,0.550000011920929,-2.400975404215669
603.310345,,0.0006089425538867657,603.105,0.5540000200271606,-2.3920971773834605
603.775862,,0.006941858353681628,603.57,0.5720000267028809,-2.352746597718261
604.2413789999999,,0.011399724555100655,604.042,0.5049999952316284,-2.4986144745073644
604.706897,,0.014775485318163155,604.5,0.578000009059906,-2.339508268599302
605.172414,,0.019131318090340247,604.965,0.5540000200271606,-2.391768683890264
605.637931,,0.025526591442466346,605.431,0.5460000038146973,-2.4092086994332607
606.1034480000001,,0.032786386787594386,605.898,0.5519999861717224,-2.3961856578860763
606.5689659999999,,0.03899390157983451,606.363,0.5320000052452087,-2.439844053679051
607.0344829999999,,0.043953064614313385,606.831,0.5540000200271606,-2.392033244193317
607.5,,0.04933057643487967,607.296,0.5460000038146973,-2.4096118876568364
607.965517,,0.0559363474076869,607.76,0.5460000038146973,-2.409786354057604
608.431034,,0.061303206091078456,608.223,0.550000011920929,-2.4012658479633275
608.896552,,0.06062473800227995,608.69,0.5370000004768372,-2.4297960994575494
609.362069,,0.05031226684037884,609.152,0.5699999928474426,-2.358115503547423
609.827586,,0.03058832438071093,609.616,0.5540000200271606,-2.393188356142025
610.293103,,0.004919098582807477,610.086,0.5649999976158142,-2.3694307200898956
610.758621,,0.022246057326075097,610.551,0.550000011920929,-2.402304712360361
611.2241379999999,,0.046680079474405486,611.014,0.5329999923706055,-2.439517765746497
611.689655,,0.06426129026996759,611.48,0.5709999799728394,-2.3568817732932996
612.155172,,0.0715904497440522,611.945,0.5540000200271606,-2.394042789205673
612.62069,,0.06798574970608844,612.411,0.546999990940094,-2.4093853686052817
613.0862070000001,,0.056625819483242176,612.876,0.5419999957084656,-2.420336600230158
613.551724,,0.042885878791630846,613.342,0.5669999718666077,-2.3658927826173164
614.017241,,0.031098466038241564,613.801,0.5490000247955322,-2.4050941566468045
614.4827590000001,,0.02261020397492696,614.267,0.5260000228881836,-2.4551536761534027
614.948276,,0.01632304616441305,614.735,0.546999990940094,-2.40932003647047
615.4137929999999,,0.010615064543006723,615.197,0.5270000100135803,-2.452780970604819
615.8793099999999,,0.004899990784508032,615.661,0.5329999923706055,-2.439570974467843
616.344828,,0.00028705900286373983,616.131,0.5519999861717224,-2.398016467171587
616.810345,,0.004468317636726051,616.594,0.546999990940094,-2.4087316407892527
617.275862,,0.008042819041536553,617.056,0.5299999713897705,-2.445578329176468
617.741379,,0.011496771328046194,617.522,0.5329999923706055,-2.4388460150385294
618.206897,,0.014152601039261902,617.986,0.5339999794960022,-2.4364711750589754
618.672414,,0.014619160546454329,618.452,0.5260000228881836,-2.453709989858375
619.137931,,0.012699652653021965,618.916,0.5799999833106995,-2.335883474713331
619.603448,,0.010096420421653986,619.381,0.5379999876022339,-2.4272220291999935
620.068966,,0.008653732397824155,619.846,0.5379999876022339,-2.4270774610303603
620.534483,,0.008251465623613952,620.312,0.515999972820282,-2.474888666461759
621.0,,0.007081401441181517,620.779,0.5139999985694885,-2.4791564441049356
621.465517,,0.004022680813746072,621.245,0.503000020980835,-2.5030647924656595
621.9310340000001,,0.0001551497594215203,621.705,0.5180000066757202,-2.470362565358013
622.396552,,0.0023435044595932764,622.174,0.515999972820282,-2.474731574819466
622.862069,,0.0023230866770300165,622.635,0.527999997138977,-2.4486322834511816
623.327586,,0.0003708673875011754,623.104,0.5210000276565552,-2.4639581399490185
623.793103,,0.0020868892842598225,623.57,0.5239999890327454,-2.4575257416292495
624.258621,,0.003907199259218648,624.034,0.5239999890327454,-2.457653778655659
624.724138,,0.0047736542614213355,624.5,0.5320000052452087,-2.440372724124085
625.189655,,0.0051080536544626885,624.96,0.5019999742507935,-2.505896069227264
625.655172,,0.005487175270434257,625.425,0.5149999856948853,-2.4777485779669046
626.1206900000001,,0.006119019069340638,625.89,0.4740000069141388,-2.567254669153271
626.5862070000001,,0.006945790871629348,626.356,0.5019999742507935,-2.506435753611895
627.0517239999999,,0.007988816848449345,626.821,0.515999972820282,-2.47611331518844
627.5172409999999,,0.00919577600126215,627.286,0.503000020980835,-2.5046034436131692
627.982759,,0.010110818745298957,627.757,0.5199999809265137,-2.4677182175621613
628.448276,,0.010207620753061836,628.219,0.5049999952316284,-2.5005288943242636
628.913793,,0.00955420734278755,628.683,0.5009999871253967,-2.509350161223718
629.37931,,0.00873317226780774,629.145,0.503000020980835,-2.505072424552538
629.844828,,0.00809771902955573,629.613,0.5019999742507935,-2.507301575579568
630.3103450000001,,0.007434772319947115,630.075,0.5,-2.511678696864456
630.7758620000001,,0.006329585231781609,630.54,0.453000009059906,-2.61406514180768
631.2413789999999,,0.004670777759189712,631.007,0.5090000033378601,-2.4920220790208814
631.706897,,0.0029356525303576753,631.473,0.49000000953674316,-2.5333494943669774
632.172414,,0.0019794947126948064,631.938,0.503000020980835,-2.5049335234966335
632.637931,,0.002110116966356943,632.404,0.49399998784065247,-2.524424334147474
633.103448,,0.002353853621367175,632.869,0.48399999737739563,-2.546074044580473
633.568966,,0.001336900557896947,633.334,0.5040000081062317,-2.5023490174137537
634.034483,,0.0008783626955016996,633.795,0.48899999260902405,-2.53486589106818
634.5,,0.002618844830003716,634.261,0.49900001287460327,-2.512910535786005
634.9655170000001,,0.002734837247287732,634.731,0.48899999260902405,-2.534527537073669
635.431034,,0.002194668935569864,635.193,0.5070000290870667,-2.495146471501687
635.8965519999999,,0.00281844419575029,635.661,0.4819999933242798,-2.5494566448865617
636.362069,,0.0048360115287281345,636.123,0.49399998784065247,-2.5231709151818644
636.827586,,0.0065173887771319385,636.591,0.47600001096725464,-2.562263325554109
637.293103,,0.006249434331193944,637.053,0.4959999918937683,-2.518589537213933
637.7586210000001,,0.004393023496895039,637.519,0.5090000033378601,-2.490190821425556
638.224138,,0.0028122507874115245,637.987,0.4830000102519989,-2.5467857689376734
638.689655,,0.0028662523559459126,638.445,0.47200000286102295,-2.5707295962893433
639.155172,,0.0041882106126042385,638.913,0.48500001430511475,-2.542415481628835
639.62069,,0.005296364732448384,639.378,0.4959999918937683,-2.5184874482942234
640.086207,,0.005041048355561634,639.846,0.4970000088214874,-2.5163724964875405
640.551724,,0.0034522037832718476,640.305,0.5049999952316284,-2.4990312005191737
641.017241,,0.0015013696037480232,640.779,0.4970000088214874,-2.516569359646109
641.482759,,0.00019112066861460671,641.237,0.5139999985694885,-2.479658870188921
641.9482760000001,,0.00022972748375305586,641.705,0.515999972820282,-2.4754412625398596
642.413793,,0.000251049554963905,642.167,0.49000000953674316,-2.5322346826178843
642.87931,,0.00040610653600709113,642.631,0.492000013589859,-2.5280314605709213
643.344828,,0.0008205333826999989,643.1,0.5049999952316284,-2.4998642430608884
643.810345,,0.0015007702293072813,643.566,0.5080000162124634,-2.4934794174357733
644.275862,,0.0025983884198846428,644.029,0.5189999938011169,-2.469656553265867
644.7413789999999,,0.003946078984317393,644.494,0.4729999899864197,-2.5700040710605614
645.206897,,0.00473280663421413,644.961,0.5130000114440918,-2.482972261660887
645.672414,,0.004399581611462342,645.426,0.5130000114440918,-2.4830672502742073
646.1379310000001,,0.00377057950757679,645.886,0.515999972820282,-2.4766038044212375
646.6034480000001,,0.004479839049860056,646.352,0.4970000088214874,-2.5180463114407323
647.0689659999999,,0.006926563294383876,646.817,0.49000000953674316,-2.5333206220291973
647.534483,,0.00923531017794914,647.283,0.4950000047683716,-2.522426810942082
648.0,,0.008763677784698163,647.746,0.5130000114440918,-2.483186102645526
648.465517,,0.004751430394691872,648.216,0.503000020980835,-2.504923549115934
648.931034,,0.0007652464634908063,648.679,0.47999998927116394,-2.5549616548821095
649.396552,,0.004919504619216269,649.141,0.5109999775886536,-2.4873335374812
649.862069,,0.006836046987154621,649.609,0.5099999904632568,-2.4894050979647604
650.327586,,0.008232509910170615,650.071,0.4970000088214874,-2.517606338179484
650.7931030000001,,0.011090687277446953,650.537,0.5,-2.510939219969359
651.258621,,0.014974405378378026,651.0,0.49799999594688416,-2.5151593405042387
651.7241379999999,,0.017204173074982204,651.465,0.5130000114440918,-2.4823401076315066
652.189655,,0.015934613113542554,651.93,0.503000020980835,-2.5039885136995186
652.655172,,0.012427678791612757,652.396,0.49000000953674316,-2.5321785745204
653.12069,,0.00955874500878356,652.86,0.5239999890327454,-2.457981565030055
653.5862070000001,,0.008543522445963462,653.326,0.5289999842643738,-2.446977068885533
654.051724,,0.008163447020925158,653.79,0.5009999871253967,-2.5078824802969844
654.517241,,0.007010407574605022,654.256,0.49000000953674316,-2.5317691431244214
654.982759,,0.005194566720533734,654.727,0.5049999952316284,-2.499032119270974
655.448276,,0.003404835659931882,655.189,0.5019999742507935,-2.505533098696144
655.9137929999999,,0.0013830198200593857,655.65,0.4560000002384186,-2.6057397107461573
656.37931,,0.0016106793897552889,656.12,0.5090000033378601,-2.490284802687678
656.844828,,0.005189335012209741,656.583,0.5049999952316284,-2.499035924439399
657.310345,,0.007791020662279991,657.045,0.515999972820282,-2.475127958396873
657.7758620000001,,0.008495559178916806,657.511,0.5419999957084656,-2.418558057217157
658.241379,,0.008201236120150885,657.975,0.5049999952316284,-2.4992581801230584
658.7068969999999,,0.008565531971952334,658.44,0.49900001287460327,-2.512433522920766
659.172414,,0.010159753337747834,658.908,0.4050000011920929,-2.7173430943880086
659.637931,,0.012130695043278548,659.374,0.492000013589859,-2.5279287049214716
660.103448,,0.01350239740834147,659.839,0.49799999594688416,-2.5149911207477027
660.568966,,0.01426841462556083,660.304,0.5339999794960022,-2.4366936313107064
661.034483,,0.015055958758185715,660.765,0.4880000054836273,-2.537040269659444
661.5,,0.01616213342662725,661.234,0.4970000088214874,-2.517553334089054
661.965517,,0.017392798986523635,661.697,0.492000013589859,-2.5285566879494135
662.4310340000001,,0.01876080436936447,662.16,0.5049999952316284,-2.500330228910427
662.8965519999999,,0.020779658864584636,662.627,0.49799999594688416,-2.5156595624029903
663.362069,,0.023700572216935483,663.09,0.49000000953674316,-2.533148357444661
663.827586,,0.026788194019511043,663.555,0.5009999871253967,-2.5092223676427046
664.293103,,0.02897953067733069,664.026,0.527999997138977,-2.450415648155755
664.7586210000001,,0.03019590476099787,664.491,0.5189999938011169,-2.470016718779914
665.224138,,0.031102508900846405,664.956,0.5080000162124634,-2.493951910430668
665.689655,,0.031139124498269978,665.415,0.5009999871253967,-2.509151382794372
666.155172,,0.02772328176255652,665.88,0.492000013589859,-2.5286892482087118
666.62069,,0.01841383294171289,666.345,0.515999972820282,-2.476315421515906
667.086207,,0.0034507360549959156,666.812,0.5120000243186951,-2.4849293143454148
667.5517239999999,,0.014598724123877279,667.278,0.5210000276565552,-2.465209361168545
668.017241,,0.033083226451774625,667.746,0.503000020980835,-2.5043050676870044
668.482759,,0.05019052864325927,668.208,0.5019999742507935,-2.5063602145982364
668.948276,,0.06424444384442515,668.676,0.4959999918937683,-2.5193091673293666
669.413793,,0.07353840901178932,669.139,0.5120000243186951,-2.484332190912122
669.87931,,0.07726276950553435,669.602,0.5009999871253967,-2.5081865514818946
670.3448279999999,,0.07594552185485509,670.071,0.4959999918937683,-2.5189800534098628
670.810345,,0.07063258676085069,670.537,0.5189999938011169,-2.468785350481263
671.275862,,0.06203704720528817,671.0,0.5170000195503235,-2.4730724728862077
671.7413789999999,,0.05086053055867884,671.466,0.5120000243186951,-2.483912886900937
672.206897,,0.03858062785436489,671.931,0.5210000276565552,-2.4642709534220724
672.672414,,0.027137645390945132,672.396,0.5090000033378601,-2.490400252023713
673.137931,,0.017500859996735865,672.861,0.5009999871253967,-2.5078351366402614
673.6034480000001,,0.008881531607191887,673.32,0.5040000081062317,-2.501325088593003
674.068966,,0.0001574187840377269,673.786,0.5249999761581421,-2.455618407143943
674.5344829999999,,0.009718858899520925,674.252,0.4950000047683716,-2.521039801601803
675.0,,0.017999309687107442,674.72,0.503000020980835,-2.5036881731753207
675.465517,,0.022984859405009505,675.182,0.5139999985694885,-2.4798138445714133
675.931034,,0.02456609112285264,675.649,0.49900001287460327,-2.5125943037598097
676.396552,,0.024559395757407766,676.112,0.5040000081062317,-2.5018088990678065
676.862069,,0.024693619301242708,676.583,0.5059999823570251,-2.4975632641364602
677.327586,,0.02512327780777279,677.045,0.5109999775886536,-2.4867817036750797
677.793103,,0.0249672739627945,677.51,0.503000020980835,-2.5043190580724586
678.2586210000001,,0.023615225961699224,677.975,0.5019999742507935,-2.506599596560956
678.7241379999999,,0.021233205049065357,678.44,0.5090000033378601,-2.4914413209167083
679.1896549999999,,0.018567643157614357,678.906,0.527999997138977,-2.450126551310258
679.655172,,0.016570895588937543,679.371,0.492000013589859,-2.5286221962810216
680.12069,,0.01576933576251053,679.831,0.5009999871253967,-2.5090625070497836
680.5862070000001,,0.015692876110115873,680.296,0.5149999856948853,-2.4785920985381384
681.051724,,0.015236621501126963,680.764,0.5289999842643738,-2.448102575341108
681.517241,,0.013839928189757576,681.226,0.5170000195503235,-2.474238043888728
