Trial: ,44
Threshold: ,0.0
Maximum EMG: ,0.10475239366723624
Success: ,True

EMG Time,Raw EMG,Filtered EMG,Force Time,Raw Force (V),Filtered Force (N)
0.0,samples,6.197554076965219e-20,0.467,0.49399998784065247,-2.522915986045794
0.46551699999999996,time,6.169032811649196e-20,0.935,0.48100000619888306,-2.5511340795212885
0.9310339999999999,value,6.117292196677155e-20,1.396,0.492000013589859,-2.5270934943785575
1.396552,,6.041513857661381e-20,1.865,0.47699999809265137,-2.5597294721322457
1.862069,,5.94092975153993e-20,2.327,0.48500001430511475,-2.542289939769326
2.327586,,5.814827077713876e-20,2.79,0.5180000066757202,-2.470417678431944
2.793103,,5.662553204390258e-20,3.26,0.49000000953674316,-2.531475133796094
3.258621,,5.483520593229016e-20,3.719,0.48899999260902405,-2.5337402399068107
3.724138,,5.277211704668322e-20,4.186,0.5009999871253967,-2.507711926344106
4.189654999999999,,5.043183865610312e-20,4.652,0.5040000081062317,-2.5013165977328202
4.655172,,4.7810740804923567e-20,5.12,0.49000000953674316,-2.5319793057164337
5.12069,,4.490603766151246e-20,5.585,0.49300000071525574,-2.525621519160556
5.586207,,4.171583390313165e-20,6.051,0.49799999594688416,-2.5149175954046994
6.051723999999999,,3.8239169930148446e-20,6.509,0.48500001430511475,-2.5434346730074053
6.517241,,3.447606569784775e-20,6.983,0.492000013589859,-2.5283784083581704
6.982759,,3.042756294991747e-20,7.442,0.4950000047683716,-2.5220302085694217
7.448276,,2.6095765634051485e-20,7.905,0.48399999737739563,-2.546170575558713
7.913793000000001,,2.1483878277111336e-20,8.375,0.47200000286102295,-2.5724720229433244
8.379309999999998,,1.659624209494874e-20,8.839,0.5289999842643738,-2.4484236513736906
8.844828000000001,,1.1438368610352244e-20,9.301,0.48899999260902405,-2.5356755113259126
9.310345,,6.0169705516792056e-21,9.767,0.4880000054836273,-2.537928231435448
9.775862,,3.399898046040631e-22,10.229,0.48899999260902405,-2.53579006905587
10.241379,,5.5833778099112035e-21,10.695,0.4880000054836273,-2.5379739332830487
10.706897,,1.1742661156805506e-20,11.161,0.4950000047683716,-2.522692807568354
11.172414,,1.81260960302655e-20,11.627,0.49399998784065247,-2.5248054738289385
11.637931,,2.472061123895113e-20,12.094,0.4869999885559082,-2.539956324367514
12.103447999999998,,3.15118187486162e-20,12.56,0.4729999899864197,-2.57032738226472
12.568966000000001,,3.8484008092486733e-20,13.025,0.48500001430511475,-2.5440273577617076
13.034483,,4.562014525363352e-20,13.49,0.49000000953674316,-2.5329560880275155
13.5,,5.290187621645692e-20,13.953,0.49000000953674316,-2.5327610769332565
13.965517,,6.030953537627356e-20,14.416,0.5009999871253967,-2.5085895599466417
14.431034,,6.782215898684122e-20,14.883,0.492000013589859,-2.5279855465656467
14.896552,,7.5417503815469e-20,15.347,0.4779999852180481,-2.5582764389234813
15.362069,,8.307207116412498e-20,15.809,0.492000013589859,-2.527573538865459
15.827586000000002,,9.076113640267047e-20,16.279,0.4869999885559082,-2.5382797619551054
16.293103,,9.845878414701438e-20,16.745,0.47699999809265137,-2.5598998684778467
16.758621,,1.0613794920059649e-19,17.211,0.4880000054836273,-2.535794654468908
17.224138,,1.1377046336218105e-19,17.669,0.4749999940395355,-2.5640079450105477
17.689655,,1.2132710818648038e-19,18.135,0.4790000021457672,-2.5552188677108583
18.155172,,1.2877767376664809e-19,18.601,0.49000000953674316,-2.5312164105227066
18.62069,,1.3609102358920045e-19,19.068,0.4779999852180481,-2.557361278490199
19.086207,,1.432351654924644e-19,19.534,0.48100000619888306,-2.5508650626529636
19.551724,,1.501773287392393e-19,19.994,0.4790000021457672,-2.555300088228361
20.017241000000002,,1.5688404719302917e-19,20.459,0.4390000104904175,-2.6425603079597297
20.482758999999998,,1.6332124856498845e-19,20.927,0.46399998664855957,-2.588242674327223
20.948276,,1.6945434967566788e-19,21.39,0.4830000102519989,-2.547026084146954
21.413793000000002,,1.7524835765179445e-19,21.858,0.4819999933242798,-2.549405196923667
21.87931,,1.80667976953721e-19,22.32,0.4909999966621399,-2.530013710748277
22.344828,,1.856777221038923e-19,22.79,0.5040000081062317,-2.5019162605066585
22.810344999999998,,1.9024203596075567e-19,23.253,0.49000000953674316,-2.5326436159348633
23.275862,,1.943254133560595e-19,23.718,0.49000000953674316,-2.532864379566774
23.741379,,1.978925298865056e-19,24.183,0.4909999966621399,-2.5308943856516524
24.206897,,2.009083756233213e-19,24.649,0.4690000116825104,-2.579014992159237
24.672414,,2.0333839347557943e-19,25.113,0.48100000619888306,-2.5530379133533905
25.137931,,2.0514862191509662e-19,25.579,0.4970000088214874,-2.5183169621484622
25.603448,,2.0630584174257852e-19,26.045,0.4869999885559082,-2.540206665933372
26.068966,,2.0677772654644132e-19,26.504,0.5,-2.5119496031759194
26.534483,,2.06532996477524e-19,26.972,0.47999998927116394,-2.555548179179363
27.0,,2.0554157493481504e-19,27.435,0.4830000102519989,-2.548997466271053
27.465517,,2.0377474772945583e-19,27.905,0.48399999737739563,-2.546764427444733
27.931034,,2.012053242667615e-19,28.368,0.5019999742507935,-2.507455818842814
28.396552,,1.978078002589292e-19,28.831,0.49000000953674316,-2.533470316956139
28.862069,,1.935585214546027e-19,29.294,0.4779999852180481,-2.5594529672043205
29.327586,,1.884358478456457e-19,29.76,0.4950000047683716,-2.5222280122629748
29.793103000000002,,1.824203177864699e-19,30.23,0.5009999871253967,-2.508946856914284
30.258620999999998,,1.754948114371892e-19,30.696,0.47600001096725464,-2.5631887138033354
30.724138,,1.6764471291885568e-19,31.161,0.5009999871253967,-2.508490514821702
31.189655000000002,,1.5885807054720436e-19,31.619,0.4830000102519989,-2.547473533652291
31.655172000000004,,1.4912575449081853e-19,32.086,0.4880000054836273,-2.5363544694403513
32.12069,,1.3844161118055973e-19,32.552,0.5009999871253967,-2.507820018801063
32.586207,,1.2680261377961331e-19,33.018,0.4860000014305115,-2.540307830172247
33.051724,,1.1420900800771361e-19,33.484,0.47600001096725464,-2.5619291395660295
33.517241000000006,,1.0066445259916237e-19,33.949,0.49000000953674316,-2.5312952705541396
33.982759,,8.617615366226801e-20,34.411,0.4909999966621399,-2.52902013319438
34.448276,,7.075499219794098e-20,34.879,0.503000020980835,-2.502818633212451
34.913793,,5.441564402750555e-20,35.341,0.4880000054836273,-2.5354813441156683
35.37931,,3.717669137445525e-20,35.805,0.4830000102519989,-2.546399216762626
35.844828,,1.9060725342007777e-20,36.275,0.4830000102519989,-2.5464653946969573
36.310345,,9.443852802176214e-23,36.74,0.49399998784065247,-2.5226059742442404
36.775862,,1.9691292978764865e-20,37.204,0.47999998927116394,-2.5532488948273184
37.241378999999995,,4.0261338972019984e-20,37.67,0.4909999966621399,-2.529457518672121
37.706897000000005,,6.157625661337491e-20,38.134,0.4880000054836273,-2.5361937374735786
38.172414,,8.359224476191075e-20,38.6,0.47600001096725464,-2.562558252130917
38.637931,,1.0626111186504989e-19,39.065,0.49000000953674316,-2.532291730410979
39.103448,,1.2953025811097974e-19,39.53,0.5019999742507935,-2.506388561369365
39.568965999999996,,1.5334267252214195e-19,39.991,0.49900001287460327,-2.5131627648357284
40.034483,,1.776369456454152e-19,40.456,0.4790000021457672,-2.556964704739544
40.5,,2.0234729846734482e-19,40.924,0.492000013589859,-2.528855144883776
40.965517,,2.2740362815208056e-19,41.386,0.4860000014305115,-2.542117244298955
41.431034,,2.527315711655356e-19,41.854,0.5419999957084656,-2.42027327293694
41.896552,,2.782525843116494e-19,42.316,0.49799999594688416,-2.516258181060808
42.362069000000005,,3.0388404416550723e-19,42.787,0.5040000081062317,-2.5032711566639265
42.827586000000004,,3.2953936534343377e-19,43.249,0.47600001096725464,-2.5643172679760107
43.293103,,3.551281380020475e-19,43.715,0.49799999594688416,-2.516389165742141
43.758621,,3.8055628490665513e-19,44.179,0.503000020980835,-2.5054557652965745
44.224138,,4.05726238354318e-19,44.645,0.4909999966621399,-2.5315181368659716
44.689655,,4.3053713717847916e-19,45.11,0.4959999918937683,-2.5205048637605656
45.155172,,4.548850440002638e-19,45.576,0.5009999871253967,-2.5094567189313297
45.620689999999996,,4.786631828265333e-19,46.035,0.4749999940395355,-2.565916846809408
46.086206999999995,,5.017621970265764e-19,46.501,0.49799999594688416,-2.515599556323659
46.551724,,5.240704276480652e-19,46.964,0.4860000014305115,-2.541517698366896
47.017241,,5.454742119587078e-19,47.434,0.5040000081062317,-2.5020657698825945
47.482759,,5.658582020230406e-19,47.894,0.4959999918937683,-2.519255219773049
47.948276,,5.851057030441605e-19,48.364,0.47999998927116394,-2.553877999685663
48.413793,,6.030990311180854e-19,48.824,0.4860000014305115,-2.540582591516324
48.879310000000004,,6.19719889964023e-19,49.294,0.48399999737739563,-2.544735584410264
49.344828,,6.348497661073356e-19,49.759,0.48500001430511475,-2.542378015621228
49.810345,,6.483703419036209e-19,50.222,0.5009999871253967,-2.5073714452568474
50.275862,,6.601639257023304e-19,50.688,0.45100000500679016,-2.6161911321543934
50.741379,,6.701138983569543e-19,51.154,0.47600001096725464,-2.5616521874967333
51.206897,,6.781051751962979e-19,51.619,0.4950000047683716,-2.52022698545772
51.672414,,6.840246824780249e-19,52.08,0.48899999260902405,-2.5333095940045545
52.137931,,6.877618472517517e-19,52.546,0.4880000054836273,-2.5355398788478336
52.603448,,6.892090994648561e-19,53.012,0.49399998784065247,-2.5225589618335973
53.068966,,6.882623850501336e-19,53.478,0.5049999952316284,-2.498720667781962
53.534483,,6.848216886408412e-19,53.939,0.47600001096725464,-2.5620602404026203
54.0,,6.787915644658576e-19,54.409,0.47999998927116394,-2.553532201650315
54.465517,,6.700816738860302e-19,54.871,0.5109999775886536,-2.486202321122126
54.931034,,6.586073279426457e-19,55.334,0.4790000021457672,-2.556141845982455
55.396552,,6.442900332007431e-19,55.805,0.5049999952316284,-2.4997275871923352
55.862069,,6.270580390840754e-19,56.268,0.49399998784065247,-2.523923867634095
56.327586,,6.068468848153387e-19,56.733,0.45100000500679016,-2.617831014015488
56.793102999999995,,5.835999439952212e-19,57.198,0.47600001096725464,-2.563578616093311
57.258621000000005,,5.572689647773215e-19,57.664,0.49000000953674316,-2.5332729793005995
57.724138,,5.278146035234445e-19,58.124,0.4749999940395355,-2.5661230601632354
58.189655,,4.952069497556627e-19,58.589,0.4880000054836273,-2.537940561147539
58.655172,,4.594260401582425e-19,59.054,0.4950000047683716,-2.5227949854010907
59.120689999999996,,4.204623593245284e-19,59.52,0.45500001311302185,-2.610007918055281
59.586207,,3.7831732489157546e-19,59.987,0.5149999856948853,-2.479316206706717
60.051724,,3.330037546591646e-19,60.452,0.47600001096725464,-2.5642692613967966
60.517241,,2.845463132502506e-19,60.92,0.47999998927116394,-2.5554998329278895
60.982758999999994,,2.3298193583730495e-19,61.383,0.48399999737739563,-2.5466919034798314
61.448276,,1.7836022643384478e-19,61.846,0.49300000071525574,-2.526954818802875
61.913793,,1.2074382823309531e-19,62.316,0.49799999594688416,-2.515899946801614
62.379310000000004,,6.020876346661235e-20,62.774,0.5009999871253967,-2.5091746095693197
62.84482800000001,,3.155259744814041e-21,63.246,0.49799999594688416,-2.5154991341328152
63.310345000000005,,6.924457606717215e-20,63.704,0.4790000021457672,-2.556667104561217
63.775862000000004,,1.3794132965752847e-19,64.171,0.4950000047683716,-2.5215749929765274
64.241379,,2.0911328137047424e-19,64.637,0.4830000102519989,-2.547485009553094
64.706897,,2.8261365890306077e-19,65.102,0.40799999237060547,-2.7106588195773984
65.172414,,3.5828105226674434e-19,65.568,0.49000000953674316,-2.5318019641657687
65.637931,,4.359393569164624e-19,66.035,0.47600001096725464,-2.5621177841677714
66.103448,,5.1539776679773565e-19,66.501,0.49000000953674316,-2.5314581022066394
66.56896599999999,,5.964508194924172e-19,66.961,0.5669999718666077,-2.363573354908479
67.03448300000001,,6.788784955521943e-19,67.424,0.4690000116825104,-2.5769844116822047
67.5,,7.624463740060385e-19,67.894,0.47999998927116394,-2.5529601923371112
67.965517,,8.469058459133633e-19,68.356,0.48899999260902405,-2.533333671185685
68.431034,,9.319943877086e-19,68.82,0.49399998784065247,-2.522462169733553
68.896552,,1.0174358959451885e-18,69.29,0.4909999966621399,-2.5290592746801983
69.362069,,1.1029410848975846e-18,69.749,0.47200000286102295,-2.570552714185026
69.827586,,1.18820794831884e-18,70.22,0.4959999918937683,-2.5183994831946226
70.293103,,1.2729222864786915e-18,70.686,0.48100000619888306,-2.5512443165656125
70.75862099999999,,1.356758299423004e-18,71.15,0.47999998927116394,-2.553613952641977
71.22413800000001,,1.4393792472000183e-18,71.609,0.47999998927116394,-2.5538251310081193
71.689655,,1.520438177592368e-18,72.075,0.48399999737739563,-2.54533531133642
72.15517200000001,,1.5995787216765105e-18,72.541,0.49000000953674316,-2.5324945473308302
72.62069,,1.6764359573033453e-18,73.005,0.4690000116825104,-2.5784765946811734
73.086207,,1.7506373403557657e-18,73.471,0.47699999809265137,-2.561270449046913
73.551724,,1.821803703391091e-18,73.939,0.4970000088214874,-2.5179058051578873
74.017241,,1.8895503210192217e-18,74.401,0.5009999871253967,-2.5093774616000735
74.482759,,1.9534880411014683e-18,74.864,0.48399999737739563,-2.5465724901758837
74.94827599999999,,2.0132244805808797e-18,75.334,0.503000020980835,-2.5053032008916047
75.41379300000001,,2.0683652844731924e-18,75.794,0.49000000953674316,-2.533713810182743
75.87931,,2.11851544625887e-18,76.264,0.4880000054836273,-2.5381197589904105
76.344828,,2.16328068762188e-18,76.73,0.4860000014305115,-2.5424850862792794
76.810345,,2.2022688951806014e-18,77.194,0.4749999940395355,-2.5664177534383565
77.275862,,2.235091611551438e-18,77.66,0.4950000047683716,-2.5227728654844426
77.741379,,2.2613655777772067e-18,78.12,0.46799999475479126,-2.5814873714568916
78.206897,,2.28071432384112e-18,78.585,0.48500001430511475,-2.5443078048981724
78.67241399999999,,2.2927698036741665e-18,79.05,0.48899999260902405,-2.5354215483563407
79.137931,,2.2971740707499894e-18,79.516,0.47999998927116394,-2.5548334956913115
79.603448,,2.293580990048e-18,79.983,0.492000013589859,-2.528475660580675
80.068966,,2.2816579818536316e-18,80.449,0.4880000054836273,-2.536964619924764
80.53448300000001,,2.2610877925554702e-18,80.909,0.5040000081062317,-2.5018755296138884
81.0,,2.2315702872937383e-18,81.379,0.4729999899864197,-2.569185180650857
81.465517,,2.1928242590145066e-18,81.842,0.4320000112056732,-2.6582921562353694
81.931034,,2.1445892481903527e-18,82.305,0.4869999885559082,-2.53826763940967
82.396552,,2.0866273671822964e-18,82.77,0.4880000054836273,-2.535913619541421
82.86206899999999,,2.0187251229410936e-18,83.241,0.5009999871253967,-2.5074434401688355
83.327586,,1.9406952314797176e-18,83.699,0.4909999966621399,-2.5291138676397207
83.79310299999999,,1.852378417294535e-18,84.164,0.4880000054836273,-2.535569216483981
84.258621,,1.753645190671664e-18,84.63,0.48899999260902405,-2.5333482284757936
84.72413800000001,,1.6443975955887834e-18,85.095,0.4779999852180481,-2.5573107577252836
85.189655,,1.5245709207126274e-18,85.561,0.49399998784065247,-2.522489648537845
85.65517200000001,,1.39413536580005e-18,86.027,0.4749999940395355,-2.5639599827755646
86.12069,,1.2530976556372794e-18,86.493,0.4880000054836273,-2.5357500868077056
86.586207,,1.1015025934992814e-18,86.961,0.4880000054836273,-2.535895613656001
87.051724,,9.39434545980432e-19,87.423,0.4860000014305115,-2.5404267171105714
87.517241,,7.670188509403797e-19,87.887,0.4959999918937683,-2.518836851339803
87.98275899999999,,5.8442314022644665e-19,88.349,0.5070000290870667,-2.4950844627213704
88.448276,,3.918585687775436e-19,88.817,0.4690000116825104,-2.5780958303749966
88.913793,,1.8958094168568378e-19,89.279,0.4699999988079071,-2.5761440881576196
89.37931,,2.2108269208924385e-20,89.745,0.4000000059604645,-2.7288756488276182
89.844828,,2.4286102758331893e-19,90.211,0.4880000054836273,-2.5373738452772985
90.310345,,4.7228196209075245e-19,90.676,0.48100000619888306,-2.5528281682686322
90.775862,,7.099277312527211e-19,91.143,0.47200000286102295,-2.572616568149041
91.241379,,9.553065318967242e-19,91.608,0.48399999737739563,-2.5466245910659593
91.706897,,1.2078777590911669e-18,92.075,0.48100000619888306,-2.553278469563992
92.17241399999999,,1.4670518253322567e-18,92.54,0.48100000619888306,-2.5533586247245803
92.63793100000001,,1.7321901465050552e-18,93.006,0.4779999852180481,-2.5599344392372494
93.103448,,2.0026053018712932e-18,93.464,0.4819999933242798,-2.5512179582370322
93.568966,,2.2775613750295213e-18,93.935,0.4880000054836273,-2.5381021926106397
94.03448300000001,,2.5562744824481077e-18,94.396,0.48899999260902405,-2.5358386741734695
94.5,,2.8379134957881084e-18,94.859,0.47600001096725464,-2.564037767504131
94.965517,,3.121600963810834e-18,95.329,0.48399999737739563,-2.5464509825540187
95.431034,,3.406414239203843e-18,95.791,0.5210000276565552,-2.4656530860391643
95.896552,,3.6913868151590705e-18,96.26,0.4830000102519989,-2.5482288375086606
96.36206899999999,,3.975509875997976e-18,96.719,0.4880000054836273,-2.5371048449244515
96.827586,,4.2577340655611625e-18,97.184,0.47699999809265137,-2.5608294947754646
97.293103,,4.536971476464317e-18,97.649,0.48100000619888306,-2.5518725139513685
97.758621,,4.81209786266906e-18,98.117,0.49000000953674316,-2.532028048998039
98.224138,,5.0819550771271426e-18,98.582,0.5019999742507935,-2.5056603931096313
98.689655,,5.345353735530138e-18,99.049,0.4819999933242798,-2.5490290106735882
99.155172,,5.601076106435481e-18,99.516,0.4880000054836273,-2.535779391694502
99.62069,,5.847879227244541e-18,99.984,0.48500001430511475,-2.542170237314476
100.086207,,6.084498244680802e-18,100.442,0.48899999260902405,-2.5333479034817645
100.551724,,6.309649977557701e-18,100.905,0.5009999871253967,-2.507136909134296
101.017241,,6.5220366987378884e-18,101.375,0.47999998927116394,-2.552864076821444
101.482759,,6.7203501322706605e-18,101.838,0.49000000953674316,-2.531097178893064
101.948276,,6.903275660754035e-18,102.301,0.4869999885559082,-2.5376965576406745
102.413793,,7.069496737004743e-18,102.767,0.49399998784065247,-2.5225511150092497
102.87931,,7.217699493135692e-18,103.23,0.48500001430511475,-2.5423025187776003
103.344828,,7.346577539138829e-18,103.695,0.4880000054836273,-2.535944479094763
103.810345,,7.454836942054643e-18,104.16,0.48500001430511475,-2.5426871712427124
104.275862,,7.54120137578073e-18,104.626,0.4740000069141388,-2.5668817732562728
104.741379,,7.604417430534022e-18,105.09,0.48399999737739563,-2.545340488624423
105.206897,,7.643260069937807e-18,105.556,0.4830000102519989,-2.5477721197900602
105.672414,,7.656538222659027e-18,106.023,0.4790000021457672,-2.5567394243128554
106.13793100000001,,7.64310049447712e-18,106.489,0.5009999871253967,-2.5090531960870868
106.603448,,7.601840985626682e-18,106.95,0.47999998927116394,-2.5550319580205185
107.068966,,7.53170519722636e-18,107.419,0.5019999742507935,-2.5073045573872417
107.534483,,7.431696009589782e-18,107.88,0.503000020980835,-2.505297321876677
108.0,,7.300879714215143e-18,108.349,0.48399999737739563,-2.546826185853892
108.46551699999999,,7.13839208027252e-18,108.813,0.49900001287460327,-2.5142398328762563
108.931034,,6.943444435456721e-18,109.275,0.4779999852180481,-2.5600409474000294
109.396552,,6.715329740152781e-18,109.741,0.4860000014305115,-2.542615759788505
109.862069,,6.453428632975824e-18,110.204,0.48500001430511475,-2.544752854024363
110.32758600000001,,6.157215424901612e-18,110.67,0.48899999260902405,-2.535952160582644
110.793103,,5.826264018403301e-18,111.137,0.5009999871253967,-2.50967982575105
111.258621,,5.460253727258727e-18,111.602,0.49399998784065247,-2.524762934692326
111.724138,,5.058974971995525e-18,112.068,0.49300000071525574,-2.526740495716624
112.189655,,4.622334825303546e-18,112.534,0.4869999885559082,-2.5395843137895326
112.655172,,4.150362381170145e-18,112.999,0.48399999737739563,-2.545872587661504
113.12069,,3.643213920988765e-18,113.464,0.4740000069141388,-2.5674001056973323
113.586207,,3.1011778494595827e-18,113.927,0.48100000619888306,-2.5518878241663767
114.051724,,2.5246793727476438e-18,114.389,0.5,-2.5102368615634507
114.51724100000001,,1.9142848910933666e-18,114.857,0.5080000162124634,-2.49256327163234
114.982759,,1.2707060778872234e-18,115.319,0.5009999871253967,-2.5075891067281555
115.448276,,5.948036171291621e-19,115.787,0.4819999933242798,-2.5487859811177547
115.913793,,1.124094288017732e-19,116.249,0.4790000021457672,-2.5551591322526694
116.37931,,8.497646490369916e-19,116.715,0.4830000102519989,-2.5463221660902002
116.84482799999999,,1.6159357395270428e-18,117.183,0.503000020980835,-2.50267084437162
117.310345,,2.4094364112120253e-18,117.649,0.48399999737739563,-2.54403317559873
117.77586199999999,,3.228618778067387e-18,118.113,0.48100000619888306,-2.550584929084742
118.241379,,4.07167225149508e-18,118.579,0.4819999933242798,-2.5484701682936683
118.70689700000001,,4.936622966868497e-18,119.039,0.4749999940395355,-2.5638309151610272
119.172414,,5.821333767257534e-18,119.504,0.48100000619888306,-2.5509123248518275
119.63793100000001,,6.72350476845505e-18,119.972,0.492000013589859,-2.527138570912572
120.103448,,7.64067452839586e-18,120.435,0.4869999885559082,-2.538254915775727
120.568966,,8.570221842902482e-18,120.905,0.4880000054836273,-2.536323842504121
121.034483,,9.509368188406815e-18,121.368,0.49399998784065247,-2.5235162692154254
121.5,,1.0455180830882745e-17,121.831,0.4950000047683716,-2.5216098784713137
121.96551699999999,,1.1404576618680937e-17,122.294,0.4959999918937683,-2.519702724418812
122.431034,,1.2354326475283479e-17,122.759,0.48399999737739563,-2.5461086497742986
122.896552,,1.330106060619323e-17,123.229,0.45899999141693115,-2.600820231261885
123.362069,,1.4241274432241297e-17,123.695,0.492000013589859,-2.529145934038707
123.827586,,1.517133525953747e-17,124.16,0.5009999871253967,-2.509727046998317
124.293103,,1.6087489694104496e-17,124.626,0.4970000088214874,-2.5185911569863664
124.758621,,1.6985871806930145e-17,125.091,0.47999998927116394,-2.555733827128043
125.22413800000001,,1.786251205274402e-17,125.549,0.49900001287460327,-2.5143978830092535
125.68965500000002,,1.871334694328247e-17,126.016,0.48399999737739563,-2.5470867998461357
126.15517200000001,,1.9534229473148832e-17,126.482,0.49300000071525574,-2.5274383644075162
126.62069000000001,,2.0320940293612038e-17,126.945,0.47600001096725464,-2.5643864450948843
127.086207,,2.1069199626819755e-17,127.415,0.492000013589859,-2.529393597547982
127.55172400000001,,2.177467990993825e-17,127.876,0.4819999933242798,-2.5510041798340417
128.017241,,2.243301915567673e-17,128.345,0.492000013589859,-2.5290055219092213
128.48275900000002,,2.303983501251563e-17,128.809,0.5049999952316284,-2.5004410198487497
128.948276,,2.359073950474402e-17,129.271,0.47699999809265137,-2.561178566676288
129.413793,,2.4081354429129374e-17,129.737,0.5139999985694885,-2.480289873891947
129.87931,,2.450732738170135e-17,130.201,0.47699999809265137,-2.5606158723766907
130.344828,,2.4864348384740217e-17,130.666,0.4880000054836273,-2.536370898119539
130.81034499999998,,2.514816708062966e-17,131.132,0.48500001430511475,-2.542640531503463
131.275862,,2.535461045577334e-17,131.598,0.49399998784065247,-2.5227882821863075
131.741379,,2.54796010542961e-17,132.065,0.5699999928474426,-2.356994504868726
132.206897,,2.5519175637765338e-17,132.531,0.49399998784065247,-2.522388976254647
132.67241399999997,,2.5469504243688307e-17,132.991,0.492000013589859,-2.526604471340713
133.13793099999998,,2.5326909592079513e-17,133.457,0.4909999966621399,-2.528688947849959
133.60344800000001,,2.5087886785961953e-17,133.924,0.49300000071525574,-2.524288395866352
134.06896600000002,,2.4749123248280115e-17,134.387,0.4790000021457672,-2.554799172331382
134.53448300000002,,2.4307518834375968e-17,134.85,0.5,-2.509110321186514
135.0,,2.376020605592546e-17,135.319,0.49300000071525574,-2.524474674936553
135.465517,,2.310457034906733e-17,135.79,0.4869999885559082,-2.5377081006283224
135.931034,,2.2338270316393374e-17,136.245,0.503000020980835,-2.5030540152081837
136.396552,,2.1459257869525146e-17,136.711,0.47999998927116394,-2.5534039079870827
136.862069,,2.0465798196191687e-17,137.176,0.4909999966621399,-2.529709000619321
137.327586,,1.9356489473062534e-17,137.641,0.4819999933242798,-2.5496081277147304
137.793103,,1.8130282243095558e-17,138.106,0.4869999885559082,-2.5390179637730377
138.258621,,1.6786498373846376e-17,138.571,0.48500001430511475,-2.5436803660756393
138.724138,,1.5324849511071127e-17,139.038,0.5080000162124634,-2.4938683570814435
139.189655,,1.3745454940053471e-17,139.504,0.5049999952316284,-2.5006826070722394
139.655172,,1.2048858765415704e-17,139.964,0.48500001430511475,-2.544506076588726
140.12069,,1.0236046318748936e-17,140.434,0.5149999856948853,-2.4793614381176345
140.586207,,8.308459702233834e-18,140.894,0.46299999952316284,-2.592823265326827
141.05172399999998,,6.268012375537107e-18,141.364,0.47600001096725464,-2.5646255339457458
141.51724099999998,,4.117102692674694e-18,141.824,0.492000013589859,-2.5298403330704833
141.982759,,1.8586262952453227e-18,142.294,0.4880000054836273,-2.5385730668532767
142.44827600000002,,5.04012731527932e-19,142.759,0.4830000102519989,-2.5494282680403164
142.913793,,2.966892033141663e-18,143.222,0.5019999742507935,-2.507940497971917
143.37931,,5.525562583018311e-18,143.689,0.5019999742507935,-2.5077934474725545
143.844828,,8.175041793973624e-18,144.153,0.5080000162124634,-2.494524719128453
144.310345,,1.09098082338947e-17,144.619,0.5400000214576721,-2.4245666510059585
144.77586200000002,,1.3723798033744906e-17,145.083,0.4729999899864197,-2.5702578419393327
145.241379,,1.6610403073785713e-17,145.548,0.5009999871253967,-2.508950376117054
145.706897,,1.9562471031276977e-17,146.014,0.4970000088214874,-2.517342730942896
146.172414,,2.2572307369878423e-17,146.479,0.4830000102519989,-2.547514954573859
146.637931,,2.563167934751911e-17,146.942,0.4869999885559082,-2.538476027575461
147.103448,,2.8731822115622845e-17,147.404,0.4779999852180481,-2.5577748074895648
147.568966,,3.1863446978271375e-17,147.872,0.4819999933242798,-2.5487767100824206
148.034483,,3.501675187515061e-17,148.334,0.4909999966621399,-2.528920122787258
148.5,,3.8181434146956576e-17,148.805,0.5059999823570251,-2.496033960060455
148.965517,,4.1346705636336693e-17,149.267,0.49900001287460327,-2.5111265833581173
149.43103399999998,,4.450131017140999e-17,149.733,0.4729999899864197,-2.567668137307599
149.89655199999999,,4.763354347244944e-17,150.197,0.4699999988079071,-2.5741600214339013
150.362069,,5.073127551542589e-17,150.663,0.4880000054836273,-2.53496165050985
150.82758600000003,,5.378197537881157e-17,151.128,0.4830000102519989,-2.545932850591948
151.293103,,5.677273859233064e-17,151.594,0.49000000953674316,-2.5308184382477132
151.758621,,5.96903169982336e-17,152.06,0.49399998784065247,-2.5222938627614098
152.224138,,6.25211511271744e-17,152.519,0.5460000038146973,-2.4092408001320256
152.68965500000002,,6.525140508189606e-17,152.991,0.47999998927116394,-2.5533070536456637
153.155172,,6.786700391269922e-17,153.449,0.49900001287460327,-2.5122192554113503
153.62069,,7.035367345909431e-17,153.917,0.4959999918937683,-2.5190840431952792
154.086207,,7.269698262214268e-17,154.38,0.49000000953674316,-2.5324964163736463
154.551724,,7.488238802179618e-17,154.85,0.47999998927116394,-2.5546248725464706
155.017241,,7.689528098307019e-17,155.312,0.4740000069141388,-2.568029745932591
155.482759,,7.872103678415924e-17,155.778,0.4950000047683716,-2.5225915365745974
155.948276,,8.034506608865355e-17,156.244,0.4880000054836273,-2.538125184493724
156.413793,,8.175286847286853e-17,156.71,0.4950000047683716,-2.5231178881725067
156.87931,,8.293008794798872e-17,157.175,0.49300000071525574,-2.527670424112331
157.34482799999998,,8.386257036528633e-17,157.634,0.5019999742507935,-2.5082030450432184
157.81034499999998,,8.453642258113656e-17,158.105,0.515999972820282,-2.4777821235080917
158.275862,,8.493807324695573e-17,158.571,0.5019999742507935,-2.5082997640317575
158.741379,,8.50543350775726e-17,159.035,0.47999998927116394,-2.556182741342544
159.20689700000003,,8.487246843994642e-17,159.501,0.49000000953674316,-2.5342871599958015
159.672414,,8.438024609261227e-17,159.961,0.4790000021457672,-2.5580848723621488
160.137931,,8.35660188948074e-17,160.431,0.44999998807907104,-2.6210456416786183
160.60344800000001,,8.241878229295686e-17,160.894,0.492000013589859,-2.529276748827666
161.06896600000002,,8.092824338112087e-17,161.357,0.492000013589859,-2.52897277052799
161.534483,,7.90848883211757e-17,161.82,0.503000020980835,-2.504673586210152
162.0,,7.688004989796599e-17,162.29,0.4909999966621399,-2.5304635432408547
162.465517,,7.430597497447857e-17,162.755,0.4819999933242798,-2.5497091467237296
162.931034,,7.13558916022969e-17,163.218,0.4880000054836273,-2.536278498333381
163.396552,,6.802407553325452e-17,163.684,0.4180000126361847,-2.688441361055023
163.862069,,6.430591586936656e-17,164.145,0.49000000953674316,-2.5312642750709853
164.327586,,6.019797957983547e-17,164.611,0.4959999918937683,-2.5179148071249777
164.793103,,5.569807460625142e-17,165.075,0.4729999899864197,-2.5677906139772975
165.258621,,5.080531127009666e-17,165.541,0.4970000088214874,-2.515322183349872
165.72413799999998,,4.5520161690366267e-17,166.006,0.492000013589859,-2.526092501998819
166.189655,,3.9844516913591696e-17,166.472,0.49900001287460327,-2.510780710681648
166.655172,,3.378174145384931e-17,166.935,0.4790000021457672,-2.554356626215035
167.12069,,2.7336724936506495e-17,167.404,0.4699999988079071,-2.5740326212918037
167.58620699999997,,2.051593053655491e-17,167.865,0.48899999260902405,-2.532770281972004
168.051724,,1.332743990045355e-17,168.334,0.4880000054836273,-2.535140417960856
168.517241,,5.7809942395030605e-18,168.798,0.4880000054836273,-2.5353854733745407
168.98275900000002,,2.1119687170554482e-18,169.26,0.48399999737739563,-2.544391399154711
169.44827600000002,,1.0338282219733356e-17,169.726,0.4880000054836273,-2.536005560566691
169.913793,,1.8883022755342482e-17,170.191,0.4860000014305115,-2.5407189834869213
170.37931,,2.772948736680431e-17,170.657,0.5009999871253967,-2.508411452669625
170.844828,,3.685917633572693e-17,171.124,0.49000000953674316,-2.5327529125655612
171.310345,,4.62517815210772e-17,171.589,0.48899999260902405,-2.535300575101523
171.775862,,5.588518063978446e-17,172.054,0.47999998927116394,-2.55525887014145
172.241379,,6.573543776627838e-17,172.52,0.503000020980835,-2.5054706707177763
172.706897,,7.577681031776127e-17,172.986,0.48399999737739563,-2.5471457121718064
173.172414,,8.598176278042119e-17,173.445,0.48100000619888306,-2.5539135225274157
173.637931,,9.632098741878789e-17,173.913,0.48399999737739563,-2.5475536264685084
174.103448,,1.0676343219600495e-16,174.375,0.48399999737739563,-2.54766795610178
174.568966,,1.172763361169269e-16,174.846,0.5249999761581421,-2.4583912754953707
175.034483,,1.2782527218864583e-16,175.308,0.48399999737739563,-2.547694688783002
175.5,,1.383741981743063e-16,175.774,0.49000000953674316,-2.5345335408155067
175.96551699999998,,1.4888551529588615e-16,176.238,0.4869999885559082,-2.540915310151018
176.43103399999998,,1.593201350200121e-16,176.704,0.4860000014305115,-2.5428792363167503
176.896552,,1.6963755403785956e-16,177.168,0.47600001096725464,-2.564397233785817
177.36206900000002,,1.797959375257773e-16,177.634,0.48500001430511475,-2.544475461486284
177.827586,,1.897522107475044e-16,178.094,0.5019999742507935,-2.5070882208733627
178.293103,,1.9946215903174579e-16,178.559,0.48100000619888306,-2.5524634361766685
178.758621,,2.0888053613047917e-16,179.024,0.4959999918937683,-2.5193931021159868
179.224138,,2.179611809337275e-16,179.49,0.48399999737739563,-2.5451441321086663
179.68965500000002,,2.2665714248569927e-16,179.96,0.49000000953674316,-2.5316896217801728
180.155172,,2.3492081321523176e-16,180.423,0.5070000290870667,-2.4942917679557928
180.62069,,2.427040702604354e-16,180.89,0.35600000619888306,-2.8229423218188288
181.086207,,2.4995842473340038e-16,181.353,0.4880000054836273,-2.5350834536499183
181.551724,,2.566351787358697e-16,181.816,0.49799999594688416,-2.5130745509909107
182.01724099999998,,2.62685589900992e-16,182.279,0.48100000619888306,-2.549948305770889
182.482759,,2.6806104319972906e-16,182.745,0.4880000054836273,-2.5345991537121146
182.948276,,2.727132297133122e-16,183.211,0.48500001430511475,-2.541104431032629
183.413793,,2.765943320354138e-16,183.677,0.4909999966621399,-2.5280708671730827
183.87931,,2.796572159295492e-16,184.145,0.4830000102519989,-2.5456062576544776
184.34482799999998,,2.8185562782875315e-16,184.604,0.49000000953674316,-2.530526853478169
184.81034499999998,,2.8314439772591995e-16,185.069,0.48899999260902405,-2.5329364233709812
185.27586200000002,,2.8347964696447733e-16,185.534,0.5009999871253967,-2.5070760388999314
185.74137900000002,,2.828190004004226e-16,186.001,0.4830000102519989,-2.546618953117221
186.206897,,2.8112180236832486e-16,186.467,0.4819999933242798,-2.5491593799694856
186.672414,,2.783493358458339e-16,186.935,0.49000000953674316,-2.5321156057569136
187.137931,,2.7446504417368906e-16,187.397,0.5009999871253967,-2.508547460046302
187.60344800000001,,2.694347546513419e-16,187.861,0.5149999856948853,-2.4784418762942306
188.06896600000002,,2.6322690329225996e-16,188.331,0.503000020980835,-2.5049670691876407
188.534483,,2.558127599879241e-16,188.794,0.49399998784065247,-2.5249311585503817
189.0,,2.471666532956449e-16,189.257,0.515999972820282,-2.4773210635390632
189.465517,,2.3726619403276493e-16,189.723,0.49399998784065247,-2.525525440403282
189.931034,,2.260924968287666e-16,190.187,0.4880000054836273,-2.538817555448521
190.39655199999999,,2.1363039875743953e-16,190.653,0.5019999742507935,-2.5084765653801235
190.862069,,1.998686741437559e-16,191.12,0.4959999918937683,-2.5216430094495266
191.327586,,1.8480024461463747e-16,191.579,0.4950000047683716,-2.523847817645416
191.793103,,1.6842238343954852e-16,192.046,0.492000013589859,-2.5303408747850713
192.25862099999998,,1.5073691318599854e-16,192.512,0.47200000286102295,-2.573803682842746
192.72413799999998,,1.317503956967606e-16,192.975,0.4830000102519989,-2.5496648431205178
193.189655,,1.1147431338008454e-16,193.445,0.48500001430511475,-2.545075439228473
193.655172,,8.992524079158198e-17,193.909,0.5009999871253967,-2.5099329079502977
194.12069000000002,,6.712500547695412e-17,194.371,0.5299999713897705,-2.446423093582129
194.586207,,4.310083703849055e-17,194.839,0.48100000619888306,-2.5528123847533117
195.051724,,1.7885503385451175e-17,195.301,0.492000013589859,-2.5284594275049788
195.517241,,8.482566870787558e-18,195.767,0.48100000619888306,-2.5520258630988777
195.98275900000002,,3.595917691143535e-17,196.229,0.4880000054836273,-2.5363778085947994
196.448276,,6.449427012106507e-17,196.695,0.5019999742507935,-2.505492195497546
196.913793,,9.403185542828227e-17,197.16,0.49000000953674316,-2.531275457423386
197.37931,,1.2450995057354836e-16,197.626,0.4790000021457672,-2.5549156404204227
197.844828,,1.5586054428059185e-16,198.09,0.47999998927116394,-2.5524580242155306
198.310345,,1.8800957828263544e-16,198.556,0.47699999809265137,-2.558769651169479
198.775862,,2.208769501249826e-16,199.021,0.48399999737739563,-2.543356283888974
199.241379,,2.543765376312561e-16,199.486,0.49000000953674316,-2.530187645620755
199.706897,,2.884162458816869e-16,199.95,0.4650000035762787,-2.5846263357596437
200.172414,,3.2289807750825497e-16,200.419,0.47999998927116394,-2.5519896198698766
200.63793099999998,,3.5771822706313465e-16,200.88,0.49900001287460327,-2.5107070047531
201.103448,,3.9276720016376613e-16,201.349,0.4950000047683716,-2.519597848595736
201.568966,,4.279299580599408e-16,201.812,0.47999998927116394,-2.5525130407755445
202.034483,,4.630860882055521e-16,202.275,0.46000000834465027,-2.596374484940998
202.5,,4.981100013501399e-16,202.741,0.4880000054836273,-2.5357056599598597
202.965517,,5.328711555930839e-16,203.205,0.4830000102519989,-2.5469663853601023
203.431034,,5.672343077663258e-16,203.671,0.48899999260902405,-2.534284540631469
203.896552,,6.010597924298996e-16,204.135,0.4749999940395355,-2.5651864411371257
204.36206900000002,,6.342038286784071e-16,204.601,0.4880000054836273,-2.5372635817723697
204.827586,,6.665188548660104e-16,205.068,0.4909999966621399,-2.5311136241321206
205.293103,,6.97853891262655e-16,205.533,0.48100000619888306,-2.5532605353221762
205.758621,,7.280549305552287e-16,205.998,0.47699999809265137,-2.5622995051726805
206.224138,,7.569653560043947e-16,206.464,0.48899999260902405,-2.5364342564235147
206.689655,,7.84426386961088e-16,206.927,0.48500001430511475,-2.545372744342508
207.155172,,8.102775513363711e-16,207.39,0.4659999907016754,-2.586929948165218
207.62069,,8.343571845047296e-16,207.861,0.47699999809265137,-2.563062103934869
208.086207,,8.565029540042179e-16,208.323,0.4880000054836273,-2.5391254999134616
208.551724,,8.765524092774311e-16,208.791,0.49000000953674316,-2.5347264113140997
209.01724099999998,,8.943435555753754e-16,209.253,0.47600001096725464,-2.5651165823145896
209.482759,,9.09715451022273e-16,209.718,0.5009999871253967,-2.5104737006880518
209.948276,,9.225088257135153e-16,210.183,0.4790000021457672,-2.5581665353030134
210.413793,,9.325667215917449e-16,210.648,0.4959999918937683,-2.5208386263872002
210.87930999999998,,9.397351517177817e-16,211.112,0.47600001096725464,-2.5640761860832644
211.344828,,9.438637774242495e-16,211.578,0.492000013589859,-2.5288482549999096
211.810345,,9.448066017107087e-16,212.043,0.48100000619888306,-2.5524209538278626
212.27586200000002,,9.424226771103386e-16,212.508,0.4950000047683716,-2.521516295335711
212.741379,,9.365768261301883e-16,212.972,0.49000000953674316,-2.532006929755814
213.206897,,9.27140372240237e-16,213.435,0.4699999988079071,-2.5751909034388496
213.672414,,9.139918792614587e-16,213.905,0.4880000054836273,-2.5356121324390557
214.137931,,8.970178968803075e-16,214.368,0.48100000619888306,-2.550536497938608
214.60344800000001,,8.76113709897058e-16,214.836,0.46299999952316284,-2.5894731444739367
215.068966,,8.511840886987933e-16,215.297,0.4880000054836273,-2.534783828158151
215.534483,,8.221440383351028e-16,215.763,0.47999998927116394,-2.5520523151291745
216.0,,7.889195434663023e-16,216.226,0.492000013589859,-2.5258145567035863
216.465517,,7.514483063507844e-16,216.691,0.4909999966621399,-2.527968734104691
216.93103399999998,,7.096804749405504e-16,217.157,0.49300000071525574,-2.523656857281669
217.39655199999999,,6.635793580626531e-16,217.623,0.5139999985694885,-2.478018796824996
217.862069,,6.131221245797808e-16,218.087,0.4860000014305115,-2.5391989820437093
218.327586,,5.583004833461415e-16,218.553,0.492000013589859,-2.526364738277449
218.793103,,4.991213407057534e-16,219.02,0.48899999260902405,-2.5331913125653354
219.25862099999998,,4.3560743221980574e-16,219.479,0.4880000054836273,-2.535704712501449
219.724138,,3.677979252585113e-16,219.949,0.4779999852180481,-2.5578604354550407
220.18965500000002,,2.957489890514084e-16,220.412,0.4699999988079071,-2.575682603518441
220.65517200000002,,2.1953432875895618e-16,220.875,0.4950000047683716,-2.5216213091885966
221.12069,,1.3924568010805896e-16,221.346,0.4740000069141388,-2.567777151152648
221.586207,,5.499326112539657e-17,221.806,0.4860000014305115,-2.54202464540121
222.051724,,3.309382249434261e-17,222.269,0.5,-2.5118896435323865
222.517241,,1.2486722183253074e-16,222.734,0.5019999742507935,-2.507861327627114
222.98275900000002,,2.2015904242151198e-16,223.201,0.49000000953674316,-2.5342866480424826
223.448276,,3.1878159852681087e-16,223.666,0.49000000953674316,-2.5345127436569244
223.913793,,4.205272273571548e-16,224.132,0.48899999260902405,-2.5368553425922493
224.37931,,5.251681664526382e-16,224.597,0.4880000054836273,-2.5391307183462866
224.844828,,6.324564974165509e-16,225.064,0.5009999871253967,-2.510834730534214
225.31034499999998,,7.421241590566423e-16,225.53,0.4880000054836273,-2.539112117274876
225.775862,,8.538830328866101e-16,225.994,0.4779999852180481,-2.5607839635131104
226.241379,,9.674251038081348e-16,226.46,0.49799999594688416,-2.517030265110869
226.706897,,1.0824226986476248e-15,226.92,0.49900001287460327,-2.514609742558339
227.172414,,1.1985288050598394e-15,227.391,0.4729999899864197,-2.5709590658883865
227.63793099999998,,1.3153774731326076e-15,227.853,0.5080000162124634,-2.4943661529330465
228.103448,,1.4325843018329084e-15,228.316,0.48100000619888306,-2.5528150313546054
228.56896600000002,,1.5497470122246232e-15,228.783,0.4950000047683716,-2.5219161916729487
229.03448300000002,,1.6664461091623644e-15,229.245,0.49900001287460327,-2.5127927300515154
229.5,,1.782245632924047e-15,229.712,0.4819999933242798,-2.5494222094647903
229.965517,,1.896694001987483e-15,230.179,0.3230000138282776,-2.895436978211458
230.431034,,2.009324947883468e-15,230.645,0.5019999742507935,-2.50510033057857
230.896552,,2.1196585427699384e-15,231.109,0.503000020980835,-2.502601880187116
231.362069,,2.2272023200691306e-15,231.575,0.4860000014305115,-2.539364444003595
231.827586,,2.3314524881927457e-15,232.035,0.4880000054836273,-2.5347864785177565
232.293103,,2.431895237049424e-15,232.5,0.503000020980835,-2.5019463674433853
232.758621,,2.5280081366849345e-15,232.964,0.4860000014305115,-2.538887861531535
233.224138,,2.619261627049059e-15,233.434,0.4860000014305115,-2.538860190167483
233.689655,,2.7051205975149043e-15,233.898,0.47600001096725464,-2.560688204162258
234.155172,,2.785046054397124e-15,234.361,0.47999998927116394,-2.552083440950916
234.62069,,2.8584968743261696e-15,234.824,0.48100000619888306,-2.550079492189334
235.086207,,2.9249316409371266e-15,235.294,0.47600001096725464,-2.56120714049494
235.55172399999998,,2.983810561924999e-15,235.759,0.5080000162124634,-2.491776969072599
236.01724099999998,,3.034597463104523e-15,236.222,0.4740000069141388,-2.5661808241779553
236.482759,,3.0767618556929563e-15,236.688,0.492000013589859,-2.5273285101036143
236.94827600000002,,3.109781072609976e-15,237.153,0.49900001287460327,-2.512463967658562
237.413793,,3.133142469161196e-15,237.62,0.4869999885559082,-2.539004552688318
237.87931,,3.1463456830422325e-15,238.079,0.5249999761581421,-2.4566112069551984
238.344828,,3.148904948170154e-15,238.545,0.49000000953674316,-2.5332454626033973
238.810345,,3.140351456420064e-15,239.01,0.49000000953674316,-2.533602722749795
239.27586200000002,,3.120235760918045e-15,239.476,0.4880000054836273,-2.538283142232565
239.741379,,3.0881302141194043e-15,239.946,0.49000000953674316,-2.534205363843875
240.206897,,3.043631433484743e-15,240.408,0.48500001430511475,-2.5453264233244814
240.672414,,2.986362787157607e-15,240.876,0.4779999852180481,-2.560746781145647
241.137931,,2.9159768916481255e-15,241.339,0.4880000054836273,-2.539067145687689
241.603448,,2.8321581131389247e-15,241.801,0.4779999852180481,-2.560894574720943
242.068966,,2.734625063654637e-15,242.264,0.48399999737739563,-2.5477964392341184
242.534483,,2.6231330829763634e-15,242.73,0.48899999260902405,-2.5368105418464117
243.0,,2.497476696839439e-15,243.195,0.48500001430511475,-2.5453684917381807
243.465517,,2.3574920416287603e-15,243.66,0.492000013589859,-2.5299019478902105
243.93103399999998,,2.2030592454827187e-15,244.127,0.5009999871253967,-2.510024765805691
244.39655199999999,,2.034104755436432e-15,244.592,0.503000020980835,-2.5053520396395315
244.862069,,1.8506035999794737e-15,245.057,0.46700000762939453,-2.583431880672902
245.327586,,1.652581576174621e-15,245.523,0.4779999852180481,-2.559090521266464
245.793103,,1.4401173502843024e-15,245.99,0.5049999952316284,-2.4998768603127783
246.258621,,1.2133444606823206e-15,246.449,0.4950000047683716,-2.521269851543702
246.724138,,9.724532116920418e-16,246.917,0.49900001287460327,-2.5121697962203338
247.18965500000002,,7.176924468904336e-16,247.38,0.5009999871253967,-2.5074465564150623
247.655172,,4.493711903519857e-16,247.85,0.4950000047683716,-2.520182677380905
248.12069,,1.6786014427945818e-16,248.312,0.5080000162124634,-2.4915646701089367
248.586207,,1.2640696851868946e-16,248.778,0.492000013589859,-2.526176468675095
249.051724,,4.3293222878972103e-16,249.244,0.49399998784065247,-2.5216293048767398
249.517241,,7.511525230245361e-16,249.709,0.4620000123977661,-2.591219348109747
249.982759,,1.0804387349169934e-15,250.169,0.47600001096725464,-2.5606595845261024
250.44827600000002,,1.4200951371506125e-15,250.635,0.4569999873638153,-2.602065531115402
250.913793,,1.7693589943320997e-15,251.102,0.4779999852180481,-2.5563954219389866
251.37931000000003,,2.127400387605832e-15,251.568,0.47999998927116394,-2.5521866635536488
251.844828,,2.4933222711482707e-15,252.035,0.4909999966621399,-2.5284319166989597
252.31034499999998,,2.866160770355278e-15,252.501,0.4909999966621399,-2.528697393358703
252.77586200000002,,3.244885731097686e-15,252.961,0.4950000047683716,-2.520295058605455
253.241379,,3.628401528930489e-15,253.424,0.49300000071525574,-2.525001976740216
253.706897,,4.0155481465982605e-15,253.894,0.503000020980835,-2.503591744772036
254.172414,,4.405102527583424e-15,254.357,0.492000013589859,-2.5279485522590828
254.63793099999998,,4.795780212794714e-15,254.82,0.4729999899864197,-2.5697388685958527
255.10344800000001,,5.186237266790495e-15,255.29,0.47999998927116394,-2.554877558417994
255.56896600000002,,5.575072499175839e-15,255.755,0.4790000021457672,-2.557427253619171
256.03448299999997,,5.960829986003708e-15,256.218,0.5170000195503235,-2.4749796051944317
256.5,,6.342001895149962e-15,256.684,0.48100000619888306,-2.5537111728946553
256.965517,,6.717031618719922e-15,257.149,0.4860000014305115,-2.543068840730199
257.431034,,7.084317214581975e-15,257.615,0.48399999737739563,-2.547620878540935
257.896552,,7.442215158112398e-15,258.08,0.492000013589859,-2.5303242697396318
258.362069,,7.789044404176715e-15,258.546,0.4729999899864197,-2.571785335314774
258.827586,,8.123090758268332e-15,259.005,0.492000013589859,-2.5303899198041906
259.29310300000003,,8.442611554576627e-15,259.471,0.49000000953674316,-2.53467820380854
259.758621,,8.74584063756656e-15,259.939,0.4880000054836273,-2.5389002986607005
260.224138,,9.030993642422439e-15,260.401,0.5049999952316284,-2.5016656979979928
260.689655,,9.296273568442562e-15,260.864,0.4830000102519989,-2.5493416894026835
261.155172,,9.53987663817195e-15,261.334,0.503000020980835,-2.505465468849468
261.62068999999997,,9.759998433730482e-15,261.795,0.4909999966621399,-2.531266092803957
262.086207,,9.954840300436828e-15,262.264,0.4909999966621399,-2.5308932030284597
262.551724,,1.01226160064483e-14,262.73,0.46399998664855957,-2.589326078952223
263.017241,,1.0261558645737129e-14,263.194,0.4880000054836273,-2.536642228469065
263.482759,,1.0369927770308782e-14,263.66,0.4860000014305115,-2.5406092092126036
263.94827599999996,,1.0446016736142203e-14,264.119,0.44999998807907104,-2.6186680961669246
264.413793,,1.0488160245899799e-14,264.585,0.49799999594688416,-2.51374975150395
264.87931,,1.049474207002153e-14,265.05,0.5009999871253967,-2.50690897359491
265.34482799999995,,1.0464202926387668e-14,265.516,0.49900001287460327,-2.511007708455234
265.810345,,1.0395048497313817e-14,265.983,0.4659999907016754,-2.5826992991284836
266.27586199999996,,1.0285857561235213e-14,266.449,0.4909999966621399,-2.528090636794827
266.741379,,1.013529021505059e-14,266.909,0.48500001430511475,-2.541085532331057
267.206897,,9.942096161735015e-15,267.379,0.49000000953674316,-2.53018270420627
267.672414,,9.705123036501933e-15,267.842,0.4860000014305115,-2.5389553483013927
268.137931,,9.42332474350321e-15,268.305,0.49399998784065247,-2.5216499932898335
268.603448,,9.095769773808766e-15,268.77,0.4830000102519989,-2.5458009645591173
269.06896600000005,,8.721649474210472e-15,269.241,0.5009999871253967,-2.506827677703147
269.53448299999997,,8.300286235254974e-15,269.699,0.503000020980835,-2.5027614338813424
270.0,,7.831141565833443e-15,270.167,0.5009999871253967,-2.507449733042419
270.465517,,7.313824020649591e-15,270.633,0.5210000276565552,-2.464237298403889
270.931034,,6.748096945957131e-15,271.097,0.47999998927116394,-2.553941818771638
271.396552,,6.133886008110926e-15,271.563,0.4880000054836273,-2.536901476000916
271.86206899999996,,5.471286468718911e-15,272.027,0.4959999918937683,-2.519859198184839
272.327586,,4.760570169521099e-15,272.493,0.4860000014305115,-2.542018955094067
272.793103,,4.002192189564052e-15,272.957,0.5019999742507935,-2.5075092882755103
273.258621,,3.1967971367906444e-15,273.419,0.4880000054836273,-2.53832396777948
273.724138,,2.345225035832002e-15,273.887,0.49000000953674316,-2.5342362960171356
274.18965499999996,,1.4485167735773762e-15,274.349,0.48399999737739563,-2.5475262066288855
274.655172,,5.079190640144202e-16,274.82,0.4779999852180481,-2.5607583430591454
275.12069,,4.751111061173051e-16,275.283,0.4779999852180481,-2.5608563607011003
275.586207,,1.4989025891271517e-15,275.748,0.5540000200271606,-2.3953104881656073
276.051724,,2.5615667835619063e-15,276.212,0.4830000102519989,-2.549957155684883
276.517241,,3.660994974231564e-15,276.678,0.48500001430511475,-2.545495667038411
276.98275900000004,,4.794856341883713e-15,277.143,0.4860000014305115,-2.5431504126632856
277.448276,,5.960596678540925e-15,277.608,0.4860000014305115,-2.5429261173612687
277.913793,,7.155437843555807e-15,278.075,0.48100000619888306,-2.5535440125350912
278.37931,,8.376377994312253e-15,278.534,0.492000013589859,-2.529260475747602
278.844828,,9.620192624205726e-15,278.999,0.47699999809265137,-2.561588070254033
279.31034500000004,,1.088343643906742e-14,279.464,0.4880000054836273,-2.537247346654557
279.77586199999996,,1.2162446101554765e-14,279.935,0.46299999952316284,-2.591325911363408
280.241379,,1.3453343871212143e-14,280.397,0.49000000953674316,-2.5321140702156306
280.706897,,1.4752042165909775e-14,280.865,0.5070000290870667,-2.494698510632954
281.172414,,1.6054249068195047e-14,281.327,0.4880000054836273,-2.53573444864939
281.637931,,1.7355474797739073e-14,281.795,0.4959999918937683,-2.5179775682096883
282.10344799999996,,1.8651039168532812e-14,282.257,0.45100000500679016,-2.6157302626544903
282.568966,,1.9936080046782888e-14,282.723,0.48500001430511475,-2.5414201914082866
283.034483,,2.1205562822579423e-14,283.187,0.4959999918937683,-2.5172759024781266
283.5,,2.2454290905359394e-14,283.653,0.47999998927116394,-2.5520163731176995
283.965517,,2.367691724997295e-14,284.12,0.49399998784065247,-2.521462238556411
284.431034,,2.4867956916780925e-14,284.585,0.4830000102519989,-2.545440732363601
284.89655200000004,,2.6021800665674374e-14,285.05,0.4790000021457672,-2.554235090662048
285.362069,,2.7132729580217048e-14,285.509,0.48399999737739563,-2.5434859417928246
285.827586,,2.819493071427616e-14,285.983,0.4000000059604645,-2.726698200370869
286.293103,,2.920251374953272e-14,286.442,0.4129999876022339,-2.6986399960043275
286.758621,,3.0149528648158386e-14,286.905,0.47600001096725464,-2.56169975274222
287.22413800000004,,3.102998428072029e-14,287.375,0.49900001287460327,-2.5119435595632074
287.689655,,3.183786800503815e-14,287.836,0.4959999918937683,-2.518857750741526
288.155172,,3.256716616728042e-14,288.306,0.46799999475479126,-2.580252472963208
288.62069,,3.3211885492058956e-14,288.764,0.49300000071525574,-2.5261820783892666
289.086207,,3.3766075323677553e-14,289.234,0.4950000047683716,-2.5222117154815455
289.55172400000004,,3.422385067602175e-14,289.7,0.46700000762939453,-2.5835804566974274
290.01724099999996,,3.4579416043859e-14,290.164,0.4779999852180481,-2.5599515509870012
290.482759,,3.4827089923564877e-14,290.63,0.4880000054836273,-2.5384608503010817
290.948276,,3.496132998651706e-14,291.09,0.49399998784065247,-2.5256351009274245
291.413793,,3.497675884362169e-14,291.555,0.47200000286102295,-2.5737545478776234
291.87931,,3.4868190334672104e-14,292.02,0.4740000069141388,-2.5695247271525714
292.344828,,3.463065627150598e-14,292.486,0.4950000047683716,-2.5238351780630115
292.81034500000004,,3.4259433559241745e-14,292.953,0.4880000054836273,-2.5390800006442706
293.275862,,3.3750071615257366e-14,293.416,0.49399998784065247,-2.5259346997664163
293.74137900000005,,3.309842000104405e-14,293.879,0.4779999852180481,-2.560654475810511
294.206897,,3.23006561776432e-14,294.349,0.49000000953674316,-2.534311384393193
294.672414,,3.135331329107847e-14,294.813,0.4959999918937683,-2.5209854607638573
295.13793100000004,,3.02533078900457e-14,295.275,0.49000000953674316,-2.533755789312824
295.603448,,2.89979674741442e-14,295.74,0.49000000953674316,-2.5334160124980105
296.068966,,2.7585057767143778e-14,296.204,0.503000020980835,-2.504725620920594
296.534483,,2.6012809606205486e-14,296.67,0.5070000290870667,-2.4956254279817234
297.0,,2.427994533463187e-14,297.134,0.47999998927116394,-2.5540575137954176
297.46551700000003,,2.2385704582636613e-14,297.6,0.49000000953674316,-2.5318860046112492
297.931034,,2.0329869317816144e-14,298.065,0.48399999737739563,-2.5445912953738636
298.396552,,1.8112788044498865e-14,298.531,0.503000020980835,-2.502859260512851
298.862069,,1.573539902896308e-14,298.998,0.4830000102519989,-2.546133448560105
299.327586,,1.319925242567423e-14,299.464,0.4959999918937683,-2.517560097516101
299.79310300000003,,1.0506531178217053e-14,299.927,0.49900001287460327,-2.5108282972649025
300.258621,,7.660070567509895e-15,300.39,0.4699999988079071,-2.5738744630203416
300.724138,,4.663376279207058e-15,300.861,0.46399998664855957,-2.586877885795227
301.189655,,1.5206408619409272e-15,301.323,0.492000013589859,-2.525875501851598
301.65517200000005,,1.7632415517521472e-15,301.791,0.49399998784065247,-2.5215853188087567
302.12069,,5.182662389320824e-15,302.253,0.4830000102519989,-2.545682084892914
302.586207,,8.731287773261027e-15,302.719,0.49000000953674316,-2.53062394353285
303.05172400000004,,1.2402049772070106e-14,303.179,0.5019999742507935,-2.504727139225661
303.517241,,1.6187139889656376e-14,303.645,0.47999998927116394,-2.552951086013339
303.982759,,2.0078004913082514e-14,304.11,0.46000000834465027,-2.5968565564466455
304.448276,,2.406534523529298e-14,304.575,0.4819999933242798,-2.549288324608246
304.913793,,2.813911576569214e-14,305.042,0.44999998807907104,-2.6193857851875624
305.37931000000003,,3.2288529537090583e-14,305.508,0.4819999933242798,-2.550056950664421
305.844828,,3.650206411261343e-14,305.976,0.4830000102519989,-2.54826108107846
306.310345,,4.0767470890658906e-14,306.438,0.4880000054836273,-2.5377331579118714
306.775862,,4.507178739990233e-14,306.901,0.41200000047683716,-2.703648447454539
307.241379,,4.940135266965666e-14,307.364,0.49000000953674316,-2.534015368646849
307.70689699999997,,5.374182575362388e-14,307.835,0.49000000953674316,-2.534269889204691
308.172414,,5.807820747720262e-14,308.297,0.4819999933242798,-2.5518974824784384
308.637931,,6.239486547005789e-14,308.763,0.4880000054836273,-2.5389619059105315
309.103448,,6.667556253661502e-14,309.225,0.4830000102519989,-2.549925353226159
309.568966,,7.090348840751663e-14,309.691,0.4830000102519989,-2.549927410581077
310.034483,,7.50612949048904e-14,310.157,0.5009999871253967,-2.5106454373156835
310.5,,7.913113454352628e-14,310.622,0.49300000071525574,-2.527941458810614
310.96551700000003,,8.309470257876987e-14,311.087,0.4790000021457672,-2.558247006290995
311.431034,,8.69332825001206e-14,311.553,0.46700000762939453,-2.584139860520563
311.896552,,9.0627794957199e-14,312.014,0.4950000047683716,-2.522839362551043
312.362069,,9.415885009193712e-14,312.479,0.4909999966621399,-2.5312167336425233
312.827586,,9.750680323757752e-14,312.95,0.5059999823570251,-2.49817063145616
313.29310300000003,,1.0065181393136304e-13,313.412,0.47999998927116394,-2.5544312787635493
313.758621,,1.035739081736955e-13,313.875,0.49799999594688416,-2.514825778831423
314.224138,,1.062530438520673e-13,314.346,0.45500001311302185,-2.6081249510357045
314.689655,,1.0866917923326176e-13,314.809,0.421999990940094,-2.679658508323107
315.155172,,1.1080234441221415e-13,315.271,0.4959999918937683,-2.5181090881364967
315.62068999999997,,1.1263271559056736e-13,315.737,0.4690000116825104,-2.576644097581384
316.086207,,1.141406920423873e-13,316.201,0.492000013589859,-2.5262954744658987
316.551724,,1.1530697560877006e-13,316.667,0.49000000953674316,-2.5304687480168084
317.017241,,1.1611265254722337e-13,317.135,0.4790000021457672,-2.554310844722863
317.482759,,1.1653927754579335e-13,317.6,0.4830000102519989,-2.5455381206555305
317.94827599999996,,1.1656895969598408e-13,318.06,0.4819999933242798,-2.547725338054376
318.413793,,1.1618445020264265e-13,318.526,0.47699999809265137,-2.5586933761803556
318.87931000000003,,1.1536923159321044e-13,318.991,0.503000020980835,-2.5021867886819917
319.344828,,1.141076081731359e-13,319.457,0.4909999966621399,-2.528527483117255
319.810345,,1.1238479745886764e-13,319.92,0.492000013589859,-2.526597970016586
320.275862,,1.101870223047631e-13,320.39,0.5040000081062317,-2.500747963568317
320.741379,,1.0750160342552376e-13,320.85,0.5009999871253967,-2.5076129161982244
321.20689699999997,,1.0431705200147139e-13,321.319,0.46299999952316284,-2.5907562840206557
321.672414,,1.0062316204018053e-13,321.787,0.4860000014305115,-2.5410181130700775
322.137931,,9.64111021547509e-14,322.249,0.47999998927116394,-2.554465552825847
322.603448,,9.16735064064107e-14,322.715,0.4950000047683716,-2.522154171060381
323.068966,,8.64045638472615e-14,323.18,0.5170000195503235,-2.47457309934359
323.53448299999997,,8.060010638788009e-14,323.645,0.49300000071525574,-2.527179627578077
324.0,,7.42576946042554e-14,324.105,0.4749999940395355,-2.5666751577894447
324.465517,,6.737670108923318e-14,324.571,0.48500001430511475,-2.5451219648738883
324.931034,,5.995839094534154e-14,325.036,0.4749999940395355,-2.567088573883258
325.396552,,5.200599900864931e-14,325.501,0.5170000195503235,-2.4757061244003613
325.86206899999996,,4.3524803387237916e-14,325.964,0.48899999260902405,-2.5367656468970745
326.327586,,3.452219489301919e-14,326.434,0.492000013589859,-2.5302219750799364
326.793103,,2.5007741942074488e-14,326.894,0.48399999737739563,-2.547579525570274
327.258621,,1.4993250496494728e-14,327.364,0.4860000014305115,-2.543089079958668
327.724138,,4.492818619931686e-15,327.827,0.49000000953674316,-2.5341840465326158
328.189655,,6.477114780206284e-15,328.29,0.4950000047683716,-2.523048723239402
328.655172,,1.789772744870525e-14,328.756,0.47600001096725464,-2.564156821229085
329.12068999999997,,2.9747777937546256e-14,329.226,0.48899999260902405,-2.535513185814179
329.586207,,4.200357683530194e-14,329.685,0.4959999918937683,-2.5199159106821494
330.051724,,5.463896547899909e-14,330.149,0.5019999742507935,-2.5064817274818996
330.517241,,6.762530254747169e-14,330.615,0.4880000054836273,-2.5366157141043706
330.982759,,8.093145892437073e-14,331.079,0.49799999594688416,-2.5144688367985566
331.44827599999996,,9.452382120628663e-14,331.545,0.49399998784065247,-2.5228405359936175
331.913793,,1.0836630421684197e-13,332.009,0.47699999809265137,-2.5595627619318884
332.37931,,1.2242037287109808e-13,332.474,0.4909999966621399,-2.5287849463310472
332.844828,,1.366450737161643e-13,332.942,0.4749999940395355,-2.563413064074
333.310345,,1.5099707645348497e-13,333.405,0.48100000619888306,-2.550164406177015
333.77586199999996,,1.6543072572589562e-13,333.873,0.4860000014305115,-2.539153161616075
334.241379,,1.7989810342818006e-13,334.335,0.4959999918937683,-2.51731032172062
334.706897,,1.9434910177352651e-13,334.805,0.492000013589859,-2.5260312743608035
335.17241399999995,,2.087315073199816e-13,335.267,0.5090000033378601,-2.4890627100512446
335.637931,,2.2299109613075166e-13,335.733,0.4959999918937683,-2.5175131328685816
336.103448,,2.370717402100269e-13,336.197,0.5009999871253967,-2.5068034516102684
336.56896600000005,,2.509155253219338e-13,336.663,0.49300000071525574,-2.524466344286117
337.034483,,2.644628802642964e-13,337.128,0.49000000953674316,-2.5312793250758827
337.5,,2.776527176311563e-13,337.594,0.49399998784065247,-2.5228769442018883
337.965517,,2.904225860585196e-13,338.06,0.49399998784065247,-2.5232147021133016
338.431034,,3.027088339066299e-13,338.519,0.4880000054836273,-2.5366397592566843
338.89655200000004,,3.144467842892912e-13,338.984,0.48399999737739563,-2.5457126847786964
339.36206899999996,,3.2557092131645394e-13,339.449,0.5040000081062317,-2.502492212191282
339.827586,,3.360150873705346e-13,339.92,0.4880000054836273,-2.537686404557054
340.293103,,3.457126911898591e-13,340.382,0.4950000047683716,-2.5227449545563614
340.758621,,3.5459692648431635e-13,340.846,0.4909999966621399,-2.531732827558082
341.224138,,3.6260100075889516e-13,341.316,0.5950000286102295,-2.3053805903651234
341.68965499999996,,3.696583739703884e-13,341.774,0.492000013589859,-2.529954359947892
342.155172,,3.7570300659131805e-13,342.245,0.4560000002384186,-2.608501775539747
342.62069,,3.8066961660320955e-13,342.704,0.4830000102519989,-2.5497369548223148
343.086207,,3.844939448888821e-13,343.169,0.5149999856948853,-2.4800192190755044
343.551724,,3.8711302844057954e-13,343.634,0.48899999260902405,-2.536602344056081
344.01724099999996,,3.884654807477233e-13,344.102,0.47699999809265137,-2.562626301570206
344.48275900000004,,3.8849177867500403e-13,344.567,0.5,-2.5123437294498236
344.948276,,3.8713455508862806e-13,345.031,0.4909999966621399,-2.531728994193645
345.413793,,3.8433889643599244e-13,345.496,0.4860000014305115,-2.5423574555235664
345.87931,,3.8005264443208594e-13,345.964,0.5019999742507935,-2.507200207187116
346.344828,,3.7422670095470736e-13,346.427,0.48399999737739563,-2.5460915800506103
346.81034500000004,,3.668153352003797e-13,346.89,0.49000000953674316,-2.5326800063915202
347.275862,,3.5777649210383355e-13,347.36,0.5120000243186951,-2.48440446434321
347.741379,,3.470721009763653e-13,347.821,0.49000000953674316,-2.5319937048650454
348.206897,,3.346683832724783e-13,348.29,0.4830000102519989,-2.5469179789162695
348.672414,,3.2053615835022083e-13,348.756,0.48399999737739563,-2.5444381931499023
349.13793100000004,,3.046511460487871e-13,349.219,0.49000000953674316,-2.531099046784484
349.60344799999996,,2.869942648674846e-13,349.684,0.5379999876022339,-2.426297313795609
350.068966,,2.675519244933345e-13,350.149,0.5019999742507935,-2.504548071458845
350.534483,,2.4631631139061377e-13,350.615,0.47099998593330383,-2.571957800719307
351.0,,2.2328566613480556e-13,351.08,0.4959999918937683,-2.517420552568853
351.465517,,1.9846455114595062e-13,351.546,0.47699999809265137,-2.5588032409175896
351.93103399999995,,1.7186410745251993e-13,352.005,0.49000000953674316,-2.5305287288561416
352.396552,,1.4350229909690972e-13,352.471,0.5009999871253967,-2.5066692667537596
352.862069,,1.1340414377772308e-13,352.939,0.4690000116825104,-2.5765459505722825
353.32758600000005,,8.160192831238617e-14,353.4,0.5019999742507935,-2.504860370515662
353.793103,,4.813540749657722e-14,353.868,0.515999972820282,-2.4746115674635107
354.258621,,1.3051984934644386e-14,354.331,0.492000013589859,-2.5271855516594313
354.72413800000004,,2.359312558213021e-14,354.794,0.48899999260902405,-2.534034349357651
355.189655,,6.173675956469412e-14,355.264,0.4819999933242798,-2.549615366002036
355.655172,,1.0130768358483653e-13,355.73,0.4959999918937683,-2.519452632171101
356.12069,,1.4222650068644663e-13,356.194,0.4880000054836273,-2.53721771537739
356.586207,,1.844055808080511e-13,356.659,0.4869999885559082,-2.539719963234864
357.05172400000004,,2.2774901754479437e-13,357.123,0.5019999742507935,-2.5073417702444973
357.517241,,2.7215261254150666e-13,357.589,0.5009999871253967,-2.509790411948051
357.982759,,3.17503888765806e-13,358.053,0.5019999742507935,-2.507842099706908
358.448276,,3.6368213386118477e-13,358.519,0.4909999966621399,-2.531991237280244
358.913793,,4.1055847472464473e-13,358.984,0.47699999809265137,-2.5626254202704777
359.37931000000003,,4.57995984391585e-13,359.449,0.49300000071525574,-2.5278457846141764
359.844828,,5.058498222422576e-13,359.912,0.49000000953674316,-2.534403631973843
360.310345,,5.539674084691452e-13,360.375,0.4880000054836273,-2.538725328012234
360.775862,,6.021886336630736e-13,360.846,0.49399998784065247,-2.525561506445681
361.241379,,6.503461042877493e-13,361.308,0.4740000069141388,-2.5689891378732392
361.706897,,6.982654247177378e-13,361.774,0.48399999737739563,-2.5470088381502625
362.172414,,7.457655164137347e-13,362.237,0.47999998927116394,-2.555486970484818
362.63793100000004,,7.926589747013989e-13,362.703,0.4970000088214874,-2.518177415032756
363.103448,,8.387524635061287e-13,363.168,0.48100000619888306,-2.5527351343229694
363.568966,,8.838471482760964e-13,363.634,0.5009999871253967,-2.5088421012318247
364.034483,,9.27739167199782e-13,364.099,0.49900001287460327,-2.5128688681107185
364.5,,9.702201406923462e-13,364.564,0.48399999737739563,-2.5452175127146957
364.96551700000003,,1.011077718987678e-12,365.031,0.49900001287460327,-2.512216055396098
365.431034,,1.0500961675300852e-12,365.489,0.492000013589859,-2.527163703767673
365.896552,,1.0870569897116613e-12,365.957,0.49799999594688416,-2.5138165566985164
366.362069,,1.1217395863486437e-12,366.419,0.48899999260902405,-2.5331849339325183
366.827586,,1.1539219511329368e-12,366.89,0.47699999809265137,-2.5591325899811386
367.29310300000003,,1.1833814011337574e-12,367.353,0.47600001096725464,-2.5611648701878114
367.758621,,1.2098953412594903e-12,367.821,0.4819999933242798,-2.5480009028267685
368.224138,,1.2332420614217304e-12,368.283,0.48399999737739563,-2.54360813980795
368.689655,,1.2532015649725974e-12,368.749,0.4620000123977661,-2.591560784220003
369.155172,,1.2695564268132335e-12,369.212,0.49000000953674316,-2.5306383525406098
369.62068999999997,,1.2820926793964512e-12,369.678,0.4950000047683716,-2.519878988187086
370.086207,,1.2906007246703358e-12,370.146,0.48500001430511475,-2.5418488478148484
370.55172400000004,,1.294876269832792e-12,370.604,0.492000013589859,-2.526825820238863
371.017241,,1.2947212845901665e-12,371.076,0.47999998927116394,-2.553234629800016
371.482759,,1.2899449774368063e-12,371.534,0.503000020980835,-2.503420013009023
371.948276,,1.2803647882973804e-12,371.999,0.5009999871253967,-2.508091823376372
372.413793,,1.2658073947006708e-12,372.464,0.515999972820282,-2.475736652067777
372.87931000000003,,1.24610972848303e-12,372.935,0.49399998784065247,-2.5239918652434095
373.344828,,1.2211199998525372e-12,373.397,0.48100000619888306,-2.552630927726719
373.810345,,1.1906987254817873e-12,373.865,0.49399998784065247,-2.5246083112789837
374.275862,,1.154719757138986e-12,374.327,0.4950000047683716,-2.5227035449654487
374.741379,,1.1130713072143633e-12,374.791,0.47600001096725464,-2.564338049036562
375.20689699999997,,1.0656569673526573e-12,375.261,0.4790000021457672,-2.5580022508578066
375.672414,,1.0123967162633357e-12,375.719,0.48100000619888306,-2.5537994410337523
376.137931,,9.532279126491486e-13,376.186,0.515999972820282,-2.4776504015235497
376.603448,,8.88106269071324e-13,376.652,0.48500001430511475,-2.5452374195879877
377.068966,,8.170068024570676e-13,377.12,0.4860000014305115,-2.543052282250197
377.53448299999997,,7.399247568528169e-13,377.585,0.4959999918937683,-2.521204428059634
378.0,,6.568764939357512e-13,378.049,0.49000000953674316,-2.5341616328503846
378.465517,,5.679003467171604e-13,378.515,0.5019999742507935,-2.507853245866993
378.931034,,4.730574318052604e-13,378.981,0.49399998784065247,-2.5250724325749636
379.396552,,3.724324155426822e-13,379.439,0.5009999871253967,-2.5095727872913707
379.862069,,2.6613422929593587e-13,379.909,0.492000013589859,-2.5288997897496737
380.327586,,1.542967291514213e-13,380.371,0.503000020980835,-2.5046304859144413
380.79310300000003,,3.707929526575862e-14,380.839,0.49399998784065247,-2.5239198193514603
381.258621,,8.533263387194232e-14,381.302,0.5009999871253967,-2.5083456834323585
381.724138,,2.1272709698107994e-13,381.768,0.5270000100135803,-2.451381141528774
382.189655,,3.448652200038796e-13,382.23,0.503000020980835,-2.5033618838435863
382.655172,,4.814809051993375e-13,382.696,0.5049999952316284,-2.498720121500788
383.12068999999997,,6.222806038401753e-13,383.161,0.5040000081062317,-2.5006454007191268
383.586207,,7.669431769335662e-13,383.627,0.48399999737739563,-2.544004196446108
384.051724,,9.151198482635865e-13,384.094,0.492000013589859,-2.526406916872916
384.517241,,1.0664342539099088e-12,384.56,0.49900001287460327,-2.511039455702906
384.982759,,1.2204825922328198e-12,385.02,0.492000013589859,-2.526227421829595
385.44827599999996,,1.3768338781288837e-12,385.486,0.47999998927116394,-2.5523652479543983
385.913793,,1.5350303051542334e-12,385.949,0.4869999885559082,-2.5371658562096893
386.37931,,1.6945877188833601e-12,386.419,0.503000020980835,-2.50241381167275
386.84482799999995,,1.8549962046202536e-12,386.879,0.4869999885559082,-2.5374302822742334
387.310345,,2.0157207923057807e-12,387.349,0.47999998927116394,-2.5528860890434895
387.775862,,2.176202281170303e-12,387.813,0.49000000953674316,-2.531346242833433
388.241379,,2.335858186363829e-12,388.275,0.5009999871253967,-2.507661363711361
388.70689699999997,,2.494083809457645e-12,388.74,0.4830000102519989,-2.5471820140176913
389.172414,,2.650253434351667e-12,389.205,0.492000013589859,-2.5278950809030225
389.637931,,2.8037216497410463e-12,389.67,0.4869999885559082,-2.539115622872241
390.103448,,2.9538247988943034e-12,390.135,0.492000013589859,-2.5285459499759533
390.56896600000005,,3.099882557073983e-12,390.6,0.5009999871253967,-2.5092481658791543
391.03448299999997,,3.2411996364901782e-12,391.065,0.4959999918937683,-2.520428109195735
391.5,,3.377067618217996e-12,391.531,0.49799999594688416,-2.5163255863025595
391.965517,,3.506766910032929e-12,391.998,0.503000020980835,-2.505647442300531
392.431034,,3.6295688286241295e-12,392.464,0.4819999933242798,-2.5515684165884296
392.896552,,3.744737804135777e-12,392.924,0.49000000953674316,-2.5342581085004863
393.36206899999996,,3.8515337044621894e-12,393.393,0.47999998927116394,-2.556109973427333
393.827586,,3.9492142761843356e-12,393.857,0.47600001096725464,-2.5648346393442445
394.293103,,4.037037698485246e-12,394.319,0.49000000953674316,-2.5342882476054247
394.75862099999995,,4.114265245820996e-12,394.79,0.49000000953674316,-2.5341884255970424
395.224138,,4.180164054553878e-12,395.253,0.43799999356269836,-2.6473275673588876
395.68965499999996,,4.234009988176846e-12,395.719,0.48399999737739563,-2.546913759222969
396.155172,,4.27509059517496e-12,396.184,0.4950000047683716,-2.522712196327857
396.62069,,4.302708152982222e-12,396.65,0.49900001287460327,-2.5137263088020325
397.086207,,4.3161827909028254e-12,397.11,0.5009999871253967,-2.509070540915916
397.551724,,4.31485568427643e-12,397.575,0.4790000021457672,-2.5566841311773554
398.017241,,4.298092311579715e-12,398.042,0.4909999966621399,-2.5302155455364264
398.48275900000004,,4.265285765573357e-12,398.508,0.4880000054836273,-2.5364282260106448
398.94827599999996,,4.215860109026983e-12,398.976,0.5120000243186951,-2.4838280094684273
399.413793,,4.149273764986875e-12,399.438,0.49399998784065247,-2.522750701747472
399.87931,,4.065022930994704e-12,399.901,0.4959999918937683,-2.518128862467415
400.344828,,3.962645006122761e-12,400.364,0.4869999885559082,-2.5375091737992297
400.810345,,3.841722019164607e-12,400.832,0.48100000619888306,-2.550397835949603
401.27586199999996,,3.701884045812331e-12,401.294,0.5460000038146973,-2.408651593001007
401.741379,,3.5428126021653208e-12,401.759,0.4779999852180481,-2.556718020136351
402.206897,,3.3642440014532502e-12,402.229,0.4390000104904175,-2.6416605371694177
402.672414,,3.1659726604206275e-12,402.695,0.492000013589859,-2.5262270767721406
403.137931,,2.9478543414143135e-12,403.161,0.5049999952316284,-2.497996941065198
403.60344799999996,,2.7098093158417816e-12,403.619,0.46399998664855957,-2.5874677913319335
404.068966,,2.4518254343291577e-12,404.084,0.4699999988079071,-2.5745929254831394
404.534483,,2.1739610886070067e-12,404.549,0.49799999594688416,-2.5138328160364263
405.0,,1.8763480498911416e-12,405.016,0.4830000102519989,-2.5467914592502168
405.465517,,1.5591941683080484e-12,405.482,0.492000013589859,-2.527490897245093
405.931034,,1.2227859177425273e-12,405.946,0.49000000953674316,-2.53217456521427
406.39655200000004,,8.674907703613918e-13,406.415,0.4959999918937683,-2.519438082365645
406.862069,,4.937593849941049e-13,406.876,0.4909999966621399,-2.53066547647743
407.327586,,1.0212759353148405e-13,407.346,0.4830000102519989,-2.548417700141873
407.793103,,3.067818304605321e-13,407.809,0.492000013589859,-2.529112247853007
408.258621,,7.322576366213301e-13,408.272,0.5989999771118164,-2.2962672318088067
408.72413800000004,,1.1734988117257841e-12,408.737,0.49000000953674316,-2.53396798322877
409.18965499999996,,1.6296135580037853e-12,409.201,0.48399999737739563,-2.5472210487905023
409.655172,,2.099618550908935e-12,409.667,0.492000013589859,-2.52992284259276
410.12069,,2.582438491050586e-12,410.132,0.4790000021457672,-2.558322435722706
410.586207,,3.076905964590433e-12,410.598,0.4860000014305115,-2.5430930941548957
411.05172400000004,,3.5817616259230653e-12,411.064,0.48899999260902405,-2.5365217748005717
411.51724099999996,,4.095654715908039e-12,411.53,0.492000013589859,-2.529894574936613
411.982759,,4.617143928298052e-12,411.994,0.48899999260902405,-2.5362861616092593
412.448276,,5.144698636312863e-12,412.46,0.4909999966621399,-2.531735570532756
412.913793,,5.676700490541028e-12,412.92,0.49000000953674316,-2.5336777838983324
413.37931,,6.211445398511005e-12,413.39,0.4790000021457672,-2.557370645232533
413.844828,,6.747145895359421e-12,413.853,0.4779999852180481,-2.559249680512964
414.31034500000004,,7.28193391403755e-12,414.316,0.5059999823570251,-2.4979290990706553
414.775862,,7.813863962437557e-12,414.787,0.4490000009536743,-2.621784355167439
415.241379,,8.340916713688519e-12,415.249,0.48100000619888306,-2.5517412478523687
415.706897,,8.861003014669552e-12,415.715,0.49000000953674316,-2.5318177690776884
416.172414,,9.371968316514715e-12,416.175,0.4819999933242798,-2.5489505328775386
416.63793100000004,,9.871597529543367e-12,416.641,0.48899999260902405,-2.533431372386524
417.103448,,1.0357620303642003e-11,417.106,0.48899999260902405,-2.533198353858486
417.568966,,1.0827716733651546e-11,417.572,0.47999998927116394,-2.552615639697409
418.034483,,1.1279523487779932e-11,418.038,0.4749999940395355,-2.5633667655600014
418.5,,1.1710640355466676e-11,418.504,0.4909999966621399,-2.5284189100509393
418.96551700000003,,1.2118637209476704e-11,418.964,0.4909999966621399,-2.5283841721338955
419.43103399999995,,1.2501061375298814e-11,419.434,0.46299999952316284,-2.589407532902182
419.896552,,1.2855445399173348e-11,419.894,0.47600001096725464,-2.56116232057291
420.362069,,1.3179315204278211e-11,420.364,0.4880000054836273,-2.53514933826619
420.827586,,1.3470198622766676e-11,420.827,0.4830000102519989,-2.5462223953900183
421.293103,,1.3725634289479349e-11,421.29,0.49000000953674316,-2.5311951733683333
421.758621,,1.3943180881251284e-11,421.756,0.4950000047683716,-2.5205618752415178
422.22413800000004,,1.4120426683809023e-11,422.219,0.5090000033378601,-2.4903490901476286
422.689655,,1.425499946630716e-11,422.684,0.4880000054836273,-2.53640869347586
423.15517200000005,,1.4344576641595975e-11,423.152,0.4880000054836273,-2.5367278655111996
423.62069,,1.4386895688347081e-11,423.618,0.5,-2.510905327339375
424.086207,,1.4379764809199686e-11,424.079,0.4880000054836273,-2.5373628540024518
424.55172400000004,,1.4321073797133023e-11,424.544,0.49000000953674316,-2.5333028930498203
425.017241,,1.420880508032792e-11,425.009,0.5049999952316284,-2.500895399302412
425.482759,,1.4041044913860073e-11,425.475,0.49300000071525574,-2.5272780351015784
425.948276,,1.3815994684677066e-11,425.946,0.48500001430511475,-2.544906162930874
426.413793,,1.3531982294458566e-11,426.408,0.48899999260902405,-2.5363454509791303
426.87931000000003,,1.3187473583152618e-11,426.872,0.49399998784065247,-2.525556461246587
427.344828,,1.2781083754229086e-11,427.334,0.4790000021457672,-2.5582879052856127
427.810345,,1.2311588761002695e-11,427.802,0.47999998927116394,-2.5561075393488606
428.275862,,1.1777936611761379e-11,428.265,0.4749999940395355,-2.566945993079091
428.741379,,1.1179258549899765e-11,428.73,0.46799999475479126,-2.5820906258458676
429.20689699999997,,1.051488006381145e-11,429.195,0.5170000195503235,-2.4751822088501387
429.672414,,9.78433167994647e-12,429.66,0.4860000014305115,-2.5425204972597664
430.137931,,8.987359491200889e-12,430.127,0.49399998784065247,-2.5248519793953643
430.603448,,8.12393537168303e-12,430.592,0.47600001096725464,-2.5637963141553004
431.068966,,7.194266827904379e-12,431.058,0.48899999260902405,-2.53517877766487
431.534483,,6.198806435581728e-12,431.523,0.5109999775886536,-2.4869375060527137
432.0,,5.138260810519561e-12,431.99,0.49000000953674316,-2.5323704707846235
432.46551700000003,,4.013599061476862e-12,432.449,0.503000020980835,-2.5037311862808216
432.931034,,2.826060672518901e-12,432.916,0.5019999742507935,-2.5056040285940195
433.396552,,1.577162762120656e-12,433.379,0.4959999918937683,-2.5183897147983867
433.862069,,2.6870666623248345e-13,433.85,0.4970000088214874,-2.5159532018626263
434.327586,,1.0972162073516803e-12,434.312,0.4779999852180481,-2.557126120528317
434.79310300000003,,2.5182193056603304e-12,434.778,0.48899999260902405,-2.532982878287956
435.258621,,3.9916166900579094e-12,435.243,0.49900001287460327,-2.511066671446458
435.724138,,5.51441967968838e-12,435.709,0.4880000054836273,-2.5349540644919575
436.189655,,7.083334428987049e-12,436.169,0.4959999918937683,-2.517501479455493
436.655172,,8.694760488234993e-12,436.635,0.4880000054836273,-2.5349624096704413
437.12068999999997,,1.034479039474179e-11,437.101,0.49000000953674316,-2.530691347078109
437.586207,,1.2029210340623996e-11,437.567,0.47699999809265137,-2.559152439727334
438.051724,,1.3743501961294836e-11,438.035,0.4749999940395355,-2.5636972837288017
438.517241,,1.5482845286691396e-11,438.501,0.4970000088214874,-2.515997899052821
438.982759,,1.724212289493646e-11,438.964,0.4779999852180481,-2.5576594586412225
439.448276,,1.90159253055608e-11,439.427,0.5,-2.5100246421713575
439.913793,,2.0798557646597045e-11,439.894,0.45500001311302185,-2.608379377226206
440.37931000000003,,2.258404762679783e-11,440.357,0.4880000054836273,-2.536810951208657
440.844828,,2.4366154840928886e-11,440.82,0.5009999871253967,-2.5088166807670524
441.310345,,2.6138381432543633e-11,441.29,0.4830000102519989,-2.5483511137377253
441.775862,,2.7893984134861416e-11,441.755,0.4959999918937683,-2.520328920019733
442.241379,,2.962598770635042e-11,442.218,0.4779999852180481,-2.5598175171678497
442.70689699999997,,3.13271997733623e-11,442.684,0.48100000619888306,-2.5535193680212416
443.172414,,3.299022708768379e-11,443.145,0.4860000014305115,-2.5428219488636725
443.637931,,3.460749320216715e-11,443.611,0.5540000200271606,-2.394820145813652
444.103448,,3.617125756268352e-11,444.076,0.4880000054836273,-2.538702172698593
444.568966,,3.7673636009519546e-11,444.541,0.492000013589859,-2.5300218721512473
445.03448299999997,,3.910662267601696e-11,445.009,0.4869999885559082,-2.5408928327808105
445.5,,4.0462113266747756e-11,445.475,0.46000000834465027,-2.5996386123450885
445.965517,,4.173192969183603e-11,445.935,0.503000020980835,-2.5058261763358356
446.431034,,4.29078460281938e-11,446.405,0.4880000054836273,-2.538325662726048
446.896552,,4.398161577244639e-11,446.868,0.4830000102519989,-2.5489939447133394
447.36206899999996,,4.494500034419783e-11,447.331,0.5049999952316284,-2.500800725523133
447.827586,,4.578979879204441e-11,447.794,0.4909999966621399,-2.5310080841048874
448.29310300000003,,4.6507878648402454e-11,448.264,0.503000020980835,-2.5045482913708903
448.758621,,4.709120787279234e-11,448.73,0.4880000054836273,-2.536899316699044
449.224138,,4.753188781673482e-11,449.194,0.4950000047683716,-2.521317163528468
449.689655,,4.7822187136887624e-11,449.66,0.49000000953674316,-2.5318858681755714
450.155172,,4.79545765765017e-11,450.12,0.48100000619888306,-2.5511861228009467
450.62068999999997,,4.792176452873012e-11,450.586,0.48500001430511475,-2.5421903383586417
451.086207,,4.771673328880171e-11,451.053,0.4779999852180481,-2.5571946991824928
451.551724,,4.733277589560035e-11,451.519,0.5009999871253967,-2.506881497918968
452.017241,,4.676353345679465e-11,451.984,0.4970000088214874,-2.515439168952725
452.482759,,4.6003032845367544e-11,452.45,0.49000000953674316,-2.5305847407515514
452.94827599999996,,4.504572464922835e-11,452.913,0.492000013589859,-2.5261778232276413
453.413793,,4.388652124957764e-11,453.375,0.4950000047683716,-2.5196491730593578
453.87931,,4.25208348978672e-11,453.846,0.36899998784065247,-2.794225232906467
454.344828,,4.0944615655581017e-11,454.308,0.47699999809265137,-2.5590569257246774
454.810345,,3.9154389055688224e-11,454.774,0.5049999952316284,-2.4982341329620774
455.27586199999996,,3.714729333951535e-11,455.238,0.47200000286102295,-2.570354500506859
455.741379,,3.492111611798209e-11,455.703,0.4909999966621399,-2.5292242086172765
456.206897,,3.247433030167273e-11,456.168,0.492000013589859,-2.5273404978943805
456.672414,,2.980612914010454e-11,456.634,0.48899999260902405,-2.534193161983612
457.137931,,2.6916460206835053e-11,457.094,0.48500001430511475,-2.5432367197660715
457.603448,,2.3806058163752172e-11,457.56,0.49900001287460327,-2.5130670621699482
458.06896600000005,,2.0476476135045043e-11,458.027,0.46700000762939453,-2.583107949538542
458.53448299999997,,1.6930115518988376e-11,458.493,0.492000013589859,-2.52894929475381
459.0,,1.3170254063818431e-11,458.961,0.4860000014305115,-2.5423029288873193
459.465517,,9.201072032663284e-12,459.423,0.4699999988079071,-2.577408863400599
459.931034,,5.027676281741578e-12,459.887,0.4749999940395355,-2.566722297589474
460.39655200000004,,6.561220758896764e-13,460.349,0.4819999933242798,-2.551631432893634
460.86206899999996,,3.906567534056738e-12,460.82,0.4830000102519989,-2.5495603526900243
461.327586,,8.652384946388839e-12,461.283,0.503000020980835,-2.5060391844467267
461.793103,,1.3572324028739646e-11,461.748,0.47999998927116394,-2.556142451773205
462.258621,,1.8656369093495625e-11,462.212,0.5,-2.5125065171808023
462.724138,,2.3893486995326408e-11,462.677,0.5009999871253967,-2.51020943620547
463.18965499999996,,2.927162251383526e-11,463.142,0.49000000953674316,-2.5340040073053434
463.655172,,3.477769717966379e-11,463.607,0.47999998927116394,-2.555573795242879
464.12069,,4.03976116969494e-11,464.075,0.47200000286102295,-2.5727473514146157
464.58620699999994,,4.6116252108819163e-11,464.541,0.4819999933242798,-2.550674486162089
465.051724,,5.191749984559778e-11,465.005,0.49799999594688416,-2.5155070480356643
465.517241,,5.7784245787601055e-11,465.464,0.4790000021457672,-2.556578553836699
465.98275900000004,,6.369840846577267e-11,465.935,0.4779999852180481,-2.558430787027918
466.448276,,6.964095651399717e-11,466.397,0.4970000088214874,-2.5167161341379547
466.913793,,7.55919354766847e-11,466.865,0.47200000286102295,-2.5708776469265557
467.37931,,8.153049906417377e-11,467.327,0.4830000102519989,-2.5466327506526083
467.844828,,8.743494493664262e-11,467.79,0.47999998927116394,-2.5529224150498164
468.31034500000004,,9.328275508456391e-11,468.26,0.49000000953674316,-2.530929951849576
468.77586199999996,,9.905064086029271e-11,468.719,0.492000013589859,-2.5264128088719655
469.241379,,1.0471459270115827e-10,469.184,0.49799999594688416,-2.5132314926487798
469.706897,,1.1024993456945177e-10,469.649,0.4790000021457672,-2.554569986451494
470.172414,,1.1563138311898714e-10,470.117,0.4880000054836273,-2.5349619355826736
470.63793100000004,,1.2083311158148331e-10,470.582,0.47699999809265137,-2.5589826488766185
471.10344799999996,,1.258288183489029e-10,471.049,0.4959999918937683,-2.517697760183584
471.568966,,1.3059180021011387e-10,471.515,0.4909999966621399,-2.528750522321587
472.034483,,1.350950301818543e-10,471.981,0.4830000102519989,-2.546384433739753
472.5,,1.393112398550126e-10,472.44,0.4779999852180481,-2.557522003098597
472.965517,,1.4321300615773146e-10,472.909,0.4959999918937683,-2.5185827348268433
473.43103399999995,,1.4677284241684743e-10,473.371,0.42800000309944153,-2.6670318348277777
473.89655200000004,,1.4996329357874115e-10,473.835,0.46399998664855957,-2.588918491479764
474.362069,,1.5275703542984769e-10,474.304,0.48500001430511475,-2.5434917192362656
474.827586,,1.551269776359227e-10,474.77,0.4880000054836273,-2.537276261210645
475.293103,,1.5704637039773618e-10,475.233,0.4950000047683716,-2.522331377449207
475.758621,,1.5848891449923736e-10,475.699,0.47600001096725464,-2.564007337301936
476.22413800000004,,1.5942887450247122e-10,476.164,0.49000000953674316,-2.533755691935372
476.689655,,1.598411948216996e-10,476.63,0.4749999940395355,-2.5666453190052714
477.155172,,1.597016183873628e-10,477.094,0.49000000953674316,-2.534129542832173
477.62069,,1.5898680758879027e-10,477.56,0.49000000953674316,-2.5342425065559193
478.086207,,1.576744671630114e-10,478.02,0.4819999933242798,-2.5517302022384984
478.55172400000004,,1.5574346867571506e-10,478.486,0.47699999809265137,-2.5626261303931654
479.01724099999996,,1.5317397621944574e-10,478.954,0.49799999594688416,-2.5168213843368656
479.482759,,1.499475729335941e-10,479.416,0.4950000047683716,-2.523249462956272
479.948276,,1.4604738793073212e-10,479.879,0.49300000071525574,-2.5274473276204836
480.413793,,1.4145822319445285e-10,480.349,0.49900001287460327,-2.5141693535045877
480.87931000000003,,1.3616667999519646e-10,480.809,0.47600001096725464,-2.5640322616014846
481.344828,,1.3016128435267588e-10,481.279,0.49900001287460327,-2.513645241411751
481.810345,,1.2343261105655545e-10,481.745,0.48899999260902405,-2.5351299605602398
482.275862,,1.1597340574108424e-10,482.211,0.48899999260902405,-2.5348136277279596
482.74137900000005,,1.0777870449454244e-10,482.669,0.492000013589859,-2.527956620241812
483.206897,,9.884595047072471e-11,483.134,0.4869999885559082,-2.5385340348667254
483.672414,,8.917510695736057e-11,483.6,0.4880000054836273,-2.5360543550003847
484.13793100000004,,7.876876634545862e-11,484.064,0.47600001096725464,-2.5619214878954053
484.603448,,6.763225443415827e-11,484.53,0.4880000054836273,-2.5355340182030917
485.068966,,5.577372949787886e-11,484.994,0.47099998593330383,-2.5723678170689017
485.534483,,4.320427553646869e-11,485.46,0.492000013589859,-2.5264593637133843
486.0,,2.9937989124770836e-11,485.931,0.5009999871253967,-2.506745347869341
486.46551700000003,,1.5992059275631874e-11,486.393,0.492000013589859,-2.5262999632235092
486.931034,,1.3868397299743706e-12,486.854,0.4830000102519989,-2.5459095246567207
487.396552,,1.3854086910779078e-11,487.324,0.49000000953674316,-2.5307157649115566
487.862069,,2.970385379081924e-11,487.787,0.48399999737739563,-2.5438976991465028
488.327586,,4.613226371943155e-11,488.249,0.4860000014305115,-2.5397002062687886
488.79310300000003,,6.310575297030672e-11,488.715,0.503000020980835,-2.502867466620285
489.258621,,8.058736551639274e-11,489.179,0.47600001096725464,-2.561933377723767
489.724138,,9.85367382428059e-11,489.644,0.49000000953674316,-2.531705627851942
490.189655,,1.1691009766462053e-10,490.11,0.46399998664855957,-2.5886469340188505
490.655172,,1.3566026865810368e-10,490.575,0.4830000102519989,-2.547563213364741
491.12069,,1.5473669569310682e-10,491.043,0.492000013589859,-2.5282703805514677
491.586207,,1.7408547703083306e-10,491.509,0.4830000102519989,-2.5481874041312924
492.05172400000004,,1.9364941232503573e-10,491.972,0.503000020980835,-2.5049080483089745
492.517241,,2.1336806403585084e-10,492.434,0.4959999918937683,-2.5204273737982885
492.982759,,2.331778330339074e-10,492.905,0.44699999690055847,-2.6274175989160646
493.448276,,2.530120487380922e-10,493.368,0.4860000014305115,-2.5426484717057782
493.913793,,2.7280107409337377e-10,493.831,0.47200000286102295,-2.5733032488371013
494.37931000000003,,2.924724256554324e-10,494.294,0.49900001287460327,-2.5145835003913435
494.844828,,3.119509090065182e-10,494.759,0.48100000619888306,-2.553849567207442
495.310345,,3.311587696820087e-10,495.229,0.49900001287460327,-2.51462913848504
495.775862,,3.5001585973960474e-10,495.695,0.48100000619888306,-2.553785231567855
496.241379,,3.684398200530492e-10,496.16,0.4959999918937683,-2.52099300132611
496.70689699999997,,3.86346278359743e-10,496.619,0.4830000102519989,-2.549153521233987
497.172414,,4.036490630367528e-10,497.084,0.4950000047683716,-2.522803543352246
497.637931,,4.2026043252254493e-10,497.549,0.4880000054836273,-2.537809912723969
498.103448,,4.360913202424438e-10,498.016,0.515999972820282,-2.4765327571345472
498.568966,,4.51051594834423e-10,498.482,0.49000000953674316,-2.5328797520377555
499.03448299999997,,4.6505033540852e-10,498.95,0.47999998927116394,-2.554355627886858
499.5,,4.779961215080665e-10,499.412,0.47600001096725464,-2.5627572565579086
499.96551700000003,,4.897973373741915e-10,499.879,0.4860000014305115,-2.540665453317912
500.431034,,5.003624900468669e-10,500.342,0.47999998927116394,-2.553448875174198
500.89655200000004,,5.096005407662896e-10,500.805,0.49900001287460327,-2.5117913801684133
501.362069,,5.174212490678357e-10,501.275,0.492000013589859,-2.52681181375161
501.827586,,5.237355288923705e-10,501.734,0.49000000953674316,-2.5309790032654735
502.293103,,5.284558159615844e-10,502.201,0.4690000116825104,-2.576586916393221
502.758621,,5.314964455954721e-10,502.667,0.4729999899864197,-2.5677801611921507
503.224138,,5.32774040076312e-10,503.132,0.46700000762939453,-2.580814412849049
503.68965499999996,,5.322079045907992e-10,503.598,0.47600001096725464,-2.561224543229029
504.15517200000005,,5.2972043070959e-10,504.064,0.48500001430511475,-2.5416891170129605
504.62068999999997,,5.252375062917046e-10,504.53,0.503000020980835,-2.5025969910702095
505.08620699999994,,5.186889306302846e-10,504.994,0.4880000054836273,-2.53544690710526
505.55172400000004,,5.100088335864122e-10,505.46,0.49799999594688416,-2.5138717587249046
506.017241,,4.991360973893517e-10,505.92,0.5090000033378601,-2.490152145215942
506.48275899999993,,4.860147797149983e-10,506.39,0.4860000014305115,-2.5405330132272996
506.948276,,4.70594536589803e-10,506.85,0.5049999952316284,-2.4994288855929168
507.413793,,4.5283104360532973e-10,507.321,0.49399998784065247,-2.523693489410313
507.87931,,4.3268641386919565e-10,507.78,0.4090000092983246,-2.709179794744025
508.344828,,4.101296110617944e-10,508.244,0.4830000102519989,-2.548255405157242
508.810345,,3.8513685591521985e-10,508.71,0.48899999260902405,-2.535463285789912
509.27586199999996,,3.5769202438154514e-10,509.175,0.5009999871253967,-2.5095728428785735
509.74137900000005,,3.2778703571239326e-10,509.641,0.47200000286102295,-2.5729727406905876
510.20689699999997,,2.954222286309046e-10,510.105,0.47200000286102295,-2.5731517456454482
510.67241399999995,,2.6060672374109375e-10,510.571,0.4729999899864197,-2.5711070671875293
511.13793100000004,,2.233587702885278e-10,511.035,0.47999998927116394,-2.5559411277451516
511.603448,,1.83706075360576e-10,511.501,0.4819999933242798,-2.55161617114493
512.0689659999999,,1.4168611359450856e-10,511.968,0.47999998927116394,-2.5559524226244967
512.534483,,9.734641544776757e-11,512.431,0.4880000054836273,-2.5384492848862186
513.0,,5.0744832077113307e-11,512.894,0.4880000054836273,-2.5383245657340607
513.465517,,1.9497748723607034e-12,513.364,0.5199999809265137,-2.4684354529303194
513.931034,,4.8959572303643866e-11,513.827,0.49900001287460327,-2.5139715448643094
514.396552,,1.0189307010401999e-10,514.29,0.5809999704360962,-2.3350692823658554
514.862069,,1.567494718304388e-10,514.756,0.3610000014305115,-2.814090755896009
515.327586,,2.1341630459559688e-10,515.219,0.48399999737739563,-2.545820774614791
515.793103,,2.7176978536561865e-10,515.685,0.5130000114440918,-2.482337225463245
516.258621,,3.3167477368800824e-10,516.149,0.4819999933242798,-2.5495727907639707
516.724138,,3.929847628579971e-10,516.615,0.47600001096725464,-2.562352316645218
517.189655,,4.555419112148334e-10,517.082,0.4860000014305115,-2.5402935206429285
517.655172,,5.191771151895827e-10,517.548,0.47600001096725464,-2.5618360697770086
518.1206900000001,,5.837101256472298e-10,518.012,0.4620000123977661,-2.592129641861735
518.5862070000001,,6.489497089781944e-10,518.478,0.49399998784065247,-2.5222483125704103
519.051724,,7.146938542977191e-10,518.946,0.5120000243186951,-2.482914590187393
519.517241,,7.807300280059208e-10,519.408,0.4950000047683716,-2.5198829742697497
519.982759,,8.468354768465978e-10,519.871,0.49799999594688416,-2.513329915931208
520.448276,,9.127775804791758e-10,520.334,0.48100000619888306,-2.5504023750596456
520.9137929999999,,9.783142544455176e-10,520.805,0.47600001096725464,-2.5613831658168094
521.37931,,1.043194404271779e-09,521.268,0.5040000081062317,-2.5005178789882523
521.844828,,1.107158431295205e-09,521.733,0.48399999737739563,-2.544272225832879
522.310345,,1.169938790646879e-09,522.197,0.4860000014305115,-2.540135229182149
522.7758620000001,,1.2312606016541618e-09,522.664,0.49000000953674316,-2.531673250676341
523.241379,,1.2908423107511116e-09,523.131,0.5049999952316284,-2.4992701662649615
523.7068969999999,,1.3483964068018426e-09,523.589,0.4970000088214874,-2.516990854491976
524.172414,,1.4036301885508621e-09,524.061,0.49900001287460327,-2.5129309203451125
524.637931,,1.456246583716288e-09,524.519,0.5019999742507935,-2.506689113597955
525.103448,,1.5059450190368765e-09,524.987,0.49000000953674316,-2.5331145894719684
525.568966,,1.5524223403724263e-09,525.452,0.4880000054836273,-2.537733144267609
526.034483,,1.5953737817398298e-09,525.92,0.5040000081062317,-2.5031074792974177
526.5,,1.6344939819443558e-09,526.382,0.515999972820282,-2.4771600761285604
526.9655170000001,,1.6694780472382275e-09,526.846,0.5009999871253967,-2.5099932488149657
527.4310340000001,,1.7000226582067907e-09,527.316,0.5170000195503235,-2.4752408492451425
527.8965519999999,,1.725827218847202e-09,527.774,0.5149999856948853,-2.479653494910361
528.362069,,1.7465950455662991e-09,528.245,0.5149999856948853,-2.4796562659956
528.827586,,1.7620345935838563e-09,528.711,0.515999972820282,-2.477428098441708
529.293103,,1.7718607179855466e-09,529.176,0.5210000276565552,-2.4664345502159173
529.7586210000001,,1.775795966427417e-09,529.634,0.5109999775886536,-2.4880737149992953
530.224138,,1.7735719002513886e-09,530.105,0.5049999952316284,-2.5009561492964223
530.689655,,1.7649304405300823e-09,530.57,0.49000000953674316,-2.533411305840161
531.155172,,1.7496252353200493e-09,531.036,0.5339999794960022,-2.437298193948982
531.62069,,1.7274230441662067e-09,531.494,0.4779999852180481,-2.5590295952332585
532.086207,,1.6981051356678824e-09,531.964,0.5130000114440918,-2.482492788958599
532.5517239999999,,1.6614686936893782e-09,532.427,0.5320000052452087,-2.440811659338463
533.017241,,1.6173282275763927e-09,532.89,0.5299999713897705,-2.4448870730853964
533.482759,,1.5655169815250336e-09,533.36,0.5210000276565552,-2.4642263677948226
533.9482760000001,,1.505888338043565e-09,533.821,0.5820000171661377,-2.3310814987909048
534.413793,,1.4383172102495697e-09,534.29,0.5149999856948853,-2.4768317870869754
534.87931,,1.3627014175579498e-09,534.756,0.5460000038146973,-2.4091100349732137
535.344828,,1.278963039139244e-09,535.218,0.5379999876022339,-2.426397420546383
535.810345,,1.1870497393642406e-09,535.684,0.5299999713897705,-2.4437309340204987
536.275862,,1.0869360593009093e-09,536.149,0.5540000200271606,-2.391396747236739
536.7413789999999,,9.78624668194394e-10,536.615,0.5440000295639038,-2.413186939435698
537.206897,,8.621475687413261e-10,537.08,0.5529999732971191,-2.393632935124484
537.672414,,7.375672498671232e-10,537.545,0.6100000143051147,-2.2695508238389444
538.137931,,6.049777806303393e-10,538.005,0.5630000233650208,-2.3720912218082706
538.6034480000001,,4.645058388126099e-10,538.471,0.5690000057220459,-2.3592025873196496
539.0689659999999,,3.1631166770733096e-10,538.935,0.5690000057220459,-2.359420443324137
539.5344829999999,,1.6058995459597562e-10,539.404,0.5540000200271606,-2.3923464248862643
540.0,,2.4293756011256464e-12,539.865,0.6079999804496765,-2.274966444941582
540.465517,,1.7248045799167205e-10,540.334,0.5630000233650208,-2.37328450243751
540.931034,,3.492608831429824e-10,540.798,0.6039999723434448,-2.2842425567455056
541.396552,,5.324311966553036e-10,541.26,0.5839999914169312,-2.3280930542185576
541.862069,,7.216145091580805e-10,541.726,0.5879999995231628,-2.319642744908366
542.327586,,9.163962228881345e-10,542.191,0.5540000200271606,-2.3939609532412875
542.7931030000001,,1.11632388085917e-09,542.656,0.597000002861023,-2.3004963686805815
543.258621,,1.3209071444546176e-09,543.123,0.5929999947547913,-2.3093941219061533
543.7241379999999,,1.529617905069971e-09,543.59,0.6060000061988831,-2.2812143780727596
544.189655,,1.741890535195978e-09,544.054,0.6019999980926514,-2.2900268186891917
544.655172,,1.9571222840698926e-09,544.519,0.628000020980835,-2.233431463445174
545.12069,,2.174673822728159e-09,544.987,0.6019999980926514,-2.290076006642484
545.5862070000001,,2.3938699429701407e-09,545.445,0.6330000162124634,-2.222487634879629
546.051724,,2.6140004143887034e-09,545.913,0.6100000143051147,-2.272498067597246
546.517241,,2.8343210032395657e-09,546.375,0.6340000033378601,-2.2200667852506926
546.982759,,3.0540546565074043e-09,546.839,0.6029999852180481,-2.287420748519244
547.448276,,3.2723928540829223e-09,547.308,0.6050000190734863,-2.282845227608933
547.9137929999999,,3.4884971314917755e-09,547.774,0.6579999923706055,-2.1671311603439913
548.3793099999999,,3.70150077511379e-09,548.238,0.6000000238418579,-2.2932262130044836
548.844828,,3.910510691299838e-09,548.704,0.5929999947547913,-2.3081990877354186
549.310345,,4.114609450234699e-09,549.164,0.6359999775886536,-2.2142374267520957
549.775862,,4.3128575048080605e-09,549.63,0.5920000076293945,-2.3098240519605686
550.241379,,4.504295584143371e-09,550.095,0.6019999980926514,-2.2877786392057566
550.706897,,4.687947260796604e-09,550.561,0.6740000247955322,-2.130678786504912
551.172414,,4.862821689975338e-09,551.027,0.6290000081062317,-2.2285079930764855
551.637931,,5.027916518444223e-09,551.493,0.6079999804496765,-2.2740837190541865
552.103448,,5.182220960077275e-09,551.954,0.6710000038146973,-2.136692634722009
552.568966,,5.324719034292252e-09,552.423,0.6060000061988831,-2.2782118801459603
553.034483,,5.454392962859192e-09,552.887,0.6190000176429749,-2.2498434455482594
553.5,,5.5702267198160445e-09,553.349,0.5879999995231628,-2.3173852747795274
553.965517,,5.671209728451184e-09,553.817,0.6159999966621399,-2.2564365743697876
554.4310340000001,,5.756340698527506e-09,554.279,0.5540000200271606,-2.3916149528246655
554.896552,,5.824631596128237e-09,554.745,0.6370000243186951,-2.2109348260764317
555.3620689999999,,5.875111737702794e-09,555.211,0.6010000109672546,-2.289553501871601
555.827586,,5.90683199908464e-09,555.677,0.6209999918937683,-2.246200708081755
556.293103,,5.918869129444789e-09,556.142,0.6209999918937683,-2.2464466053185514
556.758621,,5.910330159337109e-09,556.607,0.5820000171661377,-2.3316780456993556
557.224138,,5.880356891187966e-09,557.073,0.6019999980926514,-2.288380268167271
557.689655,,5.828130459785812e-09,557.538,0.5809999704360962,-2.3344097763015634
558.155172,,5.752875949539404e-09,558.005,0.6240000128746033,-2.2409990283653016
558.6206900000001,,5.65386705449961e-09,558.464,0.6439999938011169,-2.1976806102447575
559.0862070000001,,5.530430766382439e-09,558.932,0.5799999833106995,-2.3373435969336214
559.5517239999999,,5.381952075093636e-09,559.394,0.5929999947547913,-2.309220033978543
560.017241,,5.207878665541179e-09,559.864,0.5849999785423279,-2.3268123105796548
560.482759,,5.007725593835066e-09,560.327,0.5979999899864197,-2.298611758115696
560.948276,,4.781079925317329e-09,560.795,0.5809999704360962,-2.335725781384384
561.413793,,4.527605316243002e-09,561.258,0.6159999966621399,-2.2595022978785044
561.87931,,4.247046520348502e-09,561.723,0.5929999947547913,-2.309591399176959
562.344828,,3.9392338010012374e-09,562.19,0.6079999804496765,-2.276843277375241
562.8103450000001,,3.604087229127002e-09,562.649,0.5979999899864197,-2.298514977957441
563.275862,,3.2416208466635518e-09,563.121,0.5669999718666077,-2.365896320720862
563.7413789999999,,2.8519466748934447e-09,563.579,0.5669999718666077,-2.36570373211497
564.206897,,2.435278546670406e-09,564.046,0.515999972820282,-2.4765940327887033
564.672414,,1.9919357412748376e-09,564.511,0.5809999704360962,-2.334740307547312
565.137931,,1.522346400419194e-09,564.983,0.5189999938011169,-2.469561288346343
565.603448,,1.0270507037763325e-09,565.442,0.5320000052452087,-2.4409784517047224
566.068966,,5.067037823270431e-10,565.909,0.5410000085830688,-2.4211133170905135
566.534483,,3.7921652179912734e-11,566.371,0.5239999890327454,-2.4579034652872243
567.0,,6.059329832875528e-10,566.835,0.5419999957084656,-2.4184584309519233
567.465517,,1.1963156928878359e-09,567.304,0.527999997138977,-2.448754179461866
567.931034,,1.8079317125159422e-09,567.77,0.527999997138977,-2.4485787151273883
568.396552,,2.4395181437974847e-09,568.233,0.527999997138977,-2.448438109154645
568.862069,,3.0896863685520403e-09,568.698,0.5059999823570251,-2.496266703474145
569.327586,,3.756921568553067e-09,569.164,0.515999972820282,-2.4744204236451397
569.793103,,4.43958267434795e-09,569.63,0.515999972820282,-2.4744036476448983
570.2586210000001,,5.135902761850663e-09,570.09,0.5130000114440918,-2.4809653946022974
570.724138,,5.843989914631725e-09,570.556,0.5120000243186951,-2.4832111610385477
571.189655,,6.561828568944439e-09,571.021,0.5189999938011169,-2.4680663003692285
571.655172,,7.2872813575416824e-09,571.486,0.5299999713897705,-2.444240981287296
572.12069,,8.018091467253116e-09,571.949,0.503000020980835,-2.503233475635161
572.586207,,8.751885524108034e-09,572.419,0.5180000066757202,-2.470747058176816
573.051724,,9.486177018504177e-09,572.879,0.4950000047683716,-2.5210676381350456
573.517241,,1.021837028153783e-08,573.349,0.5019999742507935,-2.506040913249046
573.982759,,1.0945765022126129e-08,573.809,0.4970000088214874,-2.5171632466713905
574.4482760000001,,1.1665561432969703e-08,574.279,0.503000020980835,-2.5043188084638643
574.913793,,1.2374865871723888e-08,574.745,0.5009999871253967,-2.50889500864753
575.37931,,1.3070697121971642e-08,575.204,0.49399998784065247,-2.5243492956657145
575.844828,,1.3749993236723094e-08,575.669,0.5009999871253967,-2.5092816091701406
576.310345,,1.4409618965208144e-08,576.135,0.4959999918937683,-2.520331520457651
576.775862,,1.5046373761682633e-08,576.6,0.5070000290870667,-2.496492253538239
577.241379,,1.565700037283899e-08,577.065,0.46799999475479126,-2.581551903021593
577.706897,,1.6238193998202747e-08,577.531,0.48899999260902405,-2.535857354769737
578.172414,,1.6786612015611408e-08,577.998,0.4959999918937683,-2.5206272687553875
578.6379310000001,,1.729888426151685e-08,578.463,0.48500001430511475,-2.5445755836641446
579.1034480000001,,1.777162385343176e-08,578.924,0.48899999260902405,-2.5358081814089086
579.5689659999999,,1.8201438539360798e-08,579.393,0.46799999475479126,-2.5814733494520703
580.034483,,1.858494255652421e-08,579.854,0.5009999871253967,-2.5094609449147858
580.5,,1.8918768979102263e-08,580.323,0.503000020980835,-2.504959000262683
580.965517,,1.9199582532110507e-08,580.791,0.48500001430511475,-2.5440068168942482
581.431034,,1.9424092845865847e-08,581.253,0.4790000021457672,-2.5568935650240965
581.896552,,1.9589068122830087e-08,581.719,0.4860000014305115,-2.541446710412579
582.362069,,1.969134918592935e-08,582.184,0.45899999141693115,-2.6000691333224757
582.827586,,1.9727863874753572e-08,582.649,0.47999998927116394,-2.554118051003567
583.2931030000001,,1.9695641753349434e-08,583.109,0.4790000021457672,-2.5561044728197873
583.758621,,1.9591829090642365e-08,583.575,0.48500001430511475,-2.5428526559901186
584.2241379999999,,1.9413704071868783e-08,584.039,0.49799999594688416,-2.5143672837053535
584.689655,,1.9158692196778956e-08,584.505,0.48500001430511475,-2.542547780778801
585.155172,,1.8824381817794597e-08,584.975,0.48100000619888306,-2.5511457132786517
585.6206900000001,,1.8408539768784618e-08,585.438,0.4970000088214874,-2.516198999744204
586.0862070000001,,1.7909127032668746e-08,585.905,0.46399998664855957,-2.5880367865224736
586.551724,,1.732431439368358e-08,586.368,0.4880000054836273,-2.5357238483678177
587.017241,,1.6652498017861092e-08,586.831,0.46700000762939453,-2.5814829196678906
587.482759,,1.5892314903087555e-08,587.294,0.49000000953674316,-2.5314133860224866
587.948276,,1.504265813804348e-08,587.76,0.4729999899864197,-2.5685200413175737
588.4137929999999,,1.410269190738487e-08,588.23,0.48500001430511475,-2.5424734247332186
588.87931,,1.3071866178725313e-08,588.696,0.4699999988079071,-2.575274948395926
589.344828,,1.1949931005329474e-08,589.154,0.4569999873638153,-2.603740316247354
589.810345,,1.0736950376944077e-08,589.619,0.48100000619888306,-2.5516125325913666
590.2758620000001,,9.433315549884542e-09,590.086,0.45399999618530273,-2.610607720167397
590.741379,,8.039757786376676e-09,590.552,0.47600001096725464,-2.5628557046817173
591.2068969999999,,6.557360432235193e-09,591.016,0.4729999899864197,-2.5695709781484086
591.672414,,4.987570261256314e-09,591.482,0.4790000021457672,-2.5566735247850385
592.137931,,3.332208014222067e-09,591.95,0.48100000619888306,-2.552480515490777
592.603448,,1.5934780601705198e-09,592.412,0.46399998664855957,-2.58966709100575
593.068966,,2.2602289240982333e-10,592.88,0.46399998664855957,-2.589798140488512
593.534483,,2.1232981065412666e-09,593.342,0.4659999907016754,-2.5855500790376515
594.0,,4.094944221423414e-09,593.805,0.4869999885559082,-2.5398824754904274
594.4655170000001,,6.137145821546383e-09,594.275,0.47600001096725464,-2.563903601483366
594.9310340000001,,8.245671239897086e-09,594.734,0.4880000054836273,-2.5377863849564473
595.3965519999999,,1.0415869663514235e-08,595.205,0.46399998664855957,-2.590070953050357
595.862069,,1.264266960795373e-08,595.67,0.48100000619888306,-2.5530021105868927
596.327586,,1.4920578825221604e-08,596.135,0.4690000116825104,-2.5790868633218103
596.793103,,1.7243685707410664e-08,596.601,0.49000000953674316,-2.5332508852902658
597.2586210000001,,1.9605662245633905e-08,597.06,0.47999998927116394,-2.5549303101984653
597.724138,,2.199976860087797e-08,597.526,0.47600001096725464,-2.563518626917354
598.189655,,2.4418859340100222e-08,597.99,0.46399998664855957,-2.5895217919293327
598.655172,,2.6855391387260608e-08,598.456,0.5,-2.510939595348706
599.12069,,2.9301433735013294e-08,598.924,0.4690000116825104,-2.57832095296561
599.586207,,3.174867895848244e-08,599.386,0.47200000286102295,-2.5716275858740216
600.0517239999999,,3.4188456567912504e-08,599.849,0.48899999260902405,-2.534437351940472
600.517241,,3.661174823201835e-08,600.319,0.46700000762939453,-2.582222876526486
600.982759,,3.900920489856713e-08,600.79,0.4729999899864197,-2.569019402185787
601.448276,,4.137116583310803e-08,601.245,0.4779999852180481,-2.558011497937355
601.913793,,4.368767959083234e-08,601.711,0.4699999988079071,-2.5753459524435653
602.37931,,4.5948526930303596e-08,602.179,0.47999998927116394,-2.553487242417337
602.844828,,4.8143245671253446e-08,602.645,0.4860000014305115,-2.5403669821800277
603.310345,,5.026115749180504e-08,603.11,0.4779999852180481,-2.5577725271966667
603.775862,,5.22913966533728e-08,603.576,0.47200000286102295,-2.57084591737255
604.2413789999999,,5.422294063410938e-08,604.035,0.4740000069141388,-2.5665151989889448
604.706897,,5.6044642644142e-08,604.5,0.4779999852180481,-2.5578510057295207
605.172414,,5.7745265987977734e-08,604.968,0.48100000619888306,-2.551386943218247
605.637931,,5.9313520231378435e-08,605.43,0.4749999940395355,-2.5645497327217726
606.1034480000001,,6.073809912173053e-08,605.894,0.4650000035762787,-2.586443281054085
606.5689659999999,,6.200772020248354e-08,606.364,0.48899999260902405,-2.5342755279495393
607.0344829999999,,6.311116605362693e-08,606.827,0.47600001096725464,-2.562726152175458
607.5,,6.403732708144117e-08,607.29,0.47699999809265137,-2.5606801781939184
607.965517,,6.477524577192165e-08,607.755,0.47999998927116394,-2.554277405989674
608.431034,,6.531416231336054e-08,608.226,0.4359999895095825,-2.6502683309505213
608.896552,,6.564356148460981e-08,608.684,0.4740000069141388,-2.567604208258409
609.362069,,6.575322069656849e-08,609.149,0.5080000162124634,-2.4936440494486747
609.827586,,6.563325906547058e-08,609.615,0.47200000286102295,-2.5721741694216784
610.293103,,6.527418738762805e-08,610.08,0.4729999899864197,-2.570077036533162
610.758621,,6.466695887644126e-08,610.545,0.4050000011920929,-2.7182892067692213
611.2241379999999,,6.380302051376102e-08,611.012,0.4650000035762787,-2.587616662402665
611.689655,,6.267436485910898e-08,611.478,0.46799999475479126,-2.581107381166565
612.155172,,6.127358215187233e-08,611.946,0.4790000021457672,-2.557147120420391
612.62069,,5.9593912533423726e-08,612.408,0.48100000619888306,-2.552772570044711
613.0862070000001,,5.7629298208216304e-08,612.872,0.45500001311302185,-2.6093790506308374
613.551724,,5.537443535530645e-08,613.334,0.4880000054836273,-2.537425861772622
614.017241,,5.28248255945035e-08,613.802,0.47699999809265137,-2.561315294490663
614.4827590000001,,4.997682680447684e-08,614.264,0.4620000123977661,-2.593903928808003
614.948276,,4.682770308370777e-08,614.73,0.47999998927116394,-2.5545852635835424
615.4137929999999,,4.3375673639197336e-08,615.194,0.45500001311302185,-2.6089398136501187
615.8793099999999,,3.961996038237427e-08,615.659,0.4569999873638153,-2.6044663942382646
616.344828,,3.556083400672936e-08,616.125,0.47699999809265137,-2.5607762385404627
616.810345,,3.1199658317376395e-08,616.59,0.45899999141693115,-2.5998768894216426
617.275862,,2.6538932579045694e-08,617.058,0.46799999475479126,-2.580159611579703
617.741379,,2.1582331645995028e-08,617.523,0.4830000102519989,-2.547378920006141
618.206897,,1.6334743635013753e-08,617.99,0.46299999952316284,-2.5908620251810297
618.672414,,1.080230490113875e-08,618.449,0.46399998664855957,-2.5886074652848077
619.137931,,4.992432074932782e-09,618.918,0.46399998664855957,-2.5885478689632393
619.603448,,1.0861490797656166e-09,619.38,0.4569999873638153,-2.6037567802628065
620.068966,,7.4233782277912076e-09,619.85,0.4569999873638153,-2.6037343085601456
620.534483,,1.4007838682654625e-08,620.312,0.5920000076293945,-2.309611244410992
621.0,,2.0826739520208935e-08,620.779,0.44999998807907104,-2.6189886812155434
621.465517,,2.7865901817888378e-08,621.244,0.46399998664855957,-2.5885134503938914
621.9310340000001,,3.510974924673863e-08,621.709,0.44699999690055847,-2.6255945380491683
622.396552,,4.254130323775689e-08,622.175,0.4659999907016754,-2.58426108908801
622.862069,,5.014218293732327e-08,622.634,0.46399998664855957,-2.5886937659422786
623.327586,,5.789261015871171e-08,623.105,0.4690000116825104,-2.5778875797673733
623.793103,,6.577141952780089e-08,623.571,0.5080000162124634,-2.493015522933144
624.258621,,7.375607401114872e-08,624.035,0.4519999921321869,-2.615119957887857
624.724138,,8.182268600353676e-08,624.494,0.4519999921321869,-2.6152231181734082
625.189655,,8.994604413992484e-08,624.964,0.453000009059906,-2.613148705824596
625.655172,,9.809964598347648e-08,625.427,0.46700000762939453,-2.582749619221644
626.1206900000001,,1.062557367269221e-07,625.894,0.46299999952316284,-2.5915604709944264
626.5862070000001,,1.1438535402902275e-07,626.356,0.46399998664855957,-2.5894693568826854
627.0517239999999,,1.224583790912887e-07,626.824,0.45899999141693115,-2.600438939509108
627.5172409999999,,1.3044359406240778e-07,627.286,0.45399999618530273,-2.6113954053538317
627.982759,,1.3830874583906168e-07,627.752,0.4399999976158142,-2.6419453191468154
628.448276,,1.4602061631197708e-07,628.215,0.46000000834465027,-2.5984055627013705
628.913793,,1.5354509908519527e-07,628.681,0.4490000009536743,-2.6223871372505
629.37931,,1.6084728267468112e-07,629.146,0.4429999887943268,-2.6354582933817166
629.844828,,1.6789154016956316e-07,629.611,0.4699999988079071,-2.5766167105392164
630.3103450000001,,1.7464162531554082e-07,630.075,0.4410000145435333,-2.6397623379595863
630.7758620000001,,1.8106077495535757e-07,630.541,0.45899999141693115,-2.6004956321684496
631.2413789999999,,1.8711181773576933e-07,631.009,0.46399998664855957,-2.5895366482237017
631.706897,,1.927572889641904e-07,631.475,0.4860000014305115,-2.54152685710195
632.172414,,1.9795955147123648e-07,631.935,0.46399998664855957,-2.5893657860342074
632.637931,,2.0268092230776838e-07,632.405,0.46399998664855957,-2.589265619653478
633.103448,,2.0688380507684317e-07,632.865,0.45899999141693115,-2.6000534280348613
633.568966,,2.1053082767227404e-07,633.335,0.4410000145435333,-2.639162086124164
634.034483,,2.135849851663711e-07,633.798,0.45100000500679016,-2.6172708977202617
634.5,,2.1600978755996555e-07,634.26,0.4390000104904175,-2.643315552423187
634.9655170000001,,2.1776941207809901e-07,634.726,0.4620000123977661,-2.593115867584342
635.431034,,2.1882885966488425e-07,635.191,0.45100000500679016,-2.617000904026676
635.8965519999999,,2.191541153011119e-07,635.656,0.44699999690055847,-2.625648435973574
636.362069,,2.1871231173829655e-07,636.124,0.45399999618530273,-2.6103460317752765
636.827586,,2.174718962131314e-07,636.59,0.4519999921321869,-2.614668042468494
637.293103,,2.1540279967686665e-07,637.05,0.45100000500679016,-2.616828885556475
637.7586210000001,,2.1247660804505957e-07,637.515,0.4429999887943268,-2.6342585441969235
638.224138,,2.0866673494458582e-07,637.987,0.453000009059906,-2.612490688871336
638.689655,,2.0394859540687242e-07,638.445,0.44699999690055847,-2.6255987910274414
639.155172,,1.9829977992914166e-07,638.909,0.47699999809265137,-2.5602913016609286
639.62069,,1.917002282991733e-07,639.379,0.4410000145435333,-2.6387884798340497
640.086207,,1.8413240255382738e-07,639.842,0.4410000145435333,-2.63886694664124
640.551724,,1.7558145841746128e-07,640.305,0.4659999907016754,-2.5844896840032363
641.017241,,1.66035414543552e-07,640.771,0.43799999356269836,-2.645588118774566
641.482759,,1.5548531886144122e-07,641.234,0.43799999356269836,-2.645689405674661
641.9482760000001,,1.4392541131028897e-07,641.699,0.45899999141693115,-2.600041164740749
642.413793,,1.3135328222419458e-07,642.164,0.46799999475479126,-2.5805347295985626
642.87931,,1.1777002561615489e-07,642.63,0.4410000145435333,-2.6394543928255976
643.344828,,1.0318038659422012e-07,643.095,0.45500001311302185,-2.609041968704783
643.810345,,8.759290213101245e-08,643.56,0.44600000977516174,-2.628728497257497
644.275862,,7.102003439782638e-08,644.027,0.4790000021457672,-2.556898928498344
644.7413789999999,,5.347829586696546e-08,644.493,0.4440000057220459,-2.633202325686272
645.206897,,3.4988365380917356e-08,644.961,0.4519999921321869,-2.6158078023264064
645.672414,,1.5575194384554528e-08,645.423,0.45500001311302185,-2.609289775622578
646.1379310000001,,4.73189748310592e-09,645.891,0.4399999976158142,-2.641970425364023
646.6034480000001,,2.5899138237825117e-08,646.353,0.4429999887943268,-2.6354188052032734
647.0689659999999,,4.788823163377361e-08,646.821,0.46000000834465027,-2.5983498622777494
647.534483,,7.06562982665817e-08,647.283,0.4659999907016754,-2.585230179538242
648.0,,9.415583046800585e-08,647.748,0.4359999895095825,-2.6505273818598476
648.465517,,1.1833466174860143e-07,648.212,0.46399998664855957,-2.589450891015266
648.931034,,1.4313595152560737e-07,648.678,0.4480000138282776,-2.6242249441683714
649.396552,,1.6849818585060673e-07,649.143,0.45100000500679016,-2.6175973589981836
649.862069,,1.943551948253611e-07,649.609,0.46000000834465027,-2.597893254464117
650.327586,,2.2063618736446725e-07,650.075,0.45899999141693115,-2.599973604926639
650.7931030000001,,2.4726580393010283e-07,650.54,0.44999998807907104,-2.619484024130354
651.258621,,2.741641878270765e-07,651.006,0.45899999141693115,-2.59978275146395
651.7241379999999,,3.0124707560564746e-07,651.464,0.453000009059906,-2.6127679279987794
652.189655,,3.284259070751205e-07,651.935,0.45100000500679016,-2.6170479696974493
652.655172,,3.556079553830487e-07,652.397,0.4480000138282776,-2.6235185783161468
653.12069,,3.826964775630035e-07,652.865,0.45100000500679016,-2.6169312836488285
653.5862070000001,,4.0959088589831956e-07,653.327,0.453000009059906,-2.612537949981526
654.051724,,4.361869403900331e-07,653.79,0.46399998664855957,-2.588552842334418
654.517241,,4.623769625544613e-07,654.26,0.46399998664855957,-2.588548919488939
654.982759,,4.880500707095835e-07,654.726,0.45899999141693115,-2.599454275147607
655.448276,,5.130924368396697e-07,655.184,0.4519999921321869,-2.614732901620395
655.9137929999999,,5.373875650545545e-07,655.649,0.4560000002384186,-2.606061752186702
656.37931,,5.608165915836969e-07,656.116,0.44699999690055847,-2.625727281382391
656.844828,,5.832586061658258e-07,656.582,0.4650000035762787,-2.5865816557695407
657.310345,,6.045909946127021e-07,657.047,0.4490000009536743,-2.621520205088338
657.7758620000001,,6.246898022404943e-07,657.513,0.45500001311302185,-2.608536265887624
658.241379,,6.434301177746542e-07,657.976,0.4790000021457672,-2.5563415127316858
658.7068969999999,,6.606864772441825e-07,658.445,0.3799999952316284,-2.772123507799731
659.172414,,6.763332872890251e-07,658.909,0.4740000069141388,-2.5674276942881074
659.637931,,6.90245267210259e-07,659.371,0.46299999952316284,-2.5914872116806187
660.103448,,7.022979089969713e-07,659.839,0.46399998664855957,-2.5893958229223166
660.568966,,7.123679544665841e-07,660.301,0.46399998664855957,-2.589473457272215
661.034483,,7.20333888557093e-07,660.767,0.4519999921321869,-2.61568315550941
661.5,,7.26076447710596e-07,661.23,0.4729999899864197,-2.569983837786325
661.965517,,7.294791421878971e-07,661.695,0.45399999618530273,-2.6114151372771173
662.4310340000001,,7.304287910542043e-07,662.161,0.46299999952316284,-2.5918280420750937
662.8965519999999,,7.28816068476369e-07,662.626,0.45100000500679016,-2.6179760625817625
663.362069,,7.245360598730793e-07,663.091,0.4560000002384186,-2.607070709468261
663.827586,,7.174888263613077e-07,663.557,0.46299999952316284,-2.5917920536231884
664.293103,,7.075799758455169e-07,664.024,0.4659999907016754,-2.5852125410936666
664.7586210000001,,6.947212390010382e-07,664.49,0.4690000116825104,-2.5786186002169864
665.224138,,6.788310483100786e-07,664.953,0.45899999141693115,-2.6003346956536135
665.689655,,6.598351182183988e-07,665.415,0.45899999141693115,-2.600254313846576
666.155172,,6.376670243932755e-07,665.883,0.47999998927116394,-2.554414687537933
666.62069,,6.122687799793492e-07,666.345,0.4659999907016754,-2.5848223978129092
667.086207,,5.835914066688212e-07,666.809,0.46399998664855957,-2.589084049606133
667.5517239999999,,5.515954983266414e-07,667.279,0.4690000116825104,-2.578096058873498
668.017241,,5.162517748402903e-07,667.745,0.4650000035762787,-2.586719839326833
668.482759,,4.775416237979534e-07,668.204,0.4659999907016754,-2.58445711606109
668.948276,,4.3545762753878604e-07,668.669,0.49000000953674316,-2.5320943353042136
