Trial: ,49
Threshold: ,0.0
Maximum EMG: ,0.0
Success: ,True

EMG Time,Raw EMG,Filtered EMG,Force Time,Raw Force (V),Filtered Force (N)
0.0,samples,0.0,0.466,0.49900001287460327,-2.5112419250611184
0.46551699999999996,time,0.0,0.932,0.5019999742507935,-2.504540117694456
0.9310339999999999,value,0.0,1.398,0.5080000162124634,-2.4913555440934143
1.396552,,0.0,1.865,0.5249999761581421,-2.4542619469920273
1.862069,,0.0,2.33,0.42500001192092896,-2.672128731540298
2.327586,,0.0,2.791,0.5120000243186951,-2.4826483034793143
2.793103,,0.0,3.26,0.4819999933242798,-2.5481271652795976
3.258621,,0.0,3.721,0.503000020980835,-2.5025473015118758
3.724138,,0.0,4.19,0.515999972820282,-2.4744434577062893
4.189654999999999,,0.0,4.649,0.44699999690055847,-2.6250290158287117
4.655172,,0.0,5.12,0.5049999952316284,-2.4989598188645985
5.12069,,0.0,5.585,0.5080000162124634,-2.492740047870247
5.586207,,0.0,6.05,0.5070000290870667,-2.495247858284229
6.051723999999999,,0.0,6.515,0.5,-2.510830789561088
6.517241,,0.0,6.979,0.515999972820282,-2.4762979294989473
6.982759,,0.0,7.445,0.49000000953674316,-2.533251666301562
7.448276,,0.0,7.91,0.5199999809265137,-2.468175633615978
7.913793000000001,,0.0,8.376,0.49000000953674316,-2.5337844908241247
8.379309999999998,,0.0,8.839,0.503000020980835,-2.5056706061409852
8.844828000000001,,0.0,9.302,0.5149999856948853,-2.479688482978392
9.310345,,0.0,9.765,0.5139999985694885,-2.4819764964421007
9.775862,,0.0,10.235,0.4970000088214874,-2.5190679052350413
10.241379,,0.0,10.698,0.5049999952316284,-2.5016373864817147
10.706897,,0.0,11.161,0.49799999594688416,-2.516831393196314
11.172414,,0.0,11.627,0.49799999594688416,-2.516721841882534
11.637931,,0.0,12.09,0.4950000047683716,-2.523099003655039
12.103447999999998,,0.0,12.555,0.515999972820282,-2.477144218635172
12.568966000000001,,0.0,13.021,0.4970000088214874,-2.5182967549075523
13.034483,,0.0,13.486,0.5210000276565552,-2.4657362189382575
13.5,,0.0,13.95,0.4909999966621399,-2.530800005828223
13.965517,,0.0,14.416,0.49399998784065247,-2.5239550554611436
14.431034,,0.0,14.883,0.5170000195503235,-2.4735330785913825
14.896552,,0.0,15.349,0.5180000066757202,-2.4710459352525285
15.362069,,0.0,15.809,0.49799999594688416,-2.51432394573656
15.827586000000002,,0.0,16.279,0.49900001287460327,-2.5118732193857185
16.293103,,0.0,16.742,0.5210000276565552,-2.463701730193441
16.758621,,0.0,17.205,0.5130000114440918,-2.480926976200998
17.224138,,0.0,17.673,0.515999972820282,-2.474230035481628
17.689655,,0.0,18.135,0.5049999952316284,-2.4980817937998916
18.155172,,0.0,18.601,0.515999972820282,-2.47405441866957
18.62069,,0.0,19.065,0.5070000290870667,-2.4936525017721998
19.086207,,0.0,19.53,0.515999972820282,-2.4740878121680856
19.551724,,0.0,19.994,0.48399999737739563,-2.543899161536501
20.017241000000002,,0.0,20.46,0.5080000162124634,-2.491755303058031
20.482758999999998,,0.0,20.925,0.5139999985694885,-2.478871425281671
20.948276,,0.0,21.391,0.5009999871253967,-2.5074198356857935
21.413793000000002,,0.0,21.857,0.5139999985694885,-2.4793544909000973
21.87931,,0.0,22.323,0.492000013589859,-2.5275653844480885
22.344828,,0.0,22.784,0.5139999985694885,-2.479930977008365
22.810344999999998,,0.0,23.254,0.5070000290870667,-2.49548330351163
23.275862,,0.0,23.716,0.515999972820282,-2.476174065403676
23.741379,,0.0,24.179,0.492000013589859,-2.528748014401119
24.206897,,0.0,24.645,0.5009999871253967,-2.509406716765452
24.672414,,0.0,25.11,0.503000020980835,-2.505288056384662
25.137931,,0.0,25.575,0.4880000054836273,-2.538171766441633
25.603448,,0.0,26.043,0.49900001287460327,-2.514370105150031
26.068966,,0.0,26.508,0.5109999775886536,-2.4883443148551465
26.534483,,0.0,26.973,0.5289999842643738,-2.4491965673798384
27.0,,0.0,27.439,0.5090000033378601,-2.492785088448526
27.465517,,0.0,27.905,0.5149999856948853,-2.4796764589457134
27.931034,,0.0,28.364,0.5049999952316284,-2.5013754637376904
28.396552,,0.0,28.831,0.5210000276565552,-2.466381654205805
28.862069,,0.0,29.294,0.49000000953674316,-2.533741036464916
29.327586,,0.0,29.765,0.4959999918937683,-2.520453284192209
29.793103000000002,,0.0,30.228,0.5019999742507935,-2.507135309347406
30.258620999999998,,0.0,30.691,0.5019999742507935,-2.506866132543054
30.724138,,0.0,31.161,0.49900001287460327,-2.5131178483685814
31.189655000000002,,0.0,31.619,0.48399999737739563,-2.5455074395690565
31.655172000000004,,0.0,32.09,0.4959999918937683,-2.519076505179397
32.12069,,0.0,32.556,0.5,-2.510086024968645
32.586207,,0.0,33.02,0.5059999823570251,-2.4967572167410346
33.051724,,0.0,33.486,0.5009999871253967,-2.507419714480701
33.517241000000006,,0.0,33.95,0.4869999885559082,-2.5377233042677254
33.982759,,0.0,34.415,0.503000020980835,-2.5027065760459055
34.448276,,0.0,34.88,0.492000013589859,-2.5265570222805374
34.913793,,0.0,35.345,0.49000000953674316,-2.5308464651221634
35.37931,,0.0,35.806,0.4950000047683716,-2.5199341216188995
35.844828,,0.0,36.276,0.5170000195503235,-2.472033149839388
36.310345,,0.0,36.739,0.4970000088214874,-2.515682233515839
36.775862,,0.0,37.201,0.5090000033378601,-2.4896588402884143
37.241378999999995,,0.0,37.665,0.4880000054836273,-2.5355716708073697
37.706897000000005,,0.0,38.134,0.44699999690055847,-2.6250946601480574
38.172414,,0.0,38.6,0.5,-2.509856586114939
38.637931,,0.0,39.064,0.515999972820282,-2.47525201357041
39.103448,,0.0,39.53,0.4749999940395355,-2.564845203909184
39.568965999999996,,0.0,39.995,0.49000000953674316,-2.5324417508768717
40.034483,,0.0,40.461,0.5049999952316284,-2.5000376854458475
40.5,,0.0,40.92,0.503000020980835,-2.504660847220463
40.965517,,0.0,41.385,0.49000000953674316,-2.5332316585886736
41.431034,,0.0,41.851,0.503000020980835,-2.50513294572023
41.896552,,0.0,42.316,0.492000013589859,-2.5292907070939648
42.362069000000005,,0.0,42.779,0.48899999260902405,-2.535982837443816
42.827586000000004,,0.0,43.249,0.503000020980835,-2.505596990363587
43.293103,,0.0,43.709,0.4779999852180481,-2.560134588965583
43.758621,,0.0,44.179,0.49799999594688416,-2.5165873002898826
44.224138,,0.0,44.645,0.492000013589859,-2.5296386398199107
44.689655,,0.0,45.11,0.4909999966621399,-2.5317513143517973
45.155172,,0.0,45.569,0.49900001287460327,-2.514212798533893
45.620689999999996,,0.0,46.036,0.5090000033378601,-2.4922767902775966
46.086206999999995,,0.0,46.501,0.503000020980835,-2.5051631306818436
46.551724,,0.0,46.969,0.49000000953674316,-2.533270127248904
47.017241,,0.0,47.435,0.49399998784065247,-2.524317300728878
47.482759,,0.0,47.894,0.5139999985694885,-2.4804901870465708
47.948276,,0.0,48.36,0.503000020980835,-2.504192423715529
48.413793,,0.0,48.828,0.5090000033378601,-2.4908568180393513
48.879310000000004,,0.0,49.29,0.5130000114440918,-2.481885406264453
49.344828,,0.0,49.761,0.4880000054836273,-2.5361097188953736
49.810345,,0.0,50.223,0.49000000953674316,-2.5315334040330675
50.275862,,0.0,50.684,0.49900001287460327,-2.5117361929775317
50.741379,,0.0,51.154,0.531000018119812,-2.4418642780104434
51.206897,,0.0,51.62,0.4180000126361847,-2.687936012188795
51.672414,,0.0,52.083,0.503000020980835,-2.5026799700565987
52.137931,,0.0,52.548,0.5009999871253967,-2.507012124870742
52.603448,,0.0,53.013,0.503000020980835,-2.5026740289549227
53.068966,,0.0,53.479,0.5090000033378601,-2.4896648814423985
53.534483,,0.0,53.939,0.5019999742507935,-2.5050193060079025
54.0,,0.0,54.405,0.503000020980835,-2.5029822129394197
54.465517,,0.0,54.869,0.5170000195503235,-2.4726559643281556
54.931034,,0.0,55.335,0.49000000953674316,-2.531682056077302
55.396552,,0.0,55.805,0.5170000195503235,-2.4730827771699677
55.862069,,0.0,56.267,0.5040000081062317,-2.5016441733226
56.327586,,0.0,56.735,0.5170000195503235,-2.4735678494003133
56.793102999999995,,0.0,57.198,0.49900001287460327,-2.5130296626856743
57.258621000000005,,0.0,57.661,0.4880000054836273,-2.5372342745129606
57.724138,,0.0,58.124,0.4909999966621399,-2.5309248110801215
58.189655,,0.0,58.589,0.5009999871253967,-2.509345107700448
58.655172,,0.0,59.056,0.5,-2.511704379598951
59.120689999999996,,0.0,59.521,0.5090000033378601,-2.4922455381071433
59.586207,,0.0,59.988,0.4880000054836273,-2.5381103736462185
60.051724,,0.0,60.453,0.4819999933242798,-2.5512572774506297
60.517241,,0.0,60.92,0.49900001287460327,-2.514255233615352
60.982758999999994,,0.0,61.379,0.48899999260902405,-2.5360356678818246
61.448276,,0.0,61.853,0.4740000069141388,-2.568668817843449
61.913793,,0.0,62.312,0.46399998664855957,-2.5903707887367697
62.379310000000004,,0.0,62.78,0.4950000047683716,-2.522712699759271
62.84482800000001,,0.0,63.242,0.5019999742507935,-2.5073093954758967
63.310345000000005,,0.0,63.706,0.5040000081062317,-2.5027699131318135
63.775862000000004,,0.0,64.176,0.5049999952316284,-2.500385031994158
64.241379,,0.0,64.634,0.5009999871253967,-2.5088753140122724
64.706897,,0.0,65.104,0.5049999952316284,-2.499924968098667
65.172414,,0.0,65.57,0.4970000088214874,-2.517114037649747
65.637931,,0.0,66.035,0.4959999918937683,-2.5190556017920414
66.103448,,0.0,66.494,0.5419999957084656,-2.418609911364488
66.56896599999999,,0.0,66.961,0.5009999871253967,-2.507721851633581
67.03448300000001,,0.0,67.426,0.49000000953674316,-2.531496592890227
67.5,,0.0,67.891,0.5429999828338623,-2.415866130609497
67.965517,,0.0,68.357,0.5040000081062317,-2.5007033670681142
68.431034,,0.0,68.824,0.4880000054836273,-2.535468557582056
68.896552,,0.0,69.287,0.492000013589859,-2.5267017193385684
69.362069,,0.0,69.75,0.49799999594688416,-2.5136203182123182
69.827586,,0.0,70.22,0.5059999823570251,-2.4962242078170602
70.293103,,0.0,70.68,0.5,-2.5093705015228687
70.75862099999999,,0.0,71.15,0.4909999966621399,-2.5290922574053827
71.22413800000001,,0.0,71.615,0.5019999742507935,-2.5052774326048426
71.689655,,0.0,72.079,0.4959999918937683,-2.51853133208209
72.15517200000001,,0.0,72.545,0.5040000081062317,-2.5013103628372617
72.62069,,0.0,73.009,0.5239999890327454,-2.457965111753274
73.086207,,0.0,73.475,0.5049999952316284,-2.499599211849553
73.551724,,0.0,73.94,0.5049999952316284,-2.4998442626955426
74.017241,,0.0,74.405,0.5130000114440918,-2.482658262224481
74.482759,,0.0,74.865,0.5149999856948853,-2.4785348443073354
74.94827599999999,,0.0,75.331,0.4860000014305115,-2.5419334176641297
75.41379300000001,,0.0,75.794,0.49399998784065247,-2.5247004023052444
75.87931,,0.0,76.264,0.5139999985694885,-2.4812959147930815
76.344828,,0.0,76.728,0.4959999918937683,-2.520646878715422
76.810345,,0.0,77.191,0.5019999742507935,-2.507673127513634
77.275862,,0.0,77.654,0.5199999809265137,-2.4685151607626397
77.741379,,0.0,78.124,0.5109999775886536,-2.4881379679762956
78.206897,,0.0,78.589,0.5019999742507935,-2.5077176688955887
78.67241399999999,,0.0,79.053,0.5080000162124634,-2.494575620587745
79.137931,,0.0,79.519,0.492000013589859,-2.5293243387283306
79.603448,,0.0,79.984,0.4950000047683716,-2.522642783312973
80.068966,,0.0,80.45,0.4880000054836273,-2.5377163549453057
80.53448300000001,,0.0,80.91,0.4959999918937683,-2.5200841316678546
81.0,,0.0,81.376,0.5210000276565552,-2.465393998831106
81.465517,,0.0,81.839,0.4880000054836273,-2.5370509933000194
81.931034,,0.0,82.309,0.5170000195503235,-2.4736242575019993
82.396552,,0.0,82.769,0.49000000953674316,-2.532201838092656
82.86206899999999,,0.0,83.238,0.503000020980835,-2.5036408196895
83.327586,,0.0,83.699,0.492000013589859,-2.5273821418219957
83.79310299999999,,0.0,84.169,0.4880000054836273,-2.5358945245923232
84.258621,,0.0,84.634,0.5090000033378601,-2.489968228648244
84.72413800000001,,0.0,85.097,0.503000020980835,-2.502897566359652
85.189655,,0.0,85.563,0.5099999904632568,-2.487540660083868
85.65517200000001,,0.0,86.027,0.5009999871253967,-2.507081390026378
86.12069,,0.0,86.493,0.515999972820282,-2.4743758517073555
86.586207,,0.0,86.958,0.4959999918937683,-2.51796509166
87.051724,,0.0,87.424,0.49000000953674316,-2.531095580965614
87.517241,,0.0,87.891,0.5090000033378601,-2.4898008442303756
87.98275899999999,,0.0,88.349,0.5070000290870667,-2.4942952152579214
88.448276,,0.0,88.817,0.4959999918937683,-2.5184310750590484
88.913793,,0.0,89.279,0.5090000033378601,-2.4903080088267213
89.37931,,0.0,89.75,0.5049999952316284,-2.4992447656799355
89.844828,,0.0,90.212,0.49000000953674316,-2.5321630522683725
90.310345,,0.0,90.68,0.5009999871253967,-2.5084464092682994
90.775862,,0.0,91.142,0.49399998784065247,-2.523947953501513
91.241379,,0.0,91.608,0.5049999952316284,-2.500228770716785
91.706897,,0.0,92.072,0.5540000200271606,-2.393707350585197
92.17241399999999,,0.0,92.537,0.5130000114440918,-2.483242738605667
92.63793100000001,,0.0,93.001,0.47699999809265137,-2.561858272675599
93.103448,,0.0,93.467,0.49900001287460327,-2.5140817542008462
93.568966,,0.0,93.932,0.5049999952316284,-2.5011285332362228
94.03448300000001,,0.0,94.397,0.5109999775886536,-2.4881358416236434
94.5,,0.0,94.862,0.503000020980835,-2.5056020383562374
94.965517,,0.0,95.328,0.5049999952316284,-2.50123880142963
95.431034,,0.0,95.791,0.4959999918937683,-2.520797900423068
95.896552,,0.0,96.26,0.5009999871253967,-2.509814704953455
96.36206899999999,,0.0,96.721,0.5199999809265137,-2.468291387492575
96.827586,,0.0,97.19,0.4959999918937683,-2.52041425842573
97.293103,,0.0,97.654,0.5,-2.5115044997502203
97.758621,,0.0,98.116,0.515999972820282,-2.4764262417242917
98.224138,,0.0,98.582,0.4959999918937683,-2.519760583163044
98.689655,,0.0,99.047,0.4950000047683716,-2.521689379338675
99.155172,,0.0,99.512,0.5019999742507935,-2.5061854549808578
99.62069,,0.0,99.979,0.492000013589859,-2.5277221692291043
100.086207,,0.0,100.445,0.5120000243186951,-2.4839104175265043
100.551724,,0.0,100.909,0.4339999854564667,-2.653625256888519
101.017241,,0.0,101.375,0.5049999952316284,-2.498747765657297
101.482759,,0.0,101.835,0.49799999594688416,-2.5138359918459807
101.948276,,0.0,102.305,0.4779999852180481,-2.5572817275230117
102.413793,,0.0,102.768,0.4880000054836273,-2.535407307228718
102.87931,,0.0,103.231,0.49399998784065247,-2.5222893285332306
103.344828,,0.0,103.694,0.49000000953674316,-2.5310004362092524
103.810345,,0.0,104.164,0.4959999918937683,-2.5179677506897957
104.275862,,0.0,104.63,0.4880000054836273,-2.535477470720447
104.741379,,0.0,105.093,0.5149999856948853,-2.4767731792944927
105.206897,,0.0,105.559,0.5,-2.509606608101559
105.672414,,0.0,106.024,0.48899999260902405,-2.5337557736205114
106.13793100000001,,0.0,106.49,0.4909999966621399,-2.5296080607189255
106.603448,,0.0,106.95,0.49799999594688416,-2.514586610176387
107.068966,,0.0,107.416,0.4959999918937683,-2.5191855986532743
107.534483,,0.0,107.881,0.5009999871253967,-2.5085394829039274
108.0,,0.0,108.346,0.4880000054836273,-2.5371073934515893
108.46551699999999,,0.0,108.809,0.492000013589859,-2.5286299134566503
108.931034,,0.0,109.279,0.5009999871253967,-2.509243971340132
109.396552,,0.0,109.739,0.492000013589859,-2.529051668916573
109.862069,,0.0,110.209,0.4790000021457672,-2.5575467687522835
110.32758600000001,,0.0,110.672,0.4779999852180481,-2.559866508533576
110.793103,,0.0,111.135,0.4959999918937683,-2.520756131844924
111.258621,,0.0,111.6,0.5109999775886536,-2.488141998635475
111.724138,,0.0,112.064,0.49399998784065247,-2.5252023229836884
112.189655,,0.0,112.53,0.49000000953674316,-2.533897653976349
112.655172,,0.0,112.994,0.49300000071525574,-2.5273009343698307
113.12069,,0.0,113.46,0.49799999594688416,-2.516306948123023
113.586207,,0.0,113.928,0.515999972820282,-2.4769529242429535
114.051724,,0.0,114.393,0.49399998784065247,-2.524710803320756
114.51724100000001,,0.0,114.857,0.5080000162124634,-2.4940085441669777
114.982759,,0.0,115.323,0.5699999928474426,-2.358707108561075
115.448276,,0.0,115.785,0.492000013589859,-2.5283978662860074
115.913793,,0.0,116.255,0.49000000953674316,-2.53250179768995
116.37931,,0.0,116.717,0.5080000162124634,-2.4930319605708315
116.84482799999999,,0.0,117.179,0.503000020980835,-2.5036773528821965
117.310345,,0.0,117.645,0.5090000033378601,-2.490371093780776
117.77586199999999,,0.0,118.111,0.5049999952316284,-2.498871711924372
118.241379,,0.0,118.576,0.5009999871253967,-2.5073992719839135
118.70689700000001,,0.0,119.043,0.5130000114440918,-2.481100944740187
119.172414,,0.0,119.509,0.503000020980835,-2.502769982534461
119.63793100000001,,0.0,119.969,0.49399998784065247,-2.522301401924731
120.103448,,0.0,120.434,0.515999972820282,-2.4743380550327987
120.568966,,0.0,120.899,0.515999972820282,-2.474348755127095
121.034483,,0.0,121.364,0.503000020980835,-2.502725174883219
121.5,,0.0,121.835,0.503000020980835,-2.5028216060512447
121.96551699999999,,0.0,122.297,0.5099999904632568,-2.487707229153525
122.431034,,0.0,122.765,0.4950000047683716,-2.520558745902542
122.896552,,0.0,123.228,0.5049999952316284,-2.4989749758854134
123.362069,,0.0,123.691,0.4880000054836273,-2.53623980597118
123.827586,,0.0,124.161,0.5059999823570251,-2.4972704285950678
124.293103,,0.0,124.619,0.492000013589859,-2.5280286900067717
124.758621,,0.0,125.09,0.49399998784065247,-2.52393209021691
125.22413800000001,,0.0,125.555,0.5299999713897705,-2.445756448215004
125.68965500000002,,0.0,126.02,0.4970000088214874,-2.5178940378043664
126.15517200000001,,0.0,126.479,0.5049999952316284,-2.500686755434847
126.62069000000001,,0.0,126.95,0.49900001287460327,-2.513953838816145
127.086207,,0.0,127.416,0.5130000114440918,-2.483615200255188
127.55172400000001,,0.0,127.876,0.492000013589859,-2.5294915178919806
128.017241,,0.0,128.341,0.503000020980835,-2.5056097715559495
128.48275900000002,,0.0,128.809,0.5049999952316284,-2.501291998886149
128.948276,,0.0,129.272,0.5080000162124634,-2.4947498997937383
129.413793,,0.0,129.739,0.4909999966621399,-2.5317355417168748
129.87931,,0.0,130.201,0.5109999775886536,-2.4880674739402697
130.344828,,0.0,130.665,0.5270000100135803,-2.4530722291797344
130.81034499999998,,0.0,131.135,0.503000020980835,-2.505184846605301
131.275862,,0.0,131.6,0.4959999918937683,-2.520228308046129
131.741379,,0.0,132.065,0.49900001287460327,-2.513459826141549
132.206897,,0.0,132.531,0.49399998784065247,-2.5241023852207065
132.67241399999997,,0.0,132.99,0.503000020980835,-2.5042329637832546
133.13793099999998,,0.0,133.456,0.4970000088214874,-2.517040336558698
133.60344800000001,,0.0,133.92,0.5109999775886536,-2.486279468495577
134.06896600000002,,0.0,134.386,0.46700000762939453,-2.58189305824358
134.53448300000002,,0.0,134.853,0.49799999594688416,-2.514129218517016
135.0,,0.0,135.319,0.503000020980835,-2.5030376974312416
135.465517,,0.0,135.78,0.49399998784065247,-2.52248025194246
135.931034,,0.0,136.25,0.5,-2.50928091874945
136.396552,,0.0,136.709,0.5120000243186951,-2.483051158507465
136.862069,,0.0,137.179,0.503000020980835,-2.5026167887954465
137.327586,,0.0,137.645,0.5120000243186951,-2.4830116653867544
137.793103,,0.0,138.11,0.515999972820282,-2.4743445960691997
138.258621,,0.0,138.575,0.492000013589859,-2.526722997170792
138.724138,,0.0,139.035,0.49799999594688416,-2.5137836423223434
139.189655,,0.0,139.501,0.5210000276565552,-2.463844674192953
139.655172,,0.0,139.964,0.5109999775886536,-2.485833073924629
140.12069,,0.0,140.43,0.5009999871253967,-2.5078473234244334
140.586207,,0.0,140.895,0.4959999918937683,-2.5189882860289408
141.05172399999998,,0.0,141.361,0.4860000014305115,-2.5410356973062753
141.51724099999998,,0.0,141.824,0.4099999964237213,-2.706881358088565
141.982759,,0.0,142.294,0.4909999966621399,-2.5306799081193496
142.44827600000002,,0.0,142.757,0.503000020980835,-2.504795988561469
142.913793,,0.0,143.22,0.49000000953674316,-2.5333594211726993
143.37931,,0.0,143.688,0.4950000047683716,-2.522680881319873
143.844828,,0.0,144.151,0.4950000047683716,-2.522862644982403
144.310345,,0.0,144.616,0.49000000953674316,-2.533898968163379
144.77586200000002,,0.0,145.079,0.5049999952316284,-2.5013189884139697
145.241379,,0.0,145.545,0.5120000243186951,-2.4861208678231637
145.706897,,0.0,146.009,0.5009999871253967,-2.5100891687045053
146.172414,,0.0,146.474,0.49900001287460327,-2.514400097722423
146.637931,,0.0,146.94,0.49000000953674316,-2.5339139214360245
147.103448,,0.0,147.405,0.5170000195503235,-2.4749512013529813
147.568966,,0.0,147.872,0.515999972820282,-2.4769489244829708
148.034483,,0.0,148.338,0.5099999904632568,-2.489802975038765
148.5,,0.0,148.806,0.49000000953674316,-2.533128573469194
148.965517,,0.0,149.268,0.4490000009536743,-2.6221855258620503
149.43103399999998,,0.0,149.731,0.4959999918937683,-2.51951022745863
149.89655199999999,,0.0,150.194,0.49000000953674316,-2.532299787601787
150.362069,,0.0,150.665,0.5009999871253967,-2.508056650841094
150.82758600000003,,0.0,151.127,0.49900001287460327,-2.5121483361752035
151.293103,,0.0,151.593,0.5040000081062317,-2.5010099501881013
151.758621,,0.0,152.058,0.5,-2.509507303376183
152.224138,,0.0,152.523,0.49000000953674316,-2.531111385913204
152.68965500000002,,0.0,152.984,0.5130000114440918,-2.4808606534645317
153.155172,,0.0,153.449,0.5239999890327454,-2.4567979659429495
153.62069,,0.0,153.916,0.49900001287460327,-2.5112135565634257
154.086207,,0.0,154.382,0.5070000290870667,-2.4937831152411887
154.551724,,0.0,154.854,0.5109999775886536,-2.485117196012527
155.017241,,0.0,155.312,0.5059999823570251,-2.496107370670936
155.482759,,0.0,155.78,0.49799999594688416,-2.513679441929461
155.948276,,0.0,156.243,0.49399998784065247,-2.52257932066986
156.413793,,0.0,156.706,0.4959999918937683,-2.5184444947487896
156.87931,,0.0,157.176,0.4909999966621399,-2.5295909383730497
157.34482799999998,,0.0,157.634,0.5429999828338623,-2.4165767436475236
157.81034499999998,,0.0,158.104,0.48899999260902405,-2.5345125091962184
158.275862,,0.0,158.57,0.46299999952316284,-2.591452110398656
158.741379,,0.0,159.035,0.5019999742507935,-2.506777877152593
159.20689700000003,,0.0,159.5,0.503000020980835,-2.5048804520128494
159.672414,,0.0,159.965,0.515999972820282,-2.4768180010897485
160.137931,,0.0,160.431,0.6349999904632568,-2.217786312595976
160.60344800000001,,0.0,160.89,0.5009999871253967,-2.5099113963775497
161.06896600000002,,0.0,161.356,0.5090000033378601,-2.492623660242476
161.534483,,0.0,161.824,0.5080000162124634,-2.4948971265267477
162.0,,0.0,162.286,0.49000000953674316,-2.534158363316241
162.465517,,0.0,162.75,0.4909999966621399,-2.531975225050624
162.931034,,0.0,163.22,0.5090000033378601,-2.4927049743139915
163.396552,,0.0,163.683,0.5170000195503235,-2.4751718564862917
163.862069,,0.0,164.146,0.531000018119812,-2.444519665609452
164.327586,,0.0,164.612,0.492000013589859,-2.529293200469133
164.793103,,0.0,165.078,0.49000000953674316,-2.5334210386055047
165.258621,,0.0,165.544,0.49399998784065247,-2.5244489280666405
165.72413799999998,,0.0,166.009,0.49399998784065247,-2.524170838642752
166.189655,,0.0,166.475,0.4970000088214874,-2.517344370141796
166.655172,,0.0,166.94,0.5019999742507935,-2.5061567677341006
167.12069,,0.0,167.405,0.5049999952316284,-2.4993308396808023
167.58620699999997,,0.0,167.865,0.5019999742507935,-2.5055898740333165
168.051724,,0.0,168.331,0.5130000114440918,-2.4813687756705476
168.517241,,0.0,168.798,0.49799999594688416,-2.513821330624745
168.98275900000002,,0.0,169.26,0.4880000054836273,-2.535416602342622
169.44827600000002,,0.0,169.728,0.515999972820282,-2.4742651929933093
169.913793,,0.0,170.191,0.4909999966621399,-2.5286280775408065
170.37931,,0.0,170.654,0.5049999952316284,-2.4980729937073445
170.844828,,0.0,171.124,0.503000020980835,-2.502427191798732
171.310345,,0.0,171.589,0.5040000081062317,-2.5002964338971405
171.775862,,0.0,172.053,0.49000000953674316,-2.5308952010500407
172.241379,,0.0,172.519,0.5009999871253967,-2.5070750658053833
172.706897,,0.0,172.984,0.5070000290870667,-2.494190788202449
173.172414,,0.0,173.449,0.4950000047683716,-2.520559340479216
173.637931,,0.0,173.914,0.5070000290870667,-2.4946706612755154
174.103448,,0.0,174.379,0.515999972820282,-2.4753405974735916
174.568966,,0.0,174.842,0.5049999952316284,-2.4995972428769995
175.034483,,0.0,175.304,0.4860000014305115,-2.5412889641947998
175.5,,0.0,175.772,0.5189999938011169,-2.469688270014814
175.96551699999998,,0.0,176.236,0.5090000033378601,-2.4917573091142393
176.43103399999998,,0.0,176.706,0.5210000276565552,-2.4658750102693223
176.896552,,0.0,177.169,0.515999972820282,-2.4770009606335055
177.36206900000002,,0.0,177.634,0.503000020980835,-2.5055202358475834
177.827586,,0.0,178.097,0.49000000953674316,-2.5339989985751767
178.293103,,0.0,178.563,0.5049999952316284,-2.501430768560179
178.758621,,0.0,179.028,0.5149999856948853,-2.4797071268970043
179.224138,,0.0,179.493,0.49900001287460327,-2.5145773913751865
179.68965500000002,,0.0,179.958,0.49399998784065247,-2.5254318549356536
180.155172,,0.0,180.424,0.5109999775886536,-2.488306506797523
180.62069,,0.0,180.89,0.5450000166893005,-2.414095902030009
181.086207,,0.0,181.349,0.4959999918937683,-2.520668546616327
181.551724,,0.0,181.817,0.5149999856948853,-2.4790544433938417
182.01724099999998,,0.0,182.279,0.492000013589859,-2.5289121482481995
182.482759,,0.0,182.747,0.5009999871253967,-2.5090296136510846
182.948276,,0.0,183.209,0.49000000953674316,-2.532704827025498
183.413793,,0.0,183.679,0.4909999966621399,-2.5302299997695705
183.87931,,0.0,184.142,0.5120000243186951,-2.484184288228808
184.34482799999998,,0.0,184.607,0.48899999260902405,-2.5340097433616693
184.81034499999998,,0.0,185.071,0.5090000033378601,-2.4901720926038093
185.27586200000002,,0.0,185.537,0.4909999966621399,-2.5291498473845992
185.74137900000002,,0.0,186.001,0.46399998664855957,-2.5877699306539976
186.206897,,0.0,186.467,0.5090000033378601,-2.489568124381118
186.672414,,0.0,186.932,0.49900001287460327,-2.5112366490660536
187.137931,,0.0,187.398,0.5040000081062317,-2.500272871880208
187.60344800000001,,0.0,187.865,0.4959999918937683,-2.5176810871952173
188.06896600000002,,0.0,188.331,0.5049999952316284,-2.4981023120973895
188.534483,,0.0,188.794,0.5009999871253967,-2.506895040808145
189.0,,0.0,189.257,0.5139999985694885,-2.4786971031485283
189.465517,,0.0,189.725,0.5149999856948853,-2.4766852908176156
189.931034,,0.0,190.187,0.492000013589859,-2.526998496729123
190.39655199999999,,0.0,190.657,0.5120000243186951,-2.4836618413415947
190.862069,,0.0,191.12,0.49000000953674316,-2.5318537260200284
191.327586,,0.0,191.585,0.503000020980835,-2.503810628927797
191.793103,,0.0,192.05,0.503000020980835,-2.504099579035143
192.25862099999998,,0.0,192.509,0.5040000081062317,-2.502210809075594
192.72413799999998,,0.0,192.976,0.5040000081062317,-2.502493086304309
193.189655,,0.0,193.441,0.5049999952316284,-2.5005809223423174
193.655172,,0.0,193.905,0.5139999985694885,-2.481215764458564
194.12069000000002,,0.0,194.371,0.492000013589859,-2.5293579645373088
194.586207,,0.0,194.839,0.5090000033378601,-2.49249636278372
195.051724,,0.0,195.302,0.5149999856948853,-2.4795579780102295
195.517241,,0.0,195.765,0.5080000162124634,-2.4948957359766637
195.98275900000002,,0.0,196.235,0.5049999952316284,-2.501470542357613
196.448276,,0.0,196.695,0.5090000033378601,-2.4927453815748657
196.913793,,0.0,197.165,0.5009999871253967,-2.5101151389012077
197.37931,,0.0,197.631,0.503000020980835,-2.5056513538435445
197.844828,,0.0,198.093,0.5040000081062317,-2.503322588343494
198.310345,,0.0,198.559,0.5210000276565552,-2.466095653438459
198.775862,,0.0,199.024,0.5090000033378601,-2.4920150675737927
199.241379,,0.0,199.489,0.5009999871253967,-2.509192154662461
199.706897,,0.0,199.954,0.5009999871253967,-2.5089202119125193
200.172414,,0.0,200.42,0.5070000290870667,-2.4955644684418647
200.63793099999998,,0.0,200.88,0.5149999856948853,-2.4778477010147966
201.103448,,0.0,201.346,0.5339999794960022,-2.436169418821853
201.568966,,0.0,201.814,0.49399998784065247,-2.523043301570928
202.034483,,0.0,202.276,0.5170000195503235,-2.4726828044595752
202.5,,0.0,202.739,0.5009999871253967,-2.507317900844039
202.965517,,0.0,203.209,0.503000020980835,-2.5027719788019818
203.431034,,0.0,203.672,0.5090000033378601,-2.4895520191973977
203.896552,,0.0,204.134,0.5049999952316284,-2.4981631218158173
204.36206900000002,,0.0,204.6,0.492000013589859,-2.5264299021161905
204.827586,,0.0,205.064,0.5009999871253967,-2.506816389519821
205.293103,,0.0,205.53,0.49000000953674316,-2.5308258854063936
205.758621,,0.0,205.994,0.4860000014305115,-2.539633983445579
206.224138,,0.0,206.46,0.5070000290870667,-2.494021978954293
206.689655,,0.0,206.925,0.45500001311302185,-2.6074937127684024
207.155172,,0.0,207.39,0.5149999856948853,-2.476993945713188
207.62069,,0.0,207.858,0.5049999952316284,-2.4990290320009443
208.086207,,0.0,208.324,0.503000020980835,-2.50365618223376
208.551724,,0.0,208.787,0.4970000088214874,-2.517011595536049
209.01724099999998,,0.0,209.249,0.5009999871253967,-2.5085858466294817
209.482759,,0.0,209.717,0.5170000195503235,-2.4740125646955344
209.948276,,0.0,210.179,0.49399998784065247,-2.524394416521546
210.413793,,0.0,210.645,0.453000009059906,-2.613972780732012
210.87930999999998,,0.0,211.111,0.5009999871253967,-2.5096259645283068
211.344828,,0.0,211.576,0.5149999856948853,-2.4793196180245167
211.810345,,0.0,212.043,0.5009999871253967,-2.5099749424260245
212.27586200000002,,0.0,212.509,0.49000000953674316,-2.5340496895161158
212.741379,,0.0,212.976,0.49900001287460327,-2.514504207151682
213.206897,,0.0,213.434,0.5049999952316284,-2.501445389092367
213.672414,,0.0,213.905,0.5170000195503235,-2.4752643111462387
214.137931,,0.0,214.364,0.503000020980835,-2.5056787806077736
214.60344800000001,,0.0,214.831,0.5170000195503235,-2.4750444188734617
215.068966,,0.0,215.301,0.49000000953674316,-2.5336923770785864
215.534483,,0.0,215.761,0.492000013589859,-2.5291232381428617
216.0,,0.0,216.231,0.5210000276565552,-2.465700632014271
216.465517,,0.0,216.691,0.49799999594688416,-2.5155445904015625
216.93103399999998,,0.0,217.161,0.5130000114440918,-2.4825845240476707
217.39655199999999,,0.0,217.619,0.5080000162124634,-2.493190638473929
217.862069,,0.0,218.089,0.5149999856948853,-2.477654649357542
218.327586,,0.0,218.555,0.515999972820282,-2.4752005562187445
218.793103,,0.0,219.02,0.5099999904632568,-2.4880152446762787
219.25862099999998,,0.0,219.486,0.5009999871253967,-2.5073923810287995
219.724138,,0.0,219.95,0.4959999918937683,-2.5180888761027314
220.18965500000002,,0.0,220.409,0.5130000114440918,-2.480895000668413
220.65517200000002,,0.0,220.876,0.515999972820282,-2.4742463990248993
221.12069,,0.0,221.341,0.5370000004768372,-2.4284285839929596
221.586207,,0.0,221.809,0.5019999742507935,-2.5046636740029258
222.051724,,0.0,222.271,0.5090000033378601,-2.4894451590677367
222.517241,,0.0,222.739,0.5199999809265137,-2.4655612039152923
222.98275900000002,,0.0,223.201,0.5009999871253967,-2.507083115695421
223.448276,,0.0,223.669,0.5170000195503235,-2.4723951003021813
223.913793,,0.0,224.131,0.4880000054836273,-2.5357844521400787
224.37931,,0.0,224.597,0.5170000195503235,-2.4728441149415654
224.844828,,0.0,225.061,0.4950000047683716,-2.521039594432612
225.31034499999998,,0.0,225.527,0.5009999871253967,-2.5082496934740797
225.775862,,0.0,225.994,0.5,-2.51071871729554
226.241379,,0.0,226.459,0.515999972820282,-2.476150029177008
226.706897,,0.0,226.924,0.515999972820282,-2.476429499545638
227.172414,,0.0,227.39,0.5019999742507935,-2.5071913289717216
227.63793099999998,,0.0,227.854,0.503000020980835,-2.505247149528939
228.103448,,0.0,228.319,0.5109999775886536,-2.4880193599749605
228.56896600000002,,0.0,228.78,0.4830000102519989,-2.5491835528455993
229.03448300000002,,0.0,229.25,0.5049999952316284,-2.5013716535081887
229.5,,0.0,229.713,0.5120000243186951,-2.4861915363563627
229.965517,,0.0,230.176,0.4830000102519989,-2.549392636547998
230.431034,,0.0,230.641,0.515999972820282,-2.47746688182807
230.896552,,0.0,231.105,0.4959999918937683,-2.5209592288927323
231.362069,,0.0,231.571,0.5049999952316284,-2.501222870341216
231.827586,,0.0,232.036,0.503000020980835,-2.505407538267421
232.293103,,0.0,232.501,0.515999972820282,-2.4768733442321538
232.758621,,0.0,232.968,0.5019999742507935,-2.507129433690756
233.224138,,0.0,233.434,0.492000013589859,-2.528645542766846
233.689655,,0.0,233.898,0.49900001287460327,-2.513108063535782
234.155172,,0.0,234.364,0.5170000195503235,-2.4735970480811518
234.62069,,0.0,234.824,0.5180000066757202,-2.4711228583911806
235.086207,,0.0,235.294,0.5109999775886536,-2.486086401125802
235.55172399999998,,0.0,235.757,0.5120000243186951,-2.483638106828284
236.01724099999998,,0.0,236.22,0.492000013589859,-2.5269678677584633
236.482759,,0.0,236.691,0.515999972820282,-2.474471239762104
236.94827600000002,,0.0,237.153,0.5130000114440918,-2.480838128654575
237.413793,,0.0,237.619,0.4880000054836273,-2.535181007241871
237.87931,,0.0,238.082,0.5009999871253967,-2.5067855440694604
238.344828,,0.0,238.548,0.515999972820282,-2.474085181923821
238.810345,,0.0,239.013,0.5019999742507935,-2.5046182821702616
239.27586200000002,,0.0,239.479,0.5019999742507935,-2.504702408622758
239.741379,,0.0,239.939,0.49900001287460327,-2.511372433416211
240.206897,,0.0,240.405,0.5139999985694885,-2.4788728120572094
240.672414,,0.0,240.869,0.4880000054836273,-2.53573830530023
241.137931,,0.0,241.335,0.503000020980835,-2.5033134879465027
241.603448,,0.0,241.805,0.4959999918937683,-2.5188457204805563
242.068966,,0.0,242.268,0.574999988079071,-2.3470306702317596
242.534483,,0.0,242.736,0.5009999871253967,-2.5085550407690125
243.0,,0.0,243.198,0.4819999933242798,-2.5502522022282466
243.465517,,0.0,243.665,0.5009999871253967,-2.509151784539546
243.93103399999998,,0.0,244.127,0.5009999871253967,-2.50942742401417
244.39655199999999,,0.0,244.593,0.5080000162124634,-2.4944252338086272
244.862069,,0.0,245.057,0.503000020980835,-2.5055318191683074
245.327586,,0.0,245.523,0.5080000162124634,-2.4948101892097108
245.793103,,0.0,245.987,0.4650000035762787,-2.5886173155280927
246.258621,,0.0,246.452,0.503000020980835,-2.505904151271818
246.724138,,0.0,246.917,0.5040000081062317,-2.503748243680802
247.18965500000002,,0.0,247.383,0.492000013589859,-2.529860401440773
247.655172,,0.0,247.85,0.5090000033378601,-2.4927382106233065
248.12069,,0.0,248.309,0.5139999985694885,-2.4817080398894507
248.586207,,0.0,248.779,0.5009999871253967,-2.5098454513071604
249.051724,,0.0,249.242,0.5170000195503235,-2.474759322300868
249.517241,,0.0,249.71,0.492000013589859,-2.528962143206874
249.982759,,0.0,250.172,0.503000020980835,-2.5047061289413057
250.44827600000002,,0.0,250.638,0.503000020980835,-2.5043966602038825
250.913793,,0.0,251.101,0.5059999823570251,-2.497541828222536
251.37931000000003,,0.0,251.567,0.4970000088214874,-2.516830915581299
251.844828,,0.0,252.031,0.5149999856948853,-2.4773065516277835
252.31034499999998,,0.0,252.497,0.4959999918937683,-2.5184114689611588
252.77586200000002,,0.0,252.962,0.46299999952316284,-2.5900467501466604
253.241379,,0.0,253.427,0.5090000033378601,-2.489606846433044
253.706897,,0.0,253.894,0.49399998784065247,-2.522108786060028
254.172414,,0.0,254.36,0.515999972820282,-2.474049778193761
254.63793099999998,,0.0,254.82,0.5130000114440918,-2.4805095937627804
255.10344800000001,,0.0,255.29,0.49900001287460327,-2.5109898539315276
255.56896600000002,,0.0,255.753,0.49000000953674316,-2.530633744422007
256.03448299999997,,0.0,256.216,0.49900001287460327,-2.5111183947825326
256.5,,0.0,256.684,0.48399999737739563,-2.5439446644159887
256.965517,,0.0,257.146,0.5120000243186951,-2.4831385366319907
257.431034,,0.0,257.612,0.5070000290870667,-2.494271022523196
257.896552,,0.0,258.078,0.4970000088214874,-2.5163326654282505
258.362069,,0.0,258.543,0.5049999952316284,-2.499206532618477
258.827586,,0.0,259.009,0.503000020980835,-2.503885523338182
259.29310300000003,,0.0,259.474,0.5009999871253967,-2.5085735836957066
259.758621,,0.0,259.939,0.5180000066757202,-2.47186587772454
260.224138,,0.0,260.405,0.49000000953674316,-2.533185993789501
260.689655,,0.0,260.865,0.5040000081062317,-2.5029821648090516
261.155172,,0.0,261.33,0.515999972820282,-2.477105662362808
261.62068999999997,,0.0,261.798,0.5049999952316284,-2.5012991631370753
262.086207,,0.0,262.26,0.5120000243186951,-2.486231127642858
262.551724,,0.0,262.724,0.5070000290870667,-2.4972554329064103
263.017241,,0.0,263.194,0.5099999904632568,-2.4907949894862087
263.482759,,0.0,263.657,0.5199999809265137,-2.4690256269816087
263.94827599999996,,0.0,264.12,0.49300000071525574,-2.5278073110607724
264.413793,,0.0,264.586,0.5009999871253967,-2.5102792320669423
264.87931,,0.0,265.053,0.4909999966621399,-2.5319129272336762
265.34482799999995,,0.0,265.519,0.5210000276565552,-2.4663508934266947
265.810345,,0.0,265.983,0.5090000033378601,-2.4922478262298293
266.27586199999996,,0.0,266.449,0.5040000081062317,-2.502857090620661
266.741379,,0.0,266.913,0.503000020980835,-2.504723650784626
267.206897,,0.0,267.379,0.503000020980835,-2.504393051639147
267.672414,,0.0,267.843,0.5109999775886536,-2.4866246924997655
268.137931,,0.0,268.304,0.515999972820282,-2.4753934452382627
268.603448,,0.0,268.772,0.5170000195503235,-2.4728878814043727
269.06896600000005,,0.0,269.234,0.49300000071525574,-2.5248702236005163
269.53448299999997,,0.0,269.706,0.4970000088214874,-2.5158820649490305
270.0,,0.0,270.168,0.4970000088214874,-2.5156490058057193
270.465517,,0.0,270.634,0.5080000162124634,-2.49149821277259
270.931034,,0.0,271.097,0.45500001311302185,-2.6068347763317714
271.396552,,0.0,271.563,0.49300000071525574,-2.5239732524651144
271.86206899999996,,0.0,272.028,0.4970000088214874,-2.5152465081059354
272.327586,,0.0,272.494,0.5090000033378601,-2.4891506611879084
272.793103,,0.0,272.961,0.48500001430511475,-2.5415446970592623
273.258621,,0.0,273.419,0.4569999873638153,-2.6027099244374696
273.724138,,0.0,273.891,0.503000020980835,-2.502707133227797
274.18965499999996,,0.0,274.349,0.4970000088214874,-2.5160386408573143
274.655172,,0.0,274.817,0.5049999952316284,-2.4989047039787535
275.12069,,0.0,275.279,0.5099999904632568,-2.4883329616162353
275.586207,,0.0,275.746,0.49399998784065247,-2.523529196423331
276.051724,,0.0,276.209,0.515999972820282,-2.4759428682084508
276.517241,,0.0,276.676,0.48399999737739563,-2.545999140502274
276.98275900000004,,0.0,277.139,0.503000020980835,-2.5049299825252618
277.448276,,0.0,277.604,0.5130000114440918,-2.48344418271225
277.913793,,0.0,278.076,0.49900001287460327,-2.514211741682357
278.37931,,0.0,278.534,0.515999972820282,-2.477398978669028
278.844828,,0.0,278.999,0.5109999775886536,-2.4884670452752653
279.31034500000004,,0.0,279.464,0.503000020980835,-2.506016385677134
279.77586199999996,,0.0,279.931,0.4959999918937683,-2.52132960874905
280.241379,,0.0,280.397,0.49399998784065247,-2.5256905615251495
280.706897,,0.0,280.862,0.5109999775886536,-2.488598110541809
281.172414,,0.0,281.327,0.503000020980835,-2.5059140382176217
281.637931,,0.0,281.79,0.503000020980835,-2.5057466699560647
282.10344799999996,,0.0,282.26,0.5019999742507935,-2.5077092346403185
282.568966,,0.0,282.721,0.5040000081062317,-2.503093549544234
283.034483,,0.0,283.19,0.5040000081062317,-2.5028010198685595
283.5,,0.0,283.654,0.5040000081062317,-2.502483233793375
283.965517,,0.0,284.116,0.49900001287460327,-2.5130432759520827
284.431034,,0.0,284.582,0.5170000195503235,-2.473489033471648
284.89655200000004,,0.0,285.046,0.492000013589859,-2.527621634313002
285.362069,,0.0,285.512,0.5120000243186951,-2.4837303039032195
285.827586,,0.0,285.979,0.503000020980835,-2.503044754425193
286.293103,,0.0,286.445,0.515999972820282,-2.4744626013543134
286.758621,,0.0,286.91,0.5019999742507935,-2.5047453058031195
287.22413800000004,,0.0,287.375,0.4860000014305115,-2.5394339105561654
287.689655,,0.0,287.839,0.5149999856948853,-2.476137508260332
288.155172,,0.0,288.301,0.5009999871253967,-2.5065800407366594
288.62069,,0.0,288.769,0.5170000195503235,-2.4717214784668498
289.086207,,0.0,289.231,0.5070000290870667,-2.493566078528779
289.55172400000004,,0.0,289.694,0.5239999890327454,-2.456643411826118
290.01724099999996,,0.0,290.164,0.503000020980835,-2.50256182847672
290.482759,,0.0,290.63,0.49000000953674316,-2.5310993120359973
290.948276,,0.0,291.093,0.503000020980835,-2.5030340854102135
291.413793,,0.0,291.558,0.5130000114440918,-2.4815387563670774
291.87931,,0.0,292.024,0.5099999904632568,-2.4883903114933794
292.344828,,0.0,292.489,0.49900001287460327,-2.5126858587230596
292.81034500000004,,0.0,292.955,0.5189999938011169,-2.469448255053969
293.275862,,0.0,293.421,0.5210000276565552,-2.465420287378845
293.74137900000005,,0.0,293.88,0.5090000033378601,-2.491877341608674
294.206897,,0.0,294.346,0.5109999775886536,-2.4878079785867246
294.672414,,0.0,294.809,0.503000020980835,-2.5054912060605576
295.13793100000004,,0.0,295.279,0.5040000081062317,-2.5035255222317607
295.603448,,0.0,295.739,0.4959999918937683,-2.5211203308191634
296.068966,,0.0,296.208,0.5040000081062317,-2.5038044566102178
296.534483,,0.0,296.669,0.5180000066757202,-2.473360668023652
297.0,,0.0,297.139,0.5049999952316284,-2.501682223929626
297.46551700000003,,0.0,297.604,0.5109999775886536,-2.488551422604266
297.931034,,0.0,298.068,0.49300000071525574,-2.527652263354442
298.396552,,0.0,298.534,0.49900001287460327,-2.514413665186561
298.862069,,0.0,298.999,0.503000020980835,-2.505485609409177
299.327586,,0.0,299.464,0.5130000114440918,-2.483444963001201
299.79310300000003,,0.0,299.924,0.492000013589859,-2.528909337438123
300.258621,,0.0,300.39,0.5009999871253967,-2.5089903560076112
300.724138,,0.0,300.856,0.5199999809265137,-2.4672700195642405
301.189655,,0.0,301.321,0.492000013589859,-2.527940804916871
301.65517200000005,,0.0,301.791,0.49799999594688416,-2.514542928744327
302.12069,,0.0,302.253,0.5130000114440918,-2.4815523204701724
302.586207,,0.0,302.716,0.515999972820282,-2.4747294686662484
303.05172400000004,,0.0,303.179,0.5170000195503235,-2.4722958496223684
303.517241,,0.0,303.645,0.503000020980835,-2.5025820925023687
303.982759,,0.0,304.111,0.515999972820282,-2.474091745470804
304.448276,,0.0,304.576,0.5009999871253967,-2.5066554681107127
304.913793,,0.0,305.043,0.45500001311302185,-2.606814066359348
305.37931000000003,,0.0,305.509,0.5009999871253967,-2.5065967843477903
305.844828,,0.0,305.976,0.5040000081062317,-2.5001200899960807
306.310345,,0.0,306.434,0.5270000100135803,-2.450125961002246
306.775862,,0.0,306.906,0.5329999923706055,-2.437219857330618
307.241379,,0.0,307.364,0.5180000066757202,-2.47011085371058
307.70689699999997,,0.0,307.832,0.5049999952316284,-2.4986844720984887
308.172414,,0.0,308.294,0.460999995470047,-2.5948301043084183
308.637931,,0.0,308.762,0.4959999918937683,-2.5188890157532997
309.103448,,0.0,309.224,0.4950000047683716,-2.5213959118435234
309.568966,,0.0,309.694,0.503000020980835,-2.504300844936651
310.034483,,0.0,310.157,0.5109999775886536,-2.4872011717829534
310.5,,0.0,310.622,0.5019999742507935,-2.507123376369134
310.96551700000003,,0.0,311.085,0.4970000088214874,-2.5183065149617083
311.431034,,0.0,311.551,0.5120000243186951,-2.4858835419785725
311.896552,,0.0,312.017,0.515999972820282,-2.4773842942562956
312.362069,,0.0,312.483,0.5080000162124634,-2.494980211658322
312.827586,,0.0,312.95,0.5149999856948853,-2.479843142867236
313.29310300000003,,0.0,313.415,0.5199999809265137,-2.4690062630205696
313.758621,,0.0,313.88,0.5199999809265137,-2.4690035688505176
314.224138,,0.0,314.345,0.4909999966621399,-2.532123215143858
314.689655,,0.0,314.806,0.503000020980835,-2.505862573201442
315.155172,,0.0,315.276,0.5019999742507935,-2.507872612873178
315.62068999999997,,0.0,315.738,0.5009999871253967,-2.509835628914467
316.086207,,0.0,316.201,0.5009999871253967,-2.5095797857522517
316.551724,,0.0,316.669,0.5040000081062317,-2.5027554810350616
317.017241,,0.0,317.131,0.5460000038146973,-2.410939327010689
317.482759,,0.0,317.597,0.49000000953674316,-2.53261515290047
317.94827599999996,,0.0,318.062,0.5130000114440918,-2.4821729930972176
318.413793,,0.0,318.527,0.5370000004768372,-2.429557434216189
318.87931000000003,,0.0,318.994,0.5109999775886536,-2.485888782884204
319.344828,,0.0,319.459,0.49900001287460327,-2.511743711215472
319.810345,,0.0,319.925,0.5080000162124634,-2.491881518223944
320.275862,,0.0,320.39,0.503000020980835,-2.502562651670262
320.741379,,0.0,320.85,0.5040000081062317,-2.5002206781935894
321.20689699999997,,0.0,321.316,0.49000000953674316,-2.5306124833641412
321.672414,,0.0,321.78,0.5429999828338623,-2.4150917636106195
322.137931,,0.0,322.249,0.5199999809265137,-2.4652055349299067
322.603448,,0.0,322.709,0.503000020980835,-2.502304567595312
323.068966,,0.0,323.179,0.5249999761581421,-2.454492499059993
323.53448299999997,,0.0,323.646,0.5090000033378601,-2.489521197983095
324.0,,0.0,324.111,0.4959999918937683,-2.518061551039443
324.465517,,0.0,324.569,0.4909999966621399,-2.5292144457970736
324.931034,,0.0,325.035,0.5120000243186951,-2.4837562844696204
325.396552,,0.0,325.501,0.503000020980835,-2.50368201408741
325.86206899999996,,0.0,325.968,0.5210000276565552,-2.464798378211781
326.327586,,0.0,326.434,0.5019999742507935,-2.5065287230770057
326.793103,,0.0,326.898,0.5139999985694885,-2.4807144240853805
327.258621,,0.0,327.363,0.492000013589859,-2.5289580539015835
327.724138,,0.0,327.824,0.5180000066757202,-2.4726008630879606
328.189655,,0.0,328.293,0.4970000088214874,-2.518605415527082
328.655172,,0.0,328.754,0.5410000085830688,-2.4229546781857536
329.12068999999997,,0.0,329.223,0.5109999775886536,-2.4884737763653177
329.586207,,0.0,329.684,0.5109999775886536,-2.488578435863469
330.051724,,0.0,330.153,0.49900001287460327,-2.514769487608644
330.517241,,0.0,330.619,0.5180000066757202,-2.473363821102147
330.982759,,0.0,331.082,0.5049999952316284,-2.5016163590240996
331.44827599999996,,0.0,331.548,0.4880000054836273,-2.5385274537978426
331.913793,,0.0,332.013,0.5230000019073486,-2.4620968989015224
332.37931,,0.0,332.478,0.5049999952316284,-2.501087614133531
332.844828,,0.0,332.943,0.49799999594688416,-2.5160730510157645
333.310345,,0.0,333.408,0.49799999594688416,-2.5157765287881038
333.77586199999996,,0.0,333.869,0.46700000762939453,-2.5829964552617954
334.241379,,0.0,334.335,0.5120000243186951,-2.484627376484032
334.706897,,0.0,334.805,0.5,-2.5104388619360263
335.17241399999995,,0.0,335.267,0.48100000619888306,-2.5515083184479863
335.637931,,0.0,335.735,0.515999972820282,-2.4749483997856565
336.103448,,0.0,336.198,0.5090000033378601,-2.489917661192334
336.56896600000005,,0.0,336.666,0.4440000057220459,-2.6312840053736393
337.034483,,0.0,337.128,0.49799999594688416,-2.513435437410794
337.5,,0.0,337.594,0.5199999809265137,-2.4653527686505257
337.965517,,0.0,338.061,0.5099999904632568,-2.4870387885284018
338.431034,,0.0,338.519,0.5019999742507935,-2.504422599401601
338.89655200000004,,0.0,338.987,0.5170000195503235,-2.471753903838002
339.36206899999996,,0.0,339.452,0.49900001287460327,-2.5110368691672607
339.827586,,0.0,339.917,0.49000000953674316,-2.5307666355829967
340.293103,,0.0,340.383,0.515999972820282,-2.474294917686928
340.758621,,0.0,340.851,0.503000020980835,-2.502835728428227
341.224138,,0.0,341.309,0.4950000047683716,-2.5205224109732174
341.68965499999996,,0.0,341.779,0.5180000066757202,-2.4707022894210176
342.155172,,0.0,342.242,0.5210000276565552,-2.4644770421735385
342.62069,,0.0,342.705,0.5009999871253967,-2.5083733264851062
343.086207,,0.0,343.175,0.5009999871253967,-2.50870005040641
343.551724,,0.0,343.634,0.5070000290870667,-2.495948819754522
344.01724099999996,,0.0,344.104,0.46299999952316284,-2.592115268838236
344.48275900000004,,0.0,344.569,0.5099999904632568,-2.4900011630809296
344.948276,,0.0,345.035,0.4880000054836273,-2.5381813622097065
345.413793,,0.0,345.5,0.5180000066757202,-2.4730312297389663
345.87931,,0.0,345.965,0.4860000014305115,-2.542910312246662
346.344828,,0.0,346.43,0.5149999856948853,-2.4798399231737647
346.81034500000004,,0.0,346.895,0.4959999918937683,-2.5212892460270107
347.275862,,0.0,347.354,0.5080000162124634,-2.495143222845567
347.741379,,0.0,347.824,0.49799999594688416,-2.5168704912895232
348.206897,,0.0,348.287,0.5070000290870667,-2.4971479140329254
348.672414,,0.0,348.754,0.5299999713897705,-2.4468718543042547
349.13793100000004,,0.0,349.216,0.5009999871253967,-2.5098373031295558
349.60344799999996,,0.0,349.679,0.4959999918937683,-2.520474316738654
350.068966,,0.0,350.149,0.5049999952316284,-2.500577639732918
350.534483,,0.0,350.615,0.5059999823570251,-2.498086019120527
351.0,,0.0,351.079,0.5019999742507935,-2.506472757183209
351.465517,,0.0,351.544,0.5049999952316284,-2.499603969057693
351.93103399999995,,0.0,352.009,0.49900001287460327,-2.5123482282429914
352.396552,,0.0,352.474,0.5109999775886536,-2.485891946964245
352.862069,,0.0,352.939,0.5090000033378601,-2.489960798136892
353.32758600000005,,0.0,353.405,0.5210000276565552,-2.4635610979721108
353.793103,,0.0,353.865,0.5109999775886536,-2.48513193248675
354.258621,,0.0,354.331,0.49399998784065247,-2.5220003380903786
354.72413800000004,,0.0,354.794,0.5009999871253967,-2.506634229638775
355.189655,,0.0,355.264,0.5040000081062317,-2.500039302226088
355.655172,,0.0,355.724,0.4959999918937683,-2.517468003414581
356.12069,,0.0,356.194,0.4659999907016754,-2.582886257310601
356.586207,,0.0,356.657,0.5180000066757202,-2.4697131037703883
357.05172400000004,,0.0,357.12,0.4970000088214874,-2.5156347260191994
357.517241,,0.0,357.585,0.503000020980835,-2.5027806941849295
357.982759,,0.0,358.051,0.49900001287460327,-2.5117547291302604
358.448276,,0.0,358.517,0.503000020980835,-2.503333150609356
358.913793,,0.0,358.983,0.503000020980835,-2.5036508238674178
359.37931000000003,,0.0,359.449,0.4880000054836273,-2.5366634556490153
359.844828,,0.0,359.913,0.5090000033378601,-2.491249912280201
360.310345,,0.0,360.378,0.5109999775886536,-2.4872251402385883
360.775862,,0.0,360.839,0.49000000953674316,-2.533293356010001
361.241379,,0.0,361.309,0.503000020980835,-2.5052625834874265
361.706897,,0.0,361.772,0.5149999856948853,-2.479376390859662
362.172414,,0.0,362.235,0.5220000147819519,-2.4643404557696313
362.63793100000004,,0.0,362.705,0.5170000195503235,-2.4753985957588176
363.103448,,0.0,363.168,0.4970000088214874,-2.5190821897143256
363.568966,,0.0,363.634,0.5149999856948853,-2.479920020514216
364.034483,,0.0,364.097,0.5120000243186951,-2.486450427049535
364.5,,0.0,364.563,0.5139999985694885,-2.482028782934263
364.96551700000003,,0.0,365.028,0.5170000195503235,-2.475371417159779
365.431034,,0.0,365.494,0.4909999966621399,-2.531842136672037
365.896552,,0.0,365.958,0.5009999871253967,-2.5098347492921773
366.362069,,0.0,366.424,0.49000000953674316,-2.533539340651175
366.827586,,0.0,366.89,0.4970000088214874,-2.517996774485395
367.29310300000003,,0.0,367.356,0.4970000088214874,-2.517682063425292
367.758621,,0.0,367.817,0.5009999871253967,-2.508639451099747
368.224138,,0.0,368.279,0.5070000290870667,-2.49523570611647
368.689655,,0.0,368.746,0.503000020980835,-2.5036246527243984
369.155172,,0.0,369.209,0.5049999952316284,-2.498957646265983
369.62068999999997,,0.0,369.68,0.5019999742507935,-2.5052091584055223
370.086207,,0.0,370.142,0.46399998664855957,-2.5877479354175215
370.55172400000004,,0.0,370.607,0.531000018119812,-2.4415708084868712
371.017241,,0.0,371.071,0.5009999871253967,-2.5067700248694464
371.482759,,0.0,371.537,0.44699999690055847,-2.624309573441307
371.948276,,0.0,372.002,0.515999972820282,-2.4739325820183193
372.413793,,0.0,372.467,0.527999997138977,-2.44779527736095
372.87931000000003,,0.0,372.931,0.503000020980835,-2.502323137823054
373.344828,,0.0,373.397,0.5019999742507935,-2.5046174501001017
373.810345,,0.0,373.861,0.49799999594688416,-2.5134984346146534
374.275862,,0.0,374.327,0.503000020980835,-2.5028174138706323
374.741379,,0.0,374.795,0.503000020980835,-2.503068956881874
375.20689699999997,,0.0,375.258,0.4959999918937683,-2.518602774560925
375.672414,,0.0,375.72,0.5170000195503235,-2.473157258107127
376.137931,,0.0,376.19,0.49900001287460327,-2.5126925524847996
376.603448,,0.0,376.654,0.5019999742507935,-2.5064803166632337
377.068966,,0.0,377.116,0.5009999871253967,-2.5089771414809
377.53448299999997,,0.0,377.582,0.5009999871253967,-2.5092803817414535
378.0,,0.0,378.046,0.5059999823570251,-2.498666293151906
378.465517,,0.0,378.512,0.5139999985694885,-2.481483467363743
378.931034,,0.0,378.977,0.5049999952316284,-2.501297446266058
379.396552,,0.0,379.442,0.49799999594688416,-2.516708090003148
379.862069,,0.0,379.91,0.5130000114440918,-2.484137866122851
380.327586,,0.0,380.376,0.5540000200271606,-2.394867881509425
380.79310300000003,,0.0,380.839,0.5109999775886536,-2.4885471777961143
381.258621,,0.0,381.302,0.5180000066757202,-2.4732375211963062
381.724138,,0.0,381.765,0.49799999594688416,-2.516698107462053
382.189655,,0.0,382.235,0.503000020980835,-2.5056431816532734
382.655172,,0.0,382.695,0.5090000033378601,-2.49236566870218
383.12068999999997,,0.0,383.165,0.5149999856948853,-2.479050078470363
383.586207,,0.0,383.631,0.46700000762939453,-2.5833514382495575
384.051724,,0.0,384.094,0.5260000228881836,-2.4545162433973156
384.517241,,0.0,384.559,0.5210000276565552,-2.4651012130310694
384.982759,,0.0,385.024,0.49900001287460327,-2.5127186172754588
385.44827599999996,,0.0,385.49,0.5090000033378601,-2.490624702062656
385.913793,,0.0,385.955,0.5170000195503235,-2.472902562522348
386.37931,,0.0,386.42,0.503000020980835,-2.5031337510488156
386.84482799999995,,0.0,386.88,0.5149999856948853,-2.476751285418893
387.310345,,0.0,387.346,0.5080000162124634,-2.49180112277564
387.775862,,0.0,387.814,0.4909999966621399,-2.5286818814704546
388.241379,,0.0,388.276,0.5210000276565552,-2.4632150378725415
388.70689699999997,,0.0,388.746,0.515999972820282,-2.4740524162119053
389.172414,,0.0,389.208,0.5040000081062317,-2.5001927650428275
389.637931,,0.0,389.669,0.5289999842643738,-2.4457758113365746
390.103448,,0.0,390.139,0.5049999952316284,-2.498163256706924
390.56896600000005,,0.0,390.605,0.5090000033378601,-2.48959639004913
391.03448299999997,,0.0,391.068,0.5149999856948853,-2.4767157606124925
391.5,,0.0,391.534,0.49900001287460327,-2.511802947585428
391.965517,,0.0,391.994,0.492000013589859,-2.5273136434619374
392.431034,,0.0,392.46,0.5040000081062317,-2.501453765881021
392.896552,,0.0,392.925,0.5019999742507935,-2.5061099150671193
393.36206899999996,,0.0,393.39,0.4129999876022339,-2.700315802395529
393.827586,,0.0,393.857,0.5180000066757202,-2.471863197077377
394.293103,,0.0,394.323,0.5120000243186951,-2.4852286447759844
394.75862099999995,,0.0,394.791,0.5130000114440918,-2.483320859979232
395.224138,,0.0,395.253,0.5009999871253967,-2.509704836996587
395.68965499999996,,0.0,395.721,0.4300000071525574,-2.664592796273486
396.155172,,0.0,396.183,0.503000020980835,-2.505714371859321
396.62069,,0.0,396.65,0.49900001287460327,-2.5145447445226634
397.086207,,0.0,397.112,0.503000020980835,-2.505893762850816
397.551724,,0.0,397.578,0.5049999952316284,-2.501545924819372
398.017241,,0.0,398.043,0.5009999871253967,-2.510215323315482
398.48275900000004,,0.0,398.508,0.515999972820282,-2.4774369837899246
398.94827599999996,,0.0,398.976,0.5199999809265137,-2.46857279223551
399.413793,,0.0,399.434,0.49000000953674316,-2.5337364457805567
399.87931,,0.0,399.905,0.4860000014305115,-2.5422163117619836
400.344828,,0.0,400.364,0.49399998784065247,-2.524521240334513
400.810345,,0.0,400.832,0.5040000081062317,-2.5024454296696197
401.27586199999996,,0.0,401.294,0.4869999885559082,-2.5391785692115865
401.741379,,0.0,401.761,0.4950000047683716,-2.5214403815216384
402.206897,,0.0,402.231,0.4909999966621399,-2.52985059939639
402.672414,,0.0,402.691,0.5049999952316284,-2.4990587450029085
403.137931,,0.0,403.161,0.5820000171661377,-2.3310325826918907
403.60344799999996,,0.0,403.619,0.46399998664855957,-2.587871163007342
404.068966,,0.0,404.09,0.5130000114440918,-2.480912808563319
404.534483,,0.0,404.555,0.5170000195503235,-2.472038000313561
405.0,,0.0,405.02,0.515999972820282,-2.4741048345379197
405.465517,,0.0,405.486,0.4959999918937683,-2.517618045636599
405.931034,,0.0,405.95,0.5120000243186951,-2.4827544896187845
406.39655200000004,,0.0,406.416,0.5009999871253967,-2.5067695316498493
406.862069,,0.0,406.88,0.503000020980835,-2.5025155762159907
407.327586,,0.0,407.339,0.4970000088214874,-2.515741699376149
407.793103,,0.0,407.809,0.503000020980835,-2.502870196347438
408.258621,,0.0,408.272,0.492000013589859,-2.52707599127944
408.72413800000004,,0.0,408.735,0.492000013589859,-2.5273497806742067
409.18965499999996,,0.0,409.205,0.5009999871253967,-2.5080405445387783
409.655172,,0.0,409.669,0.5019999742507935,-2.5061756408063944
410.12069,,0.0,410.131,0.4950000047683716,-2.5217451914486833
410.586207,,0.0,410.596,0.515999972820282,-2.476307972516672
411.05172400000004,,0.0,411.061,0.4830000102519989,-2.5485030876861865
411.51724099999996,,0.0,411.526,0.5170000195503235,-2.474705019069613
411.982759,,0.0,411.991,0.503000020980835,-2.5054493276540803
412.448276,,0.0,412.457,0.5040000081062317,-2.5034733369595896
412.913793,,0.0,412.921,0.5099999904632568,-2.490557228757476
413.37931,,0.0,413.387,0.5,-2.5124475612127335
413.844828,,0.0,413.854,0.5120000243186951,-2.4863523891145034
414.31034500000004,,0.0,414.319,0.5360000133514404,-2.434055983566459
414.775862,,0.0,414.78,0.5120000243186951,-2.4862766947712167
415.241379,,0.0,415.25,0.5009999871253967,-2.510119767610079
415.706897,,0.0,415.713,0.5109999775886536,-2.4881603063291213
416.172414,,0.0,416.175,0.5009999871253967,-2.509728349451815
416.63793100000004,,0.0,416.641,0.5009999871253967,-2.5094714728621925
417.103448,,0.0,417.105,0.49900001287460327,-2.513541617171551
417.568966,,0.0,417.571,0.5009999871253967,-2.508876031400464
418.034483,,0.0,418.035,0.5090000033378601,-2.4911266215855843
418.5,,0.0,418.501,0.5049999952316284,-2.4995189209163295
418.96551700000003,,0.0,418.968,0.5059999823570251,-2.497025869937726
419.43103399999995,,0.0,419.434,0.5059999823570251,-2.4967291659323916
419.896552,,0.0,419.899,0.5059999823570251,-2.496459428755341
420.362069,,0.0,420.365,0.492000013589859,-2.5267263695743245
420.827586,,0.0,420.827,0.49900001287460327,-2.511285113268546
421.293103,,0.0,421.29,0.5090000033378601,-2.489357065968566
421.758621,,0.0,421.761,0.5389999747276306,-2.4239085702993433
422.22413800000004,,0.0,422.223,0.5170000195503235,-2.471804085619311
422.689655,,0.0,422.684,0.5009999871253967,-2.506684011414339
423.15517200000005,,0.0,423.153,0.503000020980835,-2.5024046650311456
423.62069,,0.0,423.619,0.515999972820282,-2.474214584787374
424.086207,,0.0,424.082,0.492000013589859,-2.526684483384722
424.55172400000004,,0.0,424.547,0.5009999871253967,-2.507304168119817
425.017241,,0.0,425.013,0.5040000081062317,-2.5010337672372147
425.482759,,0.0,425.479,0.49000000953674316,-2.5318303360891314
425.948276,,0.0,425.943,0.4830000102519989,-2.5473976742778044
426.413793,,0.0,426.41,0.5189999938011169,-2.469294409011092
426.87931000000003,,0.0,426.869,0.5099999904632568,-2.4892302808943976
427.344828,,0.0,427.334,0.5009999871253967,-2.5091556431105393
427.810345,,0.0,427.802,0.5180000066757202,-2.47241578331016
428.275862,,0.0,428.265,0.4880000054836273,-2.538042939616268
428.741379,,0.0,428.735,0.503000020980835,-2.5055933899639897
429.20689699999997,,0.0,429.198,0.5230000019073486,-2.4622055550554065
429.672414,,0.0,429.665,0.48899999260902405,-2.5364133623029366
430.137931,,0.0,430.128,0.515999972820282,-2.47766830465086
430.603448,,0.0,430.594,0.5320000052452087,-2.4428297608621325
431.068966,,0.0,431.06,0.5210000276565552,-2.466754646946892
431.534483,,0.0,431.519,0.49000000953674316,-2.5341943878926116
432.0,,0.0,431.984,0.515999972820282,-2.477396881262003
432.46551700000003,,0.0,432.45,0.4950000047683716,-2.522946216317207
432.931034,,0.0,432.917,0.49300000071525574,-2.527058415738661
433.396552,,0.0,433.383,0.5049999952316284,-2.5006345344528147
433.862069,,0.0,433.85,0.503000020980835,-2.5046850289509046
434.327586,,0.0,434.316,0.515999972820282,-2.476038462560533
434.79310300000003,,0.0,434.777,0.5249999761581421,-2.4560983946776824
435.258621,,0.0,435.24,0.5009999871253967,-2.508056012016308
435.724138,,0.0,435.71,0.5009999871253967,-2.5077394340822683
436.189655,,0.0,436.171,0.5070000290870667,-2.4943745212906325
436.655172,,0.0,436.637,0.49399998784065247,-2.5224370121496804
437.12068999999997,,0.0,437.1,0.515999972820282,-2.4742877600499096
437.586207,,0.0,437.565,0.4950000047683716,-2.519868078412301
438.051724,,0.0,438.032,0.5049999952316284,-2.497963718027251
438.517241,,0.0,438.498,0.5049999952316284,-2.497902948717268
438.982759,,0.0,438.964,0.503000020980835,-2.5022583443226827
439.448276,,0.0,439.43,0.527999997138977,-2.447848957039321
439.913793,,0.0,439.895,0.4959999918937683,-2.5176791578211586
440.37931000000003,,0.0,440.361,0.5070000290870667,-2.4938810194137186
440.844828,,0.0,440.821,0.5170000195503235,-2.472310147849509
441.310345,,0.0,441.291,0.4860000014305115,-2.540105752533314
441.775862,,0.0,441.754,0.4690000116825104,-2.5774353384215285
442.241379,,0.0,442.216,0.5109999775886536,-2.4862511373634333
442.70689699999997,,0.0,442.684,0.5180000066757202,-2.4713345361770065
443.172414,,0.0,443.146,0.5009999871253967,-2.508709393417907
443.637931,,0.0,443.612,0.5130000114440918,-2.48289674771963
444.103448,,0.0,444.078,0.46299999952316284,-2.5921442292999735
444.568966,,0.0,444.543,0.5199999809265137,-2.4682506858163658
445.03448299999997,,0.0,445.009,0.5329999923706055,-2.440181451765169
445.5,,0.0,445.475,0.49399998784065247,-2.525356954866652
445.965517,,0.0,445.939,0.4959999918937683,-2.521157335011501
446.431034,,0.0,446.406,0.515999972820282,-2.4776868524898332
446.896552,,0.0,446.865,0.5170000195503235,-2.4755512362623224
447.36206899999996,,0.0,447.33,0.5149999856948853,-2.479890625556135
447.827586,,0.0,447.799,0.5130000114440918,-2.4841693891198666
448.29310300000003,,0.0,448.26,0.503000020980835,-2.505819639506296
448.758621,,0.0,448.724,0.49799999594688416,-2.5165237666661775
449.224138,,0.0,449.194,0.5049999952316284,-2.5010372926185718
449.689655,,0.0,449.654,0.515999972820282,-2.4767965553545
450.155172,,0.0,450.124,0.5070000290870667,-2.4960972158881107
450.62068999999997,,0.0,450.59,0.49300000071525574,-2.52626995850968
451.086207,,0.0,451.05,0.5460000038146973,-2.410461838796429
451.551724,,0.0,451.516,0.503000020980835,-2.5038025277452216
452.017241,,0.0,451.983,0.515999972820282,-2.475148695141015
452.482759,,0.0,452.449,0.5049999952316284,-2.498803036622886
452.94827599999996,,0.0,452.913,0.503000020980835,-2.502880366441865
453.413793,,0.0,453.378,0.4259999990463257,-2.6703979645977856
453.87931,,0.0,453.839,0.503000020980835,-2.5024539883305326
454.344828,,0.0,454.309,0.515999972820282,-2.4739984132501824
454.810345,,0.0,454.772,0.5070000290870667,-2.4935299419213512
455.27586199999996,,0.0,455.235,0.6190000176429749,-2.2495024300125626
455.741379,,0.0,455.703,0.5189999938011169,-2.4674043909124763
456.206897,,0.0,456.165,0.503000020980835,-2.5023564115645773
456.672414,,0.0,456.631,0.503000020980835,-2.5025065207705572
457.137931,,0.0,457.094,0.5289999842643738,-2.446063528358527
457.603448,,0.0,457.559,0.503000020980835,-2.5029551843839046
458.06896600000005,,0.0,458.024,0.5080000162124634,-2.4923466624525683
458.53448299999997,,0.0,458.49,0.48100000619888306,-2.551484798470402
459.0,,0.0,458.955,0.5099999904632568,-2.488639059311141
459.465517,,0.0,459.42,0.515999972820282,-2.4759115575862625
459.931034,,0.0,459.888,0.492000013589859,-2.528541575185009
460.39655200000004,,0.0,460.353,0.5009999871253967,-2.509264307822828
460.86206899999996,,0.0,460.816,0.5040000081062317,-2.50303641543523
461.327586,,0.0,461.286,0.5149999856948853,-2.4793467076983164
461.793103,,0.0,461.746,0.47699999809265137,-2.5623694427442847
462.258621,,0.0,462.209,0.503000020980835,-2.505910477077276
462.724138,,0.0,462.68,0.515999972820282,-2.4777193759861396
463.18965499999996,,0.0,463.142,0.5210000276565552,-2.4668970405721837
463.655172,,0.0,463.607,0.5509999990463257,-2.4015449548677927
464.12069,,0.0,464.071,0.503000020980835,-2.5060629215584376
464.58620699999994,,0.0,464.537,0.515999972820282,-2.477621577693131
465.051724,,0.0,465.001,0.49799999594688416,-2.5166607042948286
465.517241,,0.0,465.467,0.5080000162124634,-2.494645841703844
465.98275900000004,,0.0,465.932,0.5080000162124634,-2.4943727485346776
466.448276,,0.0,466.398,0.49000000953674316,-2.5332792532416453
466.913793,,0.0,466.865,0.5070000290870667,-2.4959068975390784
467.37931,,0.0,467.33,0.4959999918937683,-2.5195211698109605
467.844828,,0.0,467.791,0.4959999918937683,-2.519165644733478
468.31034500000004,,0.0,468.261,0.5139999985694885,-2.479600877152087
468.77586199999996,,0.0,468.721,0.5070000290870667,-2.494519184930216
469.241379,,0.0,469.19,0.5049999952316284,-2.4985717281213806
469.706897,,0.0,469.654,0.5109999775886536,-2.4852321346275708
470.172414,,0.0,470.116,0.4970000088214874,-2.515511109064245
470.63793100000004,,0.0,470.582,0.5210000276565552,-2.463054203765376
471.10344799999996,,0.0,471.046,0.5260000228881836,-2.452049199013341
471.568966,,0.0,471.512,0.5090000033378601,-2.489035415334996
472.034483,,0.0,471.979,0.5090000033378601,-2.4890478369910793
472.5,,0.0,472.445,0.5059999823570251,-2.4956597802381135
472.965517,,0.0,472.91,0.5170000195503235,-2.4718318177465624
473.43103399999995,,0.0,473.376,0.503000020980835,-2.5025273261002132
473.89655200000004,,0.0,473.839,0.49900001287460327,-2.5114880559072765
474.362069,,0.0,474.301,0.5109999775886536,-2.4856348232298657
474.827586,,0.0,474.765,0.5049999952316284,-2.499032317965165
475.293103,,0.0,475.235,0.5070000290870667,-2.4950256100813575
475.758621,,0.0,475.695,0.5170000195503235,-2.4736037585603587
476.22413800000004,,0.0,476.164,0.515999972820282,-2.476149291911211
476.689655,,0.0,476.63,0.49799999594688416,-2.515722556545047
477.155172,,0.0,477.093,0.5090000033378601,-2.492095105024033
477.62069,,0.0,477.558,0.4970000088214874,-2.5185461353426333
478.086207,,0.0,478.019,0.5009999871253967,-2.5100987690716288
478.55172400000004,,0.0,478.485,0.5149999856948853,-2.479816031560874
479.01724099999996,,0.0,478.95,0.5170000195503235,-2.475620446099112
479.482759,,0.0,479.415,0.5669999718666077,-2.3667867072745223
479.948276,,0.0,479.88,0.49300000071525574,-2.528038287838576
480.413793,,0.0,480.346,0.5149999856948853,-2.4800728566426855
480.87931000000003,,0.0,480.809,0.515999972820282,-2.4777937441137405
481.344828,,0.0,481.279,0.503000020980835,-2.5059530517205784
481.810345,,0.0,481.74,0.5049999952316284,-2.5013756284964326
482.275862,,0.0,482.209,0.49900001287460327,-2.514177183114404
482.74137900000005,,0.0,482.672,0.5540000200271606,-2.394038522825749
483.206897,,0.0,483.135,0.503000020980835,-2.5048027683592347
483.672414,,0.0,483.6,0.4909999966621399,-2.5305777470757187
484.13793100000004,,0.0,484.065,0.5070000290870667,-2.495341072144477
484.603448,,0.0,484.53,0.5410000085830688,-2.420890314904393
485.068966,,0.0,484.994,0.503000020980835,-2.503314696479925
485.534483,,0.0,485.46,0.515999972820282,-2.4746526082298472
486.0,,0.0,485.925,0.5210000276565552,-2.4634549059313353
486.46551700000003,,0.0,486.39,0.5,-2.5089473434222938
486.931034,,0.0,486.856,0.49000000953674316,-2.5305288329892606
487.396552,,0.0,487.322,0.5130000114440918,-2.4802761412556524
487.862069,,0.0,487.786,0.5080000162124634,-2.491090952114077
488.327586,,0.0,488.256,0.49900001287460327,-2.510688262556606
488.79310300000003,,0.0,488.717,0.5090000033378601,-2.4889598730128237
489.258621,,0.0,489.179,0.49399998784065247,-2.5217647487093067
489.724138,,0.0,489.645,0.5210000276565552,-2.463129324982915
490.189655,,0.0,490.11,0.503000020980835,-2.50259011095314
490.655172,,0.0,490.575,0.5040000081062317,-2.500706011710752
491.12069,,0.0,491.042,0.5120000243186951,-2.48361171165113
491.586207,,0.0,491.508,0.49399998784065247,-2.5231923565780754
492.05172400000004,,0.0,491.973,0.5,-2.51050422706846
492.517241,,0.0,492.438,0.47200000286102295,-2.5718976543364795
492.982759,,0.0,492.905,0.5080000162124634,-2.4938528496458696
493.448276,,0.0,493.371,0.5009999871253967,-2.5094724039370866
493.913793,,0.0,493.831,0.5090000033378601,-2.4923821192946347
494.37931000000003,,0.0,494.294,0.503000020980835,-2.505751993064203
494.844828,,0.0,494.761,0.5230000019073486,-2.462426243014658
495.310345,,0.0,495.231,0.5049999952316284,-2.5018300165452456
495.775862,,0.0,495.694,0.5049999952316284,-2.5019531438030462
496.241379,,0.0,496.157,0.5009999871253967,-2.5107222824923845
496.70689699999997,,0.0,496.622,0.49900001287460327,-2.515063728197701
497.172414,,0.0,497.085,0.5040000081062317,-2.504084744783127
497.637931,,0.0,497.551,0.49900001287460327,-2.5148247500457317
498.103448,,0.0,498.016,0.5339999794960022,-2.4383554901384317
498.568966,,0.0,498.481,0.5,-2.512155648977314
499.03448299999997,,0.0,498.947,0.4959999918937683,-2.5205483777416458
499.5,,0.0,499.412,0.5040000081062317,-2.5027599889266985
499.96551700000003,,0.0,499.88,0.515999972820282,-2.4762306975904687
500.431034,,0.0,500.345,0.49399998784065247,-2.5237609379085963
500.89655200000004,,0.0,500.806,0.49399998784065247,-2.523359758716722
501.362069,,0.0,501.275,0.5019999742507935,-2.505541233406161
501.827586,,0.0,501.739,0.4659999907016754,-2.5836077663295938
502.293103,,0.0,502.201,0.5130000114440918,-2.480882868772242
502.758621,,0.0,502.665,0.492000013589859,-2.5263523653870203
503.224138,,0.0,503.134,0.5139999985694885,-2.4781946640496106
503.68965499999996,,0.0,503.6,0.5170000195503235,-2.47149269240527
504.15517200000005,,0.0,504.064,0.5,-2.5084304302273446
504.62068999999997,,0.0,504.529,0.531000018119812,-2.44086286081845
505.08620699999994,,0.0,504.994,0.49900001287460327,-2.5106210659578396
505.55172400000004,,0.0,505.46,0.4950000047683716,-2.5194475333569537
506.017241,,0.0,505.925,0.5009999871253967,-2.5065553030361483
506.48275899999993,,0.0,506.391,0.515999972820282,-2.4741171127695343
506.948276,,0.0,506.85,0.5170000195503235,-2.472233656640146
507.413793,,0.0,507.316,0.5070000290870667,-2.494359949483346
507.87931,,0.0,507.783,0.503000020980835,-2.5034488108541555
508.344828,,0.0,508.245,0.5059999823570251,-2.4973102605633053
508.810345,,0.0,508.713,0.5009999871253967,-2.508611528720606
509.27586199999996,,0.0,509.176,0.4729999899864197,-2.5700203202108716
509.74137900000005,,0.0,509.641,0.5180000066757202,-2.472373765849822
510.20689699999997,,0.0,510.105,0.49900001287460327,-2.5141336189867056
510.67241399999995,,0.0,510.571,0.5210000276565552,-2.466529489492896
511.13793100000004,,0.0,511.036,0.515999972820282,-2.4776988934614215
511.603448,,0.0,511.502,0.5130000114440918,-2.48445161429411
512.0689659999999,,0.0,511.968,0.5210000276565552,-2.467173109731147
512.534483,,0.0,512.434,0.503000020980835,-2.5064685686903645
513.0,,0.0,512.898,0.5180000066757202,-2.4737952031111003
513.465517,,0.0,513.364,0.5120000243186951,-2.486799491723924
513.931034,,0.0,513.824,0.5049999952316284,-2.5019106482146873
514.396552,,0.0,514.294,0.5009999871253967,-2.5104186017413115
514.862069,,0.0,514.754,0.5070000290870667,-2.497079256650843
515.327586,,0.0,515.223,0.5049999952316284,-2.5011167197398136
515.793103,,0.0,515.684,0.515999972820282,-2.476788848272954
516.258621,,0.0,516.153,0.49900001287460327,-2.513431390609875
516.724138,,0.0,516.619,0.48500001430511475,-2.5435194521834914
517.189655,,0.0,517.082,0.5070000290870667,-2.4951708438180646
517.655172,,0.0,517.547,0.5180000066757202,-2.4707945140196452
518.1206900000001,,0.0,518.013,0.5090000033378601,-2.490010425784043
518.5862070000001,,0.0,518.478,0.515999972820282,-2.4743996449376815
519.051724,,0.0,518.942,0.5149999856948853,-2.4762609174444
519.517241,,0.0,519.408,0.515999972820282,-2.473817882300709
519.982759,,0.0,519.872,0.5009999871253967,-2.506294850649741
520.448276,,0.0,520.338,0.5090000033378601,-2.488731527402996
520.9137929999999,,0.0,520.806,0.515999972820282,-2.4734198924843187
521.37931,,0.0,521.268,0.5080000162124634,-2.4908626785277383
521.844828,,0.0,521.732,0.49399998784065247,-2.521452622046404
522.310345,,0.0,522.194,0.5249999761581421,-2.454075983318486
522.7758620000001,,0.0,522.665,0.5109999775886536,-2.4848057417317166
523.241379,,0.0,523.127,0.5239999890327454,-2.4567719207561285
523.7068969999999,,0.0,523.593,0.5239999890327454,-2.4571114877317184
524.172414,,0.0,524.058,0.5419999957084656,-2.418275271691943
524.637931,,0.0,524.523,0.5120000243186951,-2.4840423032809538
525.103448,,0.0,524.984,0.5130000114440918,-2.4822876401736442
525.568966,,0.0,525.449,0.515999972820282,-2.476179445210811
526.034483,,0.0,525.916,0.5419999957084656,-2.4199520160540606
526.5,,0.0,526.382,0.5329999923706055,-2.439953361399072
526.9655170000001,,0.0,526.854,0.5130000114440918,-2.483883774681193
527.4310340000001,,0.0,527.312,0.5149999856948853,-2.479837715895268
527.8965519999999,,0.0,527.776,0.5379999876022339,-2.429983805639612
528.362069,,0.0,528.245,0.5149999856948853,-2.4802831151276004
528.827586,,0.0,528.706,0.5419999957084656,-2.4215791695662063
529.293103,,0.0,529.176,0.5540000200271606,-2.3954795102953272
529.7586210000001,,0.0,529.634,0.5339999794960022,-2.4390192763508693
530.224138,,0.0,530.104,0.5299999713897705,-2.4476246415763905
530.689655,,0.0,530.57,0.5540000200271606,-2.3951551708376617
531.155172,,0.0,531.035,0.550000011920929,-2.4036203324252554
531.62069,,0.0,531.5,0.5519999861717224,-2.3989533891153574
532.086207,,0.0,531.965,0.550000011920929,-2.402950405351973
532.5517239999999,,0.0,532.43,0.5540000200271606,-2.3938363106006006
533.017241,,0.0,532.895,0.503000020980835,-2.50452210375508
533.482759,,0.0,533.361,0.5389999747276306,-2.425654239455599
533.9482760000001,,0.0,533.824,0.5630000233650208,-2.3729315783441747
534.413793,,0.0,534.286,0.5419999957084656,-2.4182624297939146
534.87931,,0.0,534.754,0.5630000233650208,-2.3721172471410155
535.344828,,0.0,535.216,0.5690000057220459,-2.358691211218114
535.810345,,0.0,535.679,0.5440000295639038,-2.412853646043722
536.275862,,0.0,536.149,0.5519999861717224,-2.3951816498914535
536.7413789999999,,0.0,536.615,0.5649999976158142,-2.3666849167367037
537.206897,,0.0,537.079,0.5690000057220459,-2.3578696758374535
537.672414,,0.0,537.545,0.5440000295639038,-2.41231238888751
538.137931,,0.0,538.009,0.5730000138282776,-2.3491866517851125
538.6034480000001,,0.0,538.474,0.5699999928474426,-2.3558542498572237
539.0689659999999,,0.0,538.939,0.5789999961853027,-2.3364501497020806
539.5344829999999,,0.0,539.404,0.6190000176429749,-2.249572953194884
540.0,,0.0,539.869,0.5759999752044678,-2.343579941173989
540.465517,,0.0,540.334,0.6179999709129333,-2.252448131519505
540.931034,,0.0,540.798,0.5690000057220459,-2.3596087537367567
541.396552,,0.0,541.261,0.625,-2.2380344535751866
541.862069,,0.0,541.728,0.5899999737739563,-2.31472691484421
542.327586,,0.0,542.191,0.6190000176429749,-2.251981728210468
542.7931030000001,,0.0,542.654,0.6039999723434448,-2.285080028238267
543.258621,,0.0,543.124,0.6169999837875366,-2.2571458742312163
543.7241379999999,,0.0,543.589,0.6039999723434448,-2.2858148045581714
544.189655,,0.0,544.054,0.6019999980926514,-2.290466489332213
544.655172,,0.0,544.52,0.6000000238418579,-2.2950576209303457
545.12069,,0.0,544.979,0.6449999809265137,-2.197184041611743
545.5862070000001,,0.0,545.446,0.6179999709129333,-2.256098662202322
546.051724,,0.0,545.913,0.5360000133514404,-2.4347634056094067
546.517241,,0.0,546.379,0.5979999899864197,-2.299629313585804
546.982759,,0.0,546.842,0.6290000081062317,-2.2319601206844326
547.448276,,0.0,547.305,0.628000020980835,-2.2339361656337444
547.9137929999999,,0.0,547.776,0.6169999837875366,-2.257633002126977
548.3793099999999,,0.0,548.238,0.6420000195503235,-2.2028405677066685
548.844828,,0.0,548.699,0.6460000276565552,-2.1937511849572036
549.310345,,0.0,549.168,0.6079999804496765,-2.27612807961174
549.775862,,0.0,549.634,0.6039999723434448,-2.284407744395326
550.241379,,0.0,550.097,0.6190000176429749,-2.2512838002273554
550.706897,,0.0,550.562,0.6119999885559082,-2.2660943937207385
551.172414,,0.0,551.028,0.6179999709129333,-2.2525999612737837
551.637931,,0.0,551.493,0.6309999823570251,-2.2238849707448844
552.103448,,0.0,551.958,0.6179999709129333,-2.251856646071553
552.568966,,0.0,552.424,0.6370000243186951,-2.2101638150259895
553.034483,,0.0,552.891,0.6190000176429749,-2.2491426252758484
553.5,,0.0,553.349,0.6690000295639038,-2.140041475075795
553.965517,,0.0,553.817,0.6520000100135803,-2.1769822195279174
554.4310340000001,,0.0,554.279,0.6169999837875366,-2.2532145202104767
554.896552,,0.0,554.75,0.625,-2.2358430509951983
555.3620689999999,,0.0,555.212,0.6060000061988831,-2.2773726033540207
555.827586,,0.0,555.68,0.609000027179718,-2.2710459393983657
556.293103,,0.0,556.142,0.6169999837875366,-2.2538941699100032
556.758621,,0.0,556.608,0.6209999918937683,-2.245516124499138
557.224138,,0.0,557.071,0.6060000061988831,-2.2785814253035093
557.689655,,0.0,557.537,0.6290000081062317,-2.2288954112464334
558.155172,,0.0,558.002,0.6150000095367432,-2.2598434810259205
558.6206900000001,,0.0,558.468,0.6169999837875366,-2.2559436033000257
559.0862070000001,,0.0,558.935,0.6190000176429749,-2.252040023649897
559.5517239999999,,0.0,559.4,0.6340000033378601,-2.219796101777384
560.017241,,0.0,559.865,0.6320000290870667,-2.224557036757514
560.482759,,0.0,560.331,0.6690000295639038,-2.14430516281837
560.948276,,0.0,560.791,0.5830000042915344,-2.3319707780652927
561.413793,,0.0,561.261,0.625,-2.2407051610504407
561.87931,,0.0,561.724,0.5960000157356262,-2.3040526266447654
562.344828,,0.0,562.186,0.6330000162124634,-2.223532581251587
562.8103450000001,,0.0,562.657,0.6589999794960022,-2.166896731075029
563.275862,,0.0,563.12,0.609000027179718,-2.275755780621949
563.7413789999999,,0.0,563.586,0.6190000176429749,-2.2538170036783924
564.206897,,0.0,564.05,0.6060000061988831,-2.2819134778787227
564.672414,,0.0,564.509,0.6169999837875366,-2.2576555707899266
565.137931,,0.0,564.976,0.5910000205039978,-2.3139498697189973
565.603448,,0.0,565.441,0.6039999723434448,-2.285230454084885
566.068966,,0.0,565.905,0.5799999833106995,-2.3370868001938985
566.534483,,0.0,566.371,0.5649999976158142,-2.3693151225232354
567.0,,0.0,566.839,0.5640000104904175,-2.371036811352683
567.465517,,0.0,567.302,0.5809999704360962,-2.3335510855790105
567.931034,,0.0,567.765,0.5680000185966492,-2.3614458245080003
568.396552,,0.0,568.234,0.5540000200271606,-2.39155363565241
568.862069,,0.0,568.698,0.5630000233650208,-2.3715990534967015
569.327586,,0.0,569.161,0.5410000085830688,-2.4192396752588636
569.793103,,0.0,569.627,0.546999990940094,-2.4059440788792905
570.2586210000001,,0.0,570.09,0.5630000233650208,-2.3709340413094706
570.724138,,0.0,570.556,0.5419999957084656,-2.416610089940779
571.189655,,0.0,571.02,0.4959999918937683,-2.5168313671229567
571.655172,,0.0,571.486,0.5640000104904175,-2.3687658083922267
572.12069,,0.0,571.951,0.550000011920929,-2.3994242209707397
572.586207,,0.0,572.416,0.5730000138282776,-2.3495407698002206
573.051724,,0.0,572.883,0.5299999713897705,-2.443509268937319
573.517241,,0.0,573.348,0.5699999928474426,-2.3567020442132818
573.982759,,0.0,573.809,0.5210000276565552,-2.4638364609472334
574.4482760000001,,0.0,574.279,0.5170000195503235,-2.4729629754558036
574.913793,,0.0,574.74,0.515999972820282,-2.475573212310225
575.37931,,0.0,575.21,0.5339999794960022,-2.4367950788769552
575.844828,,0.0,575.672,0.5370000004768372,-2.4306886020809575
576.310345,,0.0,576.135,0.5410000085830688,-2.4223818189764406
576.775862,,0.0,576.601,0.5149999856948853,-2.4794008060849153
577.241379,,0.0,577.068,0.5370000004768372,-2.431799989957004
577.706897,,0.0,577.533,0.5099999904632568,-2.490898792557589
578.172414,,0.0,577.999,0.5139999985694885,-2.482397539576748
578.6379310000001,,0.0,578.464,0.531000018119812,-2.445505708976279
579.1034480000001,,0.0,578.928,0.5379999876022339,-2.430327352622737
579.5689659999999,,0.0,579.394,0.5210000276565552,-2.4673611155566224
580.034483,,0.0,579.854,0.5339999794960022,-2.4389609465648285
580.5,,0.0,580.319,0.5139999985694885,-2.482384298212677
580.965517,,0.0,580.787,0.515999972820282,-2.4778110363859045
581.431034,,0.0,581.249,0.515999972820282,-2.477535744513142
581.896552,,0.0,581.717,0.5460000038146973,-2.411849654156671
582.362069,,0.0,582.179,0.5419999957084656,-2.420195565736034
582.827586,,0.0,582.645,0.5210000276565552,-2.465547666478891
583.2931030000001,,0.0,583.11,0.5090000033378601,-2.4912747056742677
583.758621,,0.0,583.576,0.5210000276565552,-2.464710145748517
584.2241379999999,,0.0,584.042,0.515999972820282,-2.475191612376595
584.689655,,0.0,584.508,0.5379999876022339,-2.4268702866842355
585.155172,,0.0,584.973,0.5379999876022339,-2.426511264788529
585.6206900000001,,0.0,585.439,0.5170000195503235,-2.4719465985859377
586.0862070000001,,0.0,585.905,0.5540000200271606,-2.3910727216860272
586.551724,,0.0,586.364,0.5249999761581421,-2.454049592433136
587.017241,,0.0,586.832,0.5210000276565552,-2.462626337454561
587.482759,,0.0,587.294,0.546999990940094,-2.405914327209904
587.948276,,0.0,587.761,0.515999972820282,-2.473457344478557
588.4137929999999,,0.0,588.224,0.527999997138977,-2.4473905161753406
588.87931,,0.0,588.694,0.5799999833106995,-2.3342465775007963
589.344828,,0.0,589.157,0.5149999856948853,-2.476067771346655
589.810345,,0.0,589.622,0.5339999794960022,-2.4349402719821827
590.2758620000001,,0.0,590.085,0.5379999876022339,-2.4265425185960696
590.741379,,0.0,590.551,0.5210000276565552,-2.4639364624725664
591.2068969999999,,0.0,591.016,0.5120000243186951,-2.4839312517757417
591.672414,,0.0,591.482,0.5210000276565552,-2.464728947494799
592.137931,,0.0,591.946,0.503000020980835,-2.504356571115631
592.603448,,0.0,592.412,0.5170000195503235,-2.4742614205997917
593.068966,,0.0,592.877,0.5419999957084656,-2.4201820942837515
593.534483,,0.0,593.342,0.5270000100135803,-2.453216798218563
594.0,,0.0,593.805,0.5170000195503235,-2.475315833193701
594.4655170000001,,0.0,594.275,0.5339999794960022,-2.4385398100521716
594.9310340000001,,0.0,594.735,0.515999972820282,-2.4779567374627205
595.3965519999999,,0.0,595.205,0.5400000214576721,-2.4258043682852555
595.862069,,0.0,595.669,0.5299999713897705,-2.447655920324027
596.327586,,0.0,596.131,0.5189999938011169,-2.471613813377374
596.793103,,0.0,596.597,0.5260000228881836,-2.4562846306407558
597.2586210000001,,0.0,597.064,0.5419999957084656,-2.421278488880593
597.724138,,0.0,597.53,0.5649999976158142,-2.3709559598745416
598.189655,,0.0,597.995,0.5419999957084656,-2.4207914643403443
598.655172,,0.0,598.461,0.5669999718666077,-2.3660005309154832
599.12069,,0.0,598.92,0.5199999809265137,-2.4680314995362043
599.586207,,0.0,599.386,0.5230000019073486,-2.461101899255615
600.0517239999999,,0.0,599.85,0.5419999957084656,-2.419298606985595
600.517241,,0.0,600.316,0.5070000290870667,-2.4951395576716915
600.982759,,0.0,600.779,0.5339999794960022,-2.435914948009018
601.448276,,0.0,601.249,0.5210000276565552,-2.463858912168835
601.913793,,0.0,601.711,0.550000011920929,-2.400333669766784
602.37931,,0.0,602.174,0.5370000004768372,-2.4283555976345137
602.844828,,0.0,602.64,0.527999997138977,-2.4477161538275545
603.310345,,0.0,603.11,0.5419999957084656,-2.41702889677623
603.775862,,0.0,603.576,0.5210000276565552,-2.4626611080568135
604.2413789999999,,0.0,604.035,0.5419999957084656,-2.4168607154683226
604.706897,,0.0,604.5,0.5299999713897705,-2.443027469458313
605.172414,,0.0,604.965,0.5370000004768372,-2.4278705927648088
605.637931,,0.0,605.43,0.5910000205039978,-2.3103839671224744
606.1034480000001,,0.0,605.898,0.5299999713897705,-2.4435028341468885
606.5689659999999,,0.0,606.363,0.46299999952316284,-2.5897497592574483
607.0344829999999,,0.0,606.824,0.5419999957084656,-2.4179638453193157
607.5,,0.0,607.294,0.5299999713897705,-2.4444732368776556
607.965517,,0.0,607.754,0.5220000147819519,-2.4622937566823815
608.431034,,0.0,608.223,0.515999972820282,-2.4757714457148814
608.896552,,0.0,608.684,0.5210000276565552,-2.465285667753409
609.362069,,0.0,609.154,0.5299999713897705,-2.4460744294520125
609.827586,,0.0,609.619,0.5419999957084656,-2.4203029016920103
610.293103,,0.0,610.082,0.5149999856948853,-2.4794628508676833
610.758621,,0.0,610.548,0.4950000047683716,-2.5233269280366684
611.2241379999999,,0.0,611.013,0.5460000038146973,-2.4124528805175194
611.689655,,0.0,611.479,0.5379999876022339,-2.4300562735833777
612.155172,,0.0,611.939,0.5170000195503235,-2.475913376672454
612.62069,,0.0,612.405,0.5239999890327454,-2.4606973137520765
613.0862070000001,,0.0,612.872,0.5299999713897705,-2.4475876876975575
613.551724,,0.0,613.338,0.5220000147819519,-2.4649078021542863
614.017241,,0.0,613.806,0.5199999809265137,-2.469088600112131
614.4827590000001,,0.0,614.268,0.5149999856948853,-2.4797435013350015
614.948276,,0.0,614.736,0.5139999985694885,-2.48162970023452
615.4137929999999,,0.0,615.198,0.5180000066757202,-2.4725777336501236
615.8793099999999,,0.0,615.661,0.5090000033378601,-2.4918138272496884
616.344828,,0.0,616.124,0.503000020980835,-2.5044914405282106
616.810345,,0.0,616.589,0.5130000114440918,-2.4823006650195505
617.275862,,0.0,617.054,0.5120000243186951,-2.484077186902491
617.741379,,0.0,617.52,0.49799999594688416,-2.51419097626984
618.206897,,0.0,617.987,0.48399999737739563,-2.5443321847150218
618.672414,,0.0,618.452,0.4909999966621399,-2.528760951833859
619.137931,,0.0,618.917,0.49799999594688416,-2.5132385555317955
619.603448,,0.0,619.383,0.4959999918937683,-2.517380708837006
620.068966,,0.0,619.85,0.4909999966621399,-2.5281219553975927
620.534483,,0.0,620.316,0.492000013589859,-2.52585909563408
621.0,,0.0,620.776,0.5009999871253967,-2.5062371613581123
621.465517,,0.0,621.246,0.5049999952316284,-2.4975781342699337
621.9310340000001,,0.0,621.706,0.4909999966621399,-2.5282024788092823
622.396552,,0.0,622.175,0.5059999823570251,-2.4957097833143718
622.862069,,0.0,622.634,0.49000000953674316,-2.530812841148424
623.327586,,0.0,623.104,0.4880000054836273,-2.535465155989032
623.793103,,0.0,623.569,0.4790000021457672,-2.5554095083896864
624.258621,,0.0,624.035,0.48100000619888306,-2.5514199384336007
624.724138,,0.0,624.501,0.5009999871253967,-2.5082341358687588
625.189655,,0.0,624.965,0.5099999904632568,-2.4890197479153606
625.655172,,0.0,625.43,0.48899999260902405,-2.5351585735295967
626.1206900000001,,0.0,625.891,0.4860000014305115,-2.542064093523923
626.5862070000001,,0.0,626.357,0.4970000088214874,-2.5184398032042306
627.0517239999999,,0.0,626.82,0.48100000619888306,-2.553599792686912
627.5172409999999,,0.0,627.29,0.5009999871253967,-2.5102799534472306
627.982759,,0.0,627.75,0.49900001287460327,-2.514833692159392
628.448276,,0.0,628.22,0.4729999899864197,-2.5716127850747665
628.913793,,0.0,628.68,0.4749999940395355,-2.5673243236892107
629.37931,,0.0,629.15,0.47699999809265137,-2.562968981295104
629.844828,,0.0,629.615,0.492000013589859,-2.5302240115546293
630.3103450000001,,0.0,630.079,0.3269999921321869,-2.889573474708631
630.7758620000001,,0.0,630.545,0.492000013589859,-2.529912892822396
631.2413789999999,,0.0,631.009,0.492000013589859,-2.529676254558344
631.706897,,0.0,631.475,0.47999998927116394,-2.55553449427193
632.172414,,0.0,631.935,0.4790000021457672,-2.5573876487147813
632.637931,,0.0,632.401,0.503000020980835,-2.504744381462985
633.103448,,0.0,632.866,0.47600001096725464,-2.563192555370676
633.568966,,0.0,633.331,0.4659999907016754,-2.584596186023726
634.034483,,0.0,633.794,0.4869999885559082,-2.538466311161621
634.5,,0.0,634.264,0.4779999852180481,-2.557711710268987
634.9655170000001,,0.0,634.728,0.4860000014305115,-2.5399467133801763
635.431034,,0.0,635.19,0.4830000102519989,-2.546183782858939
635.8965519999999,,0.0,635.654,0.47200000286102295,-2.5698963517072753
636.362069,,0.0,636.124,0.39500001072883606,-2.737455703624217
636.827586,,0.0,636.589,0.4830000102519989,-2.5456013908790287
637.293103,,0.0,637.054,0.4749999940395355,-2.5629631942623017
637.7586210000001,,0.0,637.52,0.4729999899864197,-2.567319490391633
638.224138,,0.0,637.979,0.4749999940395355,-2.5630277150867893
638.689655,,0.0,638.445,0.5170000195503235,-2.4716535592046753
639.155172,,0.0,638.909,0.4699999988079071,-2.574238194932295
639.62069,,0.0,639.375,0.47600001096725464,-2.561408371379733
640.086207,,0.0,639.843,0.4729999899864197,-2.5682338275821275
640.551724,,0.0,640.304,0.46700000762939453,-2.581633816278619
641.017241,,0.0,640.772,0.4819999933242798,-2.549310921582343
641.482759,,0.0,641.235,0.45100000500679016,-2.617223781788849
641.9482760000001,,0.0,641.705,0.4729999899864197,-2.5696752838167436
642.413793,,0.0,642.168,0.47600001096725464,-2.5635160828882824
642.87931,,0.0,642.633,0.4699999988079071,-2.5769479102940043
643.344828,,0.0,643.096,0.49399998784065247,-2.524992089448204
643.810345,,0.0,643.562,0.47200000286102295,-2.573215401700884
644.275862,,0.0,644.028,0.4819999933242798,-2.551674569387796
644.7413789999999,,0.0,644.493,0.5070000290870667,-2.4973985756486976
645.206897,,0.0,644.957,0.4909999966621399,-2.532385445984706
645.672414,,0.0,645.423,0.4869999885559082,-2.5411629540455354
646.1379310000001,,0.0,645.887,0.492000013589859,-2.530265601569986
646.6034480000001,,0.0,646.353,0.4090000092983246,-2.7110242227352805
647.0689659999999,,0.0,646.814,0.47200000286102295,-2.5736389159416015
647.534483,,0.0,647.284,0.4860000014305115,-2.542949237169571
648.0,,0.0,647.746,0.48899999260902405,-2.536170544145996
648.465517,,0.0,648.209,0.492000013589859,-2.529344593013646
648.931034,,0.0,648.68,0.47600001096725464,-2.5638748277261474
649.396552,,0.0,649.142,0.4860000014305115,-2.541732387549599
649.862069,,0.0,649.608,0.47699999809265137,-2.560967437051824
650.327586,,0.0,650.072,0.47999998927116394,-2.55405336174596
650.7931030000001,,0.0,650.537,0.49000000953674316,-2.5318947506798097
651.258621,,0.0,651.002,0.4970000088214874,-2.5162890059037815
651.7241379999999,,0.0,651.468,0.49000000953674316,-2.5312117622341805
652.189655,,0.0,651.935,0.4339999854564667,-2.6529270204470095
652.655172,,0.0,652.394,0.47600001096725464,-2.5611834691773763
653.12069,,0.0,652.861,0.47200000286102295,-2.5697136340784743
653.5862070000001,,0.0,653.327,0.49900001287460327,-2.510765829785593
654.051724,,0.0,653.79,0.49000000953674316,-2.53031257219569
654.517241,,0.0,654.26,0.4860000014305115,-2.5390309365617036
654.982759,,0.0,654.721,0.4869999885559082,-2.536921072715794
655.448276,,0.0,655.19,0.47999998927116394,-2.552303433015819
655.9137929999999,,0.0,655.654,0.47999998927116394,-2.552494524538587
656.37931,,0.0,656.116,0.47600001096725464,-2.5614538129525837
656.844828,,0.0,656.582,0.4959999918937683,-2.5181715607177586
657.310345,,0.0,657.046,0.48399999737739563,-2.5446426665770625
657.7758620000001,,0.0,657.512,0.49399998784065247,-2.523210077445949
658.241379,,0.0,657.976,0.48399999737739563,-2.545366265959781
658.7068969999999,,0.0,658.442,0.4359999895095825,-2.6503168554037146
659.172414,,0.0,658.909,0.4830000102519989,-2.548291081677178
659.637931,,0.0,659.375,0.4790000021457672,-2.5573597482423005
660.103448,,0.0,659.836,0.4950000047683716,-2.522826801703402
660.568966,,0.0,660.306,0.47999998927116394,-2.555793203939756
661.034483,,0.0,660.769,0.4830000102519989,-2.5494964549138213
661.5,,0.0,661.231,0.40700000524520874,-2.715259929668212
661.965517,,0.0,661.694,0.4819999933242798,-2.5519898982736398
662.4310340000001,,0.0,662.164,0.4490000009536743,-2.6239516187194565
662.8965519999999,,0.0,662.63,0.47600001096725464,-2.5651291591695915
663.362069,,0.0,663.092,0.5049999952316284,-2.5018830400206236
663.827586,,0.0,663.558,0.47999998927116394,-2.556218192205867
664.293103,,0.0,664.024,0.48500001430511475,-2.5451321571429726
664.7586210000001,,0.0,664.49,0.4129999876022339,-2.7017479569342977
665.224138,,0.0,664.949,0.4659999907016754,-2.585987278172978
665.689655,,0.0,665.415,0.4909999966621399,-2.5311911552612405
666.155172,,0.0,665.879,0.4749999940395355,-2.5656903153687862
666.62069,,0.0,666.345,0.4860000014305115,-2.541347324966462
667.086207,,0.0,666.814,0.46000000834465027,-2.5976075849555644
667.5517239999999,,0.0,667.276,0.49000000953674316,-2.5318686413913847
668.017241,,0.0,667.739,0.46399998664855957,-2.588150694412806
668.482759,,0.0,668.209,0.49000000953674316,-2.5311705355993896
668.948276,,0.0,668.672,0.4959999918937683,-2.5178008420592706
669.413793,,0.0,669.134,0.4819999933242798,-2.54805029959562
669.87931,,0.0,669.6,0.492000013589859,-2.5260664913322075
670.3448279999999,,0.0,670.065,0.48399999737739563,-2.5433591677416567
670.810345,,0.0,670.53,0.5139999985694885,-2.47792792629909
671.275862,,0.0,670.995,0.4569999873638153,-2.6021066730603297
671.7413789999999,,0.0,671.461,0.492000013589859,-2.5259185690568966
672.206897,,0.0,671.927,0.47600001096725464,-2.5609091146169205
672.672414,,0.0,672.393,0.47600001096725464,-2.5611050649174327
673.137931,,0.0,672.858,0.48899999260902405,-2.5330368685121623
673.6034480000001,,0.0,673.324,0.4790000021457672,-2.5551280743111904
674.068966,,0.0,673.787,0.47099998593330383,-2.5729038337955417
674.5344829999999,,0.0,674.249,0.47699999809265137,-2.560210256242755
675.0,,0.0,674.72,0.47200000286102295,-2.5715022595539607
675.465517,,0.0,675.183,0.47699999809265137,-2.561016073807946
675.931034,,0.0,675.654,0.47999998927116394,-2.5548828636132774
676.396552,,0.0,676.109,0.49399998784065247,-2.5247672800079677
676.862069,,0.0,676.574,0.4659999907016754,-2.586125723868418
677.327586,,0.0,677.039,0.4819999933242798,-2.551583728167921
677.793103,,0.0,677.504,0.47600001096725464,-2.564922169133289
678.2586210000001,,0.0,677.969,0.4790000021457672,-2.5585943642764364
678.7241379999999,,0.0,678.435,0.5109999775886536,-2.489019933767515
679.1896549999999,,0.0,678.902,0.5270000100135803,-2.4542316095428753
679.655172,,0.0,679.368,0.5009999871253967,-2.510871281232532
680.12069,,0.0,679.831,0.46700000762939453,-2.5848658215583296
680.5862070000001,,0.0,680.294,0.47999998927116394,-2.5563933859075476
681.051724,,0.0,680.762,0.48500001430511475,-2.5452838994486644
681.517241,,0.0,681.224,0.4790000021457672,-2.558079546688373
681.9827590000001,,0.0,681.694,0.5009999871253967,-2.5098209006546877
682.448276,,0.0,682.157,0.47600001096725464,-2.563916209646451
682.9137929999999,,0.0,682.622,0.47999998927116394,-2.5548000102118666
683.3793099999999,,0.0,683.085,0.46299999952316284,-2.591417467000495
683.844828,,0.0,683.551,0.4790000021457672,-2.55613468527406
684.310345,,0.0,684.017,0.46299999952316284,-2.5905768677778056
684.775862,,0.0,684.482,0.46700000762939453,-2.5814672056734116
685.241379,,0.0,684.949,0.46700000762939453,-2.5811056025367223
685.706897,,0.0,685.415,0.4819999933242798,-2.5481085016686325
686.172414,,0.0,685.88,0.46799999475479126,-2.578345893293086
686.637931,,0.0,686.339,0.46700000762939453,-2.580322952085719
687.103448,,0.0,686.809,0.4860000014305115,-2.538795432084499
687.5689659999999,,0.0,687.271,0.46299999952316284,-2.5888434856082254
688.034483,,0.0,687.739,0.47200000286102295,-2.5692494205016776
688.5,,0.0,688.201,0.46799999475479126,-2.5780523939277686
688.965517,,0.0,688.669,0.4659999907016754,-2.582570101755154
689.4310340000001,,0.0,689.132,0.4699999988079071,-2.5740832377829674
689.896552,,0.0,689.598,0.4909999966621399,-2.5286193607513536
690.362069,,0.0,690.065,0.46799999475479126,-2.579066934703224
690.827586,,0.0,690.53,0.49000000953674316,-2.531515955336007
691.293103,,0.0,690.994,0.46399998664855957,-2.5885695226213308
691.758621,,0.0,691.46,0.47600001096725464,-2.5628515554069686
692.224138,,0.0,691.924,0.45100000500679016,-2.6177484696952185
692.689655,,0.0,692.39,0.49000000953674316,-2.5332034468273266
693.155172,,0.0,692.855,0.4909999966621399,-2.531424837155906
693.6206900000001,,0.0,693.32,0.4869999885559082,-2.540504221036451
694.0862070000001,,0.0,693.783,0.4779999852180481,-2.5604307267103947
694.551724,,0.0,694.246,0.4749999940395355,-2.5672299025624725
695.0172409999999,,0.0,694.709,0.4880000054836273,-2.539107234395548
695.482759,,0.0,695.179,0.4860000014305115,-2.5435943421824305
695.948276,,0.0,695.645,0.4909999966621399,-2.5327566340201653
696.4137929999999,,0.0,696.11,0.47600001096725464,-2.5654159902169704
696.87931,,0.0,696.576,0.47999998927116394,-2.556606190714673
697.344828,,0.0,697.036,0.5849999785423279,-2.3276789418043147
697.8103450000001,,0.0,697.501,0.4699999988079071,-2.577983942434643
698.2758620000001,,0.0,697.968,0.47600001096725464,-2.5646115536173837
698.741379,,0.0,698.434,0.49000000953674316,-2.5337601548302446
699.206897,,0.0,698.894,0.48399999737739563,-2.5464422461026746
699.672414,,0.0,699.36,0.492000013589859,-2.5285955327506353
700.137931,,0.0,699.828,0.46799999475479126,-2.5804511705905706
700.603448,,0.0,700.29,0.4790000021457672,-2.5560533866435065
701.068966,,0.0,700.761,0.46299999952316284,-2.5904921506437204
701.534483,,0.0,701.223,0.4729999899864197,-2.568312108324477
702.0,,0.0,701.684,0.46700000762939453,-2.5810284961045733
702.4655170000001,,0.0,702.154,0.492000013589859,-2.5262552415222026
702.931034,,0.0,702.619,0.48899999260902405,-2.5325411841488137
703.3965519999999,,0.0,703.083,0.46799999475479126,-2.5781072729801737
703.862069,,0.0,703.548,0.48100000619888306,-2.549669907371851
704.327586,,0.0,704.013,0.5009999871253967,-2.5060555890608036
704.793103,,0.0,704.478,0.48100000619888306,-2.549661168884888
705.2586210000001,,0.0,704.944,0.4880000054836273,-2.53451637696205
705.724138,,0.0,705.41,0.4659999907016754,-2.5826227238674386
706.189655,,0.0,705.872,0.5120000243186951,-2.482645431025216
706.6551720000001,,0.0,706.338,0.47699999809265137,-2.5591953588870155
707.12069,,0.0,706.806,0.47999998927116394,-2.5530043224749956
707.586207,,0.0,707.268,0.4950000047683716,-2.520706866713155
708.051724,,0.0,707.731,0.4749999940395355,-2.564687668335877
708.517241,,0.0,708.194,0.47600001096725464,-2.562930243669286
708.982759,,0.0,708.662,0.47699999809265137,-2.561173813805208
709.4482760000001,,0.0,709.124,0.4869999885559082,-2.5397973398343243
709.913793,,0.0,709.59,0.5199999809265137,-2.468286228863592
710.37931,,0.0,710.057,0.4909999966621399,-2.531813066806929
710.844828,,0.0,710.523,0.4860000014305115,-2.5430042087345512
711.310345,,0.0,710.987,0.492000013589859,-2.5301737376098563
711.775862,,0.0,711.453,0.4699999988079071,-2.578282137643164
712.2413789999999,,0.0,711.918,0.47999998927116394,-2.5566056542863835
712.706897,,0.0,712.383,0.4880000054836273,-2.539215013672734
713.172414,,0.0,712.85,0.49000000953674316,-2.5348233417199637
713.637931,,0.0,713.316,0.49399998784065247,-2.5260023629684154
714.1034480000001,,0.0,713.776,0.4779999852180481,-2.5606857585456226
714.5689659999999,,0.0,714.239,0.49000000953674316,-2.5343041122786025
715.034483,,0.0,714.709,0.4659999907016754,-2.5862987860180655
715.5,,0.0,715.172,0.48100000619888306,-2.553280317032729
715.965517,,0.0,715.638,0.4790000021457672,-2.5572634599192536
716.431034,,0.0,716.101,0.43799999356269836,-2.6461904143431423
716.896552,,0.0,716.566,0.48399999737739563,-2.5455640925948027
717.362069,,0.0,717.031,0.49000000953674316,-2.5320841857686442
717.827586,,0.0,717.497,0.4749999940395355,-2.564367869783791
718.2931030000001,,0.0,717.961,0.4699999988079071,-2.5748893149563625
718.758621,,0.0,718.428,0.48500001430511475,-2.5418733347584164
719.2241379999999,,0.0,718.895,0.503000020980835,-2.502366201954757
719.689655,,0.0,719.36,0.48100000619888306,-2.5500579642597008
720.155172,,0.0,719.82,0.49000000953674316,-2.5302718263978496
720.62069,,0.0,720.29,0.3179999887943268,-2.904890067340071
721.0862070000001,,0.0,720.753,0.47699999809265137,-2.5584505494154084
721.551724,,0.0,721.216,0.48899999260902405,-2.532345421349094
722.017241,,0.0,721.68,0.4880000054836273,-2.5346306059764157
722.482759,,0.0,722.15,0.49000000953674316,-2.5304439323758325
722.948276,,0.0,722.615,0.48100000619888306,-2.550281111072735
723.4137929999999,,0.0,723.079,0.4819999933242798,-2.5483836050226567
723.87931,,0.0,723.545,0.4880000054836273,-2.5356359243084814
724.344828,,0.0,724.004,0.48399999737739563,-2.5447078334399076
724.810345,,0.0,724.47,0.4830000102519989,-2.54726604041977
725.2758620000001,,0.0,724.935,0.48399999737739563,-2.545477982192056
725.741379,,0.0,725.4,0.49399998784065247,-2.5240811855483947
726.2068969999999,,0.0,725.865,0.3490000069141388,-2.8403648290269623
726.672414,,0.0,726.33,0.49000000953674316,-2.53353604226254
727.137931,,0.0,726.798,0.4819999933242798,-2.5512940781321642
727.603448,,0.0,727.261,0.4729999899864197,-2.571186800605693
728.068966,,0.0,727.724,0.4490000009536743,-2.623707784429655
728.534483,,0.0,728.194,0.4699999988079071,-2.57813192886701
729.0,,0.0,728.654,0.492000013589859,-2.530313838953749
729.465517,,0.0,729.124,0.49399998784065247,-2.526000797766655
729.9310340000001,,0.0,729.59,0.4970000088214874,-2.519439305652672
730.3965519999999,,0.0,730.054,0.48500001430511475,-2.5454889789354396
730.8620689999999,,0.0,730.52,0.4970000088214874,-2.5191857839254728
731.327586,,0.0,730.979,0.4880000054836273,-2.538573977146775
731.793103,,0.0,731.445,0.503000020980835,-2.5056210999240403
732.2586210000001,,0.0,731.909,0.4959999918937683,-2.520553481467448
732.724138,,0.0,732.375,0.4749999940395355,-2.565952095049406
733.189655,,0.0,732.843,0.4650000035762787,-2.5873628593102853
733.655172,,0.0,733.305,0.46700000762939453,-2.5826195063897535
734.12069,,0.0,733.776,0.503000020980835,-2.503803012425674
734.586207,,0.0,734.238,0.4950000047683716,-2.5208586185421797
735.0517239999999,,0.0,734.702,0.48899999260902405,-2.533579485031999
735.517241,,0.0,735.164,0.46799999475479126,-2.5790140345851533
735.982759,,0.0,735.63,0.47999998927116394,-2.5525973813837783
736.448276,,0.0,736.1,0.46399998664855957,-2.5872354931660455
736.913793,,0.0,736.565,0.49799999594688416,-2.5129999220226815
737.37931,,0.0,737.027,0.4779999852180481,-2.5564742900388864
737.844828,,0.0,737.493,0.503000020980835,-2.5019745117124157
738.310345,,0.0,737.954,0.47699999809265137,-2.5586517660428676
738.775862,,0.0,738.42,0.49399998784065247,-2.521711756420892
739.2413789999999,,0.0,738.888,0.47699999809265137,-2.5589073661165784
739.706897,,0.0,739.353,0.48100000619888306,-2.5504080591047082
740.172414,,0.0,739.814,0.47999998927116394,-2.552852121015569
740.637931,,0.0,740.283,0.45500001311302185,-2.607625835573823
741.1034480000001,,0.0,740.746,0.4860000014305115,-2.5404281944753975
741.568966,,0.0,741.209,0.492000013589859,-2.5277182523827237
742.034483,,0.0,741.68,0.4690000116825104,-2.578199098071437
742.5,,0.0,742.142,0.47600001096725464,-2.563319545384115
742.965517,,0.0,742.608,0.46700000762939453,-2.5832864100246007
743.431034,,0.0,743.071,0.49000000953674316,-2.5335132935549436
743.896552,,0.0,743.537,0.48500001430511475,-2.5447083136088704
744.362069,,0.0,744.002,0.47200000286102295,-2.5732893794756526
744.827586,,0.0,744.467,0.4790000021457672,-2.5582469283671623
745.293103,,0.0,744.935,0.49000000953674316,-2.5344329377003048
745.7586210000001,,0.0,745.401,0.47600001096725464,-2.565023572040433
746.2241379999999,,0.0,745.866,0.47200000286102295,-2.5737640166331595
746.6896549999999,,0.0,746.324,0.4880000054836273,-2.538867324118419
747.155172,,0.0,746.794,0.47600001096725464,-2.5649098229589535
747.62069,,0.0,747.257,0.4860000014305115,-2.5429624336723364
748.086207,,0.0,747.72,0.4950000047683716,-2.523138916554998
748.551724,,0.0,748.19,0.503000020980835,-2.5054454824928967
749.017241,,0.0,748.654,0.49399998784065247,-2.524748737192727
749.4827590000001,,0.0,749.116,0.48899999260902405,-2.5353067684316737
749.9482760000001,,0.0,749.582,0.47999998927116394,-2.554559955084156
750.4137929999999,,0.0,750.046,0.48100000619888306,-2.552018685057839
750.8793099999999,,0.0,750.511,0.48100000619888306,-2.5516596327163716
751.344828,,0.0,750.976,0.46399998664855957,-2.58835264233973
751.810345,,0.0,751.441,0.47699999809265137,-2.5597121005882655
752.275862,,0.0,751.905,0.4909999966621399,-2.528928237159551
752.741379,,0.0,752.371,0.47600001096725464,-2.5613685614047395
753.206897,,0.0,752.839,0.47600001096725464,-2.561180063892341
753.672414,,0.0,753.302,0.4959999918937683,-2.5174749888605015
754.1379310000001,,0.0,753.765,0.4480000138282776,-2.6219782820151205
754.603448,,0.0,754.235,0.4819999933242798,-2.5478954209118796
755.0689659999999,,0.0,754.695,0.47600001096725464,-2.561021081376263
755.534483,,0.0,755.165,0.4749999940395355,-2.563313757230994
756.0,,0.0,755.63,0.453000009059906,-2.6114148222995452
756.465517,,0.0,756.093,0.4729999899864197,-2.5680642994647904
756.931034,,0.0,756.558,0.47999998927116394,-2.5530800262703193
757.396552,,0.0,757.024,0.4880000054836273,-2.535951504621155
757.862069,,0.0,757.489,0.5059999823570251,-2.4970606086577383
758.3275860000001,,0.0,757.954,0.5809999704360962,-2.333998197855655
758.793103,,0.0,758.42,0.4699999988079071,-2.5761644183331374
759.258621,,0.0,758.88,0.48899999260902405,-2.535098365123088
759.724138,,0.0,759.345,0.49000000953674316,-2.533231412540307
760.189655,,0.0,759.814,0.47999998927116394,-2.5553035962783883
760.655172,,0.0,760.276,0.49000000953674316,-2.53376831804537
761.1206900000001,,0.0,760.739,0.47600001096725464,-2.5644789937090207
761.5862070000001,,0.0,761.208,0.47600001096725464,-2.564641221186801
762.051724,,0.0,761.669,0.4830000102519989,-2.549501122973961
762.517241,,0.0,762.139,0.4729999899864197,-2.5713432920777595
762.982759,,0.0,762.605,0.48500001430511475,-2.545199009742286
763.448276,,0.0,763.068,0.4779999852180481,-2.5603934028303885
763.9137929999999,,0.0,763.534,0.48399999737739563,-2.547211524955593
764.37931,,0.0,763.999,0.47999998927116394,-2.5557661468658295
764.844828,,0.0,764.465,0.4819999933242798,-2.5512040222550425
765.310345,,0.0,764.925,0.4560000002384186,-2.607606262424877
765.7758620000001,,0.0,765.39,0.48399999737739563,-2.546331682385407
766.241379,,0.0,765.858,0.48899999260902405,-2.5351440373936613
766.706897,,0.0,766.324,0.4819999933242798,-2.550086623422776
767.172414,,0.0,766.787,0.46399998664855957,-2.5889907109336416
767.637931,,0.0,767.249,0.492000013589859,-2.527682911956058
768.103448,,0.0,767.717,0.49000000953674316,-2.531749204395
768.568966,,0.0,768.179,0.4880000054836273,-2.535838304306308
769.034483,,0.0,768.645,0.4560000002384186,-2.6053183426331086
769.5,,0.0,769.11,0.5199999809265137,-2.465686517512132
769.9655170000001,,0.0,769.576,0.47600001096725464,-2.5613918916453615
770.4310340000001,,0.0,770.042,0.47200000286102295,-2.569999500435776
770.8965519999999,,0.0,770.508,0.47600001096725464,-2.5612298335086003
771.362069,,0.0,770.972,0.503000020980835,-2.502403936580001
771.827586,,0.0,771.438,0.47600001096725464,-2.561277000899133
772.293103,,0.0,771.905,0.4779999852180481,-2.5570197798629986
772.7586210000001,,0.0,772.364,0.4950000047683716,-2.5201300146377608
773.224138,,0.0,772.831,0.48399999737739563,-2.5442845793366216
773.689655,,0.0,773.294,0.4740000069141388,-2.5662968685932896
774.155172,,0.0,773.762,0.4869999885559082,-2.5382300139272695
774.62069,,0.0,774.224,0.4819999933242798,-2.549400439730341
775.086207,,0.0,774.694,0.4819999933242798,-2.5496907357865597
775.551724,,0.0,775.157,0.46700000762939453,-2.5826653937752786
776.017241,,0.0,775.622,0.4830000102519989,-2.548097945291229
776.482759,,0.0,776.086,0.47999998927116394,-2.55491185280929
776.9482760000001,,0.0,776.552,0.4729999899864197,-2.570418895102233
777.413793,,0.0,777.017,0.4950000047683716,-2.52271593158849
777.87931,,0.0,777.482,0.46799999475479126,-2.5817307835228918
778.344828,,0.0,777.947,0.47200000286102295,-2.5731663538852607
778.810345,,0.0,778.413,0.48100000619888306,-2.5536634341186035
779.275862,,0.0,778.88,0.49000000953674316,-2.534111730993513
779.7413789999999,,0.0,779.346,0.48899999260902405,-2.5362958367750092
780.206897,,0.0,779.809,0.4830000102519989,-2.549322465549219
780.672414,,0.0,780.272,0.492000013589859,-2.5296204599487995
781.137931,,0.0,780.735,0.49000000953674316,-2.533837629955186
781.6034480000001,,0.0,781.205,0.4690000116825104,-2.579407962392707
782.0689659999999,,0.0,781.669,0.48500001430511475,-2.5443333877521557
782.5344829999999,,0.0,782.131,0.4819999933242798,-2.550624934853347
783.0,,0.0,782.597,0.4909999966621399,-2.5307515993297525
783.465517,,0.0,783.061,0.4869999885559082,-2.539187664912387
783.931034,,0.0,783.526,0.4729999899864197,-2.569405920643201
784.396552,,0.0,783.991,0.49900001287460327,-2.5124826144075962
784.862069,,0.0,784.457,0.503000020980835,-2.503501733056123
785.327586,,0.0,784.921,0.47999998927116394,-2.553364417268875
785.7931030000001,,0.0,785.387,0.4880000054836273,-2.5357168756998156
786.258621,,0.0,785.854,0.4740000069141388,-2.5660345823190838
786.7241379999999,,0.0,786.32,0.4699999988079071,-2.57460662895366
787.189655,,0.0,786.78,0.47600001096725464,-2.5614373876096743
787.655172,,0.0,787.25,0.47999998927116394,-2.5526732513192663
788.12069,,0.0,787.71,0.48100000619888306,-2.550493648360436
788.5862070000001,,0.0,788.179,0.47200000286102295,-2.570149022058684
789.051724,,0.0,788.645,0.4790000021457672,-2.5549928560652977
789.517241,,0.0,789.111,0.47699999809265137,-2.559488131049267
789.982759,,0.0,789.569,0.47999998927116394,-2.553129118342046
790.448276,,0.0,790.035,0.48899999260902405,-2.5337311904682096
790.9137929999999,,0.0,790.501,0.4790000021457672,-2.5557537167493853
791.3793099999999,,0.0,790.968,0.49000000953674316,-2.5320433298360663
791.844828,,0.0,791.434,0.46700000762939453,-2.582418028533622
792.310345,,0.0,791.894,0.4790000021457672,-2.556543221904629
792.7758620000001,,0.0,792.36,0.4880000054836273,-2.537199104752886
793.241379,,0.0,792.828,0.49000000953674316,-2.5330916444126843
793.7068969999999,,0.0,793.291,0.49000000953674316,-2.533319806160586
794.172414,,0.0,793.761,0.4749999940395355,-2.566199478052378
794.637931,,0.0,794.223,0.4690000116825104,-2.5794377500373855
795.103448,,0.0,794.691,0.4779999852180481,-2.559958394896336
795.568966,,0.0,795.153,0.49300000071525574,-2.5273649064138786
796.034483,,0.0,795.619,0.42100000381469727,-2.6842700502543635
796.5,,0.0,796.083,0.47200000286102295,-2.5731579117911725
796.965517,,0.0,796.549,0.48100000619888306,-2.553505128512022
797.4310340000001,,0.0,797.014,0.4740000069141388,-2.568667236914414
797.8965519999999,,0.0,797.479,0.49000000953674316,-2.5336795758337822
798.3620689999999,,0.0,797.939,0.4740000069141388,-2.5683718113635887
798.827586,,0.0,798.404,0.49000000953674316,-2.5333155957775393
799.293103,,0.0,798.869,0.49000000953674316,-2.5330919896553694
799.758621,,0.0,799.335,0.47200000286102295,-2.57206529349193
800.224138,,0.0,799.805,0.4699999988079071,-2.576169636440902
800.689655,,0.0,800.268,0.4690000116825104,-2.578092952730939
801.155172,,0.0,800.735,0.46799999475479126,-2.580021901208424
801.62069,,0.0,801.198,0.47600001096725464,-2.562355994857469
802.086207,,0.0,801.666,0.4880000054836273,-2.535995229888152
802.5517239999999,,0.0,802.128,0.49000000953674316,-2.531446491267275
803.017241,,0.0,802.594,0.48500001430511475,-2.542179351287402
803.482759,,0.0,803.061,0.4790000021457672,-2.5551269710084643
803.948276,,0.0,803.519,0.4779999852180481,-2.557221415558525
804.413793,,0.0,803.984,0.48500001430511475,-2.5419290636275336
804.87931,,0.0,804.45,0.4909999966621399,-2.5288587213766154
805.344828,,0.0,804.917,0.4699999988079071,-2.5746549659292635
805.810345,,0.0,805.382,0.5,-2.5093818161011305
806.275862,,0.0,805.854,0.4790000021457672,-2.5552583974133207
806.7413789999999,,0.0,806.312,0.48899999260902405,-2.5336316293508063
807.206897,,0.0,806.775,0.4830000102519989,-2.5468931329411606
807.672414,,0.0,807.245,0.4860000014305115,-2.5405709499695615
808.137931,,0.0,807.709,0.4749999940395355,-2.564767625018578
808.603448,,0.0,808.172,0.4729999899864197,-2.569367560930372
809.068966,,0.0,808.638,0.47999998927116394,-2.5543635254774038
809.534483,,0.0,809.101,0.49000000953674316,-2.532819469950923
810.0,,0.0,809.567,0.4729999899864197,-2.570087460542768
810.465517,,0.0,810.031,0.4749999940395355,-2.565942920292763
810.931034,,0.0,810.497,0.5249999761581421,-2.4571980055406963
811.396552,,0.0,810.961,0.4909999966621399,-2.5314273861972367
811.862069,,0.0,811.427,0.4729999899864197,-2.5707623635627757
812.327586,,0.0,811.892,0.47699999809265137,-2.5621287276997924
812.793103,,0.0,812.357,0.45100000500679016,-2.61881465080442
813.2586210000001,,0.0,812.82,0.4779999852180481,-2.5599915817858867
813.724138,,0.0,813.29,0.46799999475479126,-2.5817375710440884
814.1896549999999,,0.0,813.75,0.4970000088214874,-2.518475939678958
814.655172,,0.0,814.22,0.49000000953674316,-2.533607139765945
815.12069,,0.0,814.683,0.4880000054836273,-2.5378099511292964
815.586207,,0.0,815.146,0.4749999940395355,-2.5659479520577966
816.051724,,0.0,815.611,0.47999998927116394,-2.554846355346071
816.517241,,0.0,816.078,0.49399998784065247,-2.5241191553706326
816.982759,,0.0,816.544,0.4699999988079071,-2.5761695536202014
817.4482760000001,,0.0,817.009,0.48899999260902405,-2.534534508085637
817.913793,,0.0,817.476,0.492000013589859,-2.527761204179831
818.3793099999999,,0.0,817.935,0.4740000069141388,-2.5667500614721646
818.844828,,0.0,818.401,0.4699999988079071,-2.5752558549444364
819.310345,,0.0,818.865,0.49000000953674316,-2.5314984570159735
819.775862,,0.0,819.331,0.4659999907016754,-2.5836314296016436
820.241379,,0.0,819.794,0.4690000116825104,-2.5769756067293437
820.706897,,0.0,820.264,0.4790000021457672,-2.55510780743009
821.172414,,0.0,820.728,0.47999998927116394,-2.552888248767253
821.6379310000001,,0.0,821.19,0.4259999990463257,-2.6705366226293408
822.1034480000001,,0.0,821.654,0.4659999907016754,-2.5834353187978962
822.5689659999999,,0.0,822.124,0.49399998784065247,-2.5225185094718023
823.034483,,0.0,822.589,0.47200000286102295,-2.5705706102888253
823.5,,0.0,823.054,0.49000000953674316,-2.5315092799470267
823.965517,,0.0,823.519,0.47600001096725464,-2.5621923747296873
824.431034,,0.0,823.984,0.47699999809265137,-2.560217887755551
824.896552,,0.0,824.45,0.4830000102519989,-2.547366025870981
825.362069,,0.0,824.91,0.4790000021457672,-2.5563097035038522
825.827586,,0.0,825.375,0.48100000619888306,-2.552183481212657
826.293103,,0.0,825.839,0.49900001287460327,-2.513193557406001
826.758621,,0.0,826.309,0.47600001096725464,-2.5635159075482363
827.224138,,0.0,826.772,0.49000000953674316,-2.533209795266511
827.689655,,0.0,827.235,0.5080000162124634,-2.4941644733907378
828.155172,,0.0,827.706,0.5040000081062317,-2.503019092264301
828.6206900000001,,0.0,828.168,0.49399998784065247,-2.5249113347649406
829.0862070000001,,0.0,828.634,0.5720000267028809,-2.3550441943768665
829.551724,,0.0,829.096,0.47600001096725464,-2.5642215131401924
830.017241,,0.0,829.562,0.5090000033378601,-2.492313704077893
830.482759,,0.0,830.027,0.48100000619888306,-2.553266186062852
830.948276,,0.0,830.493,0.5070000290870667,-2.4965363215739904
831.4137929999999,,0.0,830.957,0.4880000054836273,-2.5378135733642666
831.87931,,0.0,831.423,0.47600001096725464,-2.563812528668964
832.344828,,0.0,831.888,0.47999998927116394,-2.5549310205731217
832.810345,,0.0,832.354,0.4909999966621399,-2.530782023153213
833.2758620000001,,0.0,832.816,0.47600001096725464,-2.5632665808776105
833.741379,,0.0,833.279,0.47200000286102295,-2.571781164738596
834.2068969999999,,0.0,833.75,0.5419999957084656,-2.4190759589821904
834.672414,,0.0,834.212,0.4729999899864197,-2.5692079008988027
835.137931,,0.0,834.68,0.47999998927116394,-2.5537742229498925
835.603448,,0.0,835.142,0.4729999899864197,-2.5688597633963304
836.068966,,0.0,835.607,0.49000000953674316,-2.5316802042161957
836.534483,,0.0,836.071,0.49900001287460327,-2.5119555237183095
837.0,,0.0,836.537,0.46399998664855957,-2.5881200836046863
837.4655170000001,,0.0,837.002,0.5049999952316284,-2.498738259136174
837.9310340000001,,0.0,837.467,0.4699999988079071,-2.5749656741375673
838.3965519999999,,0.0,837.931,0.48100000619888306,-2.5510075417635454
838.862069,,0.0,838.397,0.4880000054836273,-2.535795589517452
839.327586,,0.0,838.862,0.49000000953674316,-2.5315061271478823
839.793103,,0.0,839.327,0.5759999752044678,-2.344235019785055
840.2586210000001,,0.0,839.791,0.4950000047683716,-2.5208180096687003
840.724138,,0.0,840.26,0.4909999966621399,-2.529662733477369
841.189655,,0.0,840.721,0.44999998807907104,-2.619133509691881
841.655172,,0.0,841.19,0.48399999737739563,-2.545218117397739
842.12069,,0.0,841.654,0.47600001096725464,-2.5628134333250743
842.586207,,0.0,842.116,0.4729999899864197,-2.5695178293451932
843.0517239999999,,0.0,842.582,0.49000000953674316,-2.5326464312294528
843.517241,,0.0,843.046,0.45399999618530273,-2.6112361196606204
843.982759,,0.0,843.511,0.48399999737739563,-2.546023511113877
844.4482760000001,,0.0,843.976,0.49000000953674316,-2.5330823759898196
844.913793,,0.0,844.442,0.4819999933242798,-2.5506220898032455
845.37931,,0.0,844.909,0.4909999966621399,-2.531101517518117
845.844828,,0.0,845.375,0.47999998927116394,-2.5551285777778103
846.310345,,0.0,845.835,0.4860000014305115,-2.5420919115513483
846.775862,,0.0,846.305,0.48899999260902405,-2.535563921180623
847.2413789999999,,0.0,846.768,0.4909999966621399,-2.531187190839668
847.706897,,0.0,847.231,0.4699999988079071,-2.5768933230513196
848.172414,,0.0,847.694,0.492000013589859,-2.528893546124968
848.637931,,0.0,848.164,0.4950000047683716,-2.5222661425639585
849.1034480000001,,0.0,848.629,0.4880000054836273,-2.537405848218688
849.5689659999999,,0.0,849.092,0.49300000071525574,-2.526386097784643
850.0344829999999,,0.0,849.558,0.4740000069141388,-2.567642508568253
850.5,,0.0,850.02,0.5049999952316284,-2.4999593849846566
850.965517,,0.0,850.485,0.47999998927116394,-2.5542775396243234
851.431034,,0.0,850.95,0.49399998784065247,-2.5236297921489506
851.896552,,0.0,851.416,0.47600001096725464,-2.5627047606094506
852.362069,,0.0,851.88,0.47600001096725464,-2.5625745261513635
852.827586,,0.0,852.346,0.47999998927116394,-2.5537440679626915
853.2931030000001,,0.0,852.809,0.4950000047683716,-2.5209654031531987
853.758621,,0.0,853.279,0.4729999899864197,-2.5688161682878325
854.2241379999999,,0.0,853.739,0.48500001430511475,-2.542614364657223
854.689655,,0.0,854.208,0.49000000953674316,-2.5316858790052565
855.155172,,0.0,854.672,0.47999998927116394,-2.5534602063743863
855.62069,,0.0,855.135,0.4779999852180481,-2.5578285340474607
856.0862070000001,,0.0,855.601,0.4909999966621399,-2.5295395268801975
856.551724,,0.0,856.068,0.4779999852180481,-2.5579162271343248
857.017241,,0.0,856.534,0.4959999918937683,-2.5187734166876936
857.482759,,0.0,856.999,0.49000000953674316,-2.531933978387853
857.948276,,0.0,857.465,0.49000000953674316,-2.5320354725111227
858.4137929999999,,0.0,857.925,0.48100000619888306,-2.5517546858446893
858.8793099999999,,0.0,858.39,0.4830000102519989,-2.5475155047037283
859.344828,,0.0,858.858,0.47200000286102295,-2.571602328270002
859.810345,,0.0,859.323,0.4819999933242798,-2.5499376952821593
860.275862,,0.0,859.791,0.4779999852180481,-2.5587707351072475
860.741379,,0.0,860.253,0.4690000116825104,-2.57849033558339
861.206897,,0.0,860.716,0.48100000619888306,-2.5524488707283406
