Trial: ,27
Threshold: ,0.0
Maximum EMG: ,0.04570398817601285
Success: ,True

EMG Time,Raw EMG,Filtered EMG,Force Time,Raw Force (V),Filtered Force (N)
0.0,samples,1.2347034808160736e-07,0.471,0.625,-2.240405161621621
0.46551699999999996,time,1.2613149231070796e-07,0.938,0.5809999704360962,-2.3358238252541126
0.9310339999999999,value,1.2845800874321233e-07,1.396,0.6060000061988831,-2.2808676718464773
1.396552,,1.3042715347373013e-07,1.861,0.5540000200271606,-2.3936353319336607
1.862069,,1.3201647408195963e-07,2.328,0.5699999928474426,-2.3582395895475807
2.327586,,1.3320390224583487e-07,2.794,0.5860000252723694,-2.3228445249692506
2.793103,,1.3396784898541227e-07,3.258,0.6050000190734863,-2.2809291169250487
3.258621,,1.3428730231164523e-07,3.724,0.6140000224113464,-2.2608299752250023
3.724138,,1.3414192703586905e-07,4.192,0.5889999866485596,-2.314849115777134
4.189654999999999,,1.3351216647757253e-07,4.65,0.6050000190734863,-2.2796013166911
4.655172,,1.3237934578993327e-07,5.118,0.5989999771118164,-2.2923532776567077
5.12069,,1.3072577660471216e-07,5.58,0.5979999899864197,-2.2942905667411675
5.586207,,1.2853486268051337e-07,6.047,0.5720000267028809,-2.3507804526191776
6.051723999999999,,1.2579120622119225e-07,6.51,0.5830000042915344,-2.326752145205282
6.517241,,1.2248071451441477e-07,6.981,0.5839999914169312,-2.324603794488467
6.982759,,1.1859070652411492e-07,7.443,0.6039999723434448,-2.281152901782448
7.448276,,1.1411001905494365e-07,7.909,0.5809999704360962,-2.331471500184439
7.913793000000001,,1.0902911209183487e-07,8.372,0.5809999704360962,-2.3317628223178324
8.379309999999998,,1.0334017290361387e-07,8.838,0.5910000205039978,-2.3103405751554584
8.844828000000001,,9.703721848622518e-08,9.303,0.6000000238418579,-2.291158520052682
9.310345,,9.011619590874526e-08,9.769,0.5879999995231628,-2.3177764393183917
9.775862,,8.257508011395445e-08,10.236,0.5920000076293945,-2.3095701169538967
10.241379,,7.441396871495703e-08,10.695,0.5820000171661377,-2.331884100636625
10.706897,,6.563517332024302e-08,11.167,0.609000027179718,-2.273591269951651
11.172414,,5.624330691176417e-08,11.625,0.5820000171661377,-2.3329325639532725
11.637931,,4.624536679413108e-08,12.095,0.5889999866485596,-2.3181717843834617
12.103447999999998,,3.5650812628012514e-08,12.558,0.5879999995231628,-2.3207977484019695
12.568966000000001,,2.4471639057309766e-08,13.021,0.5870000123977661,-2.3233679928049327
13.034483,,1.272244243776741e-08,13.491,0.5540000200271606,-2.395588368213557
13.5,,4.2048117444242127e-10,13.951,0.5860000252723694,-2.3261209210522558
13.965517,,1.2414270823040469e-08,14.421,0.6069999933242798,-2.2805347040199937
14.431034,,2.5759078055197866e-08,14.887,0.5789999961853027,-2.3416124842555837
14.896552,,3.9588405199908964e-08,15.351,0.6060000061988831,-2.2827727641314826
15.362069,,5.387388720754889e-08,15.816,0.5879999995231628,-2.321880940810687
15.827586000000002,,6.85843081902832e-08,16.281,0.5830000042915344,-2.332578875119323
16.293103,,8.368558956056454e-08,16.74,0.5839999914169312,-2.330123623393204
16.758621,,9.914078786055893e-08,17.207,0.5799999833106995,-2.3384887702980266
17.224138,,1.149101027087659e-07,17.673,0.593999981880188,-2.30757576613176
17.689655,,1.3095089527244683e-07,18.14,0.6010000109672546,-2.291862577403943
18.155172,,1.4721771765460635e-07,18.605,0.6019999980926514,-2.289184050501109
18.62069,,1.6366235356215934e-07,19.068,0.574999988079071,-2.3474857153264868
19.086207,,1.8023387059754162e-07,19.53,0.6150000095367432,-2.2598117431031848
19.551724,,1.9687868448937666e-07,19.995,0.6129999756813049,-2.2636499833038597
20.017241000000002,,2.1354063554888634e-07,20.465,0.5849999785423279,-2.3241573019052213
20.482758999999998,,2.3016107760754212e-07,20.93,0.6290000081062317,-2.227841259944585
20.948276,,2.466789796579999e-07,21.393,0.5929999947547913,-2.305869985213812
21.413793000000002,,2.6303104038467616e-07,21.859,0.5860000252723694,-2.32078336312465
21.87931,,2.7915181573242973e-07,22.326,0.6100000143051147,-2.2682349957119188
22.344828,,2.949738596217553e-07,22.791,0.6700000166893005,-2.137337565528169
22.810344999999998,,3.1042787787671815e-07,23.251,0.5920000076293945,-2.307180370479036
23.275862,,3.254428953876296e-07,23.717,0.6069999933242798,-2.274499921818988
23.741379,,3.399464364842408e-07,24.182,0.6240000128746033,-2.2375540736594783
24.206897,,3.538647184471014e-07,24.647,0.5289999842643738,-2.4447073961887242
24.672414,,3.671228580347774e-07,25.11,0.5379999876022339,-2.425369311320064
25.137931,,3.796450908529519e-07,25.58,0.5879999995231628,-2.3167872650859285
25.603448,,3.9135500333814393e-07,26.043,0.5839999914169312,-2.3259204515605387
26.068966,,4.02175777074008e-07,26.506,0.6060000061988831,-2.2784629181407627
26.534483,,4.1203044510204067e-07,26.974,0.5910000205039978,-2.3116547457828687
27.0,,4.208421598311628e-07,27.436,0.593999981880188,-2.3056548162718533
27.465517,,4.285344720922254e-07,27.902,0.5929999947547913,-2.3083770123262912
27.931034,,4.350316208241592e-07,28.368,0.5910000205039978,-2.313268875180395
28.396552,,4.4025883281842727e-07,28.834,0.5910000205039978,-2.3137782722674665
28.862069,,4.4414263188782914e-07,29.299,0.5820000171661377,-2.333854885337837
29.327586,,4.4661115676473587e-07,29.764,0.5199999809265137,-2.4693464322073972
29.793103000000002,,4.475944869727093e-07,30.229,0.5649999976158142,-2.371657646240239
30.258620999999998,,4.4702497585439e-07,30.695,0.6290000081062317,-2.2324970902593044
30.724138,,4.4483758987774207e-07,31.158,0.5820000171661377,-2.335078129353086
31.189655000000002,,4.409702532824504e-07,31.624,0.6159999966621399,-2.2610941468211396
31.655172000000004,,4.3536419706871325e-07,32.092,0.6010000109672546,-2.2937662640986796
32.12069,,4.279643112721069e-07,32.554,0.6150000095367432,-2.2631596181723803
32.586207,,4.1871949941086536e-07,33.022,0.6230000257492065,-2.2455295289710997
33.051724,,4.0758303393608035e-07,33.484,0.5929999947547913,-2.310598967774782
33.517241000000006,,3.94512911461242e-07,33.952,0.6230000257492065,-2.244869347287046
33.982759,,3.794722064954877e-07,34.414,0.5929999947547913,-2.309790227409586
34.448276,,3.6242942235516337e-07,34.879,0.5860000252723694,-2.324547689319519
34.913793,,3.433588378811205e-07,35.343,0.5979999899864197,-2.2978724567308992
35.37931,,3.222408485448429e-07,35.809,0.5889999866485596,-2.316926587557286
35.844828,,2.990623004853028e-07,36.273,0.5789999961853027,-2.3381545856441743
36.310345,,2.738168159806709e-07,36.738,0.593999981880188,-2.3049292100238423
36.775862,,2.4650510882492914e-07,37.205,0.6230000257492065,-2.241231406667716
37.241378999999995,,2.1713528804933896e-07,37.671,0.6060000061988831,-2.2777953790474763
37.706897000000005,,1.8572314840288726e-07,38.133,0.5849999785423279,-2.3231329510450345
38.172414,,1.5229244598453247e-07,38.595,0.5899999737739563,-2.31189852411685
38.637931,,1.1687515740358722e-07,39.062,0.593999981880188,-2.302926465642879
39.103448,,7.951172083315874e-08,39.525,0.5730000138282776,-2.348512572234296
39.568965999999996,,4.025125731548958e-08,39.995,0.6019999980926514,-2.2852637054093816
40.034483,,8.482293224500662e-10,40.458,0.593999981880188,-2.302723901793732
40.5,,4.3719675579429765e-08,40.924,0.6060000061988831,-2.2767087241525727
40.965517,,8.828680604139637e-08,41.386,0.5860000252723694,-2.320504213225321
41.431034,,1.3446400740110735e-07,41.852,0.5720000267028809,-2.351315708556457
41.896552,,1.821562303190097e-07,42.318,0.6209999918937683,-2.2449506800267125
42.362069000000005,,2.3125892067755107e-07,42.783,0.5889999866485596,-2.3151215079347254
42.827586000000004,,2.8165798174338076e-07,43.247,0.628000020980835,-2.2306590194883396
43.293103,,3.332297687071439e-07,43.713,0.6539999842643738,-2.1745530675305362
43.758621,,3.8584111701864504e-07,44.177,0.5889999866485596,-2.3167209863303144
44.224138,,4.393494058759351e-07,44.643,0.5920000076293945,-2.3107424327958803
44.689655,,4.936026581602541e-07,45.11,0.5529999732971191,-2.3962537153158974
45.155172,,5.484396780346576e-07,45.573,0.6010000109672546,-2.292192570251161
45.620689999999996,,6.036902273425086e-07,46.036,0.6010000109672546,-2.292659924377277
46.086206999999995,,6.591752418528003e-07,46.506,0.5929999947547913,-2.310494516685251
46.551724,,7.14707088302465e-07,46.97,0.5839999914169312,-2.330433598718525
47.017241,,7.700898630814561e-07,47.432,0.5720000267028809,-2.356824770342986
47.482759,,8.251197332944913e-07,47.898,0.6079999804496765,-2.2785493105084216
47.948276,,8.795853208140049e-07,48.362,0.5759999752044678,-2.3483247109330216
48.413793,,9.332681298121703e-07,48.828,0.6190000176429749,-2.2546017844859954
48.879310000000004,,9.859430181259544e-07,49.291,0.5860000252723694,-2.326357369007121
49.344828,,1.0373787126682303e-06,49.757,0.6179999709129333,-2.2564058952736734
49.810345,,1.0873383689501764e-06,50.222,0.597000002861023,-2.3018345043244577
50.275862,,1.1355801746257944e-06,50.688,0.5889999866485596,-2.318862774930911
50.741379,,1.1818579968086219e-06,51.155,0.6039999723434448,-2.2857167575053228
51.206897,,1.2259220727439166e-06,51.621,0.5910000205039978,-2.3135215485018645
51.672414,,1.2675197432470618e-06,52.084,0.6179999709129333,-2.2541449520997747
52.137931,,1.3063962281410631e-06,52.547,0.5540000200271606,-2.393007067460347
52.603448,,1.342295442743194e-06,53.01,0.5929999947547913,-2.3074691193154933
53.068966,,1.3749608542635095e-06,53.48,0.6069999933242798,-2.2764150983580915
53.534483,,1.4041363767865824e-06,53.944,0.6069999933242798,-2.275895755818621
54.0,,1.4295673033129184e-06,54.407,0.5929999947547913,-2.305927202349294
54.465517,,1.4510012731386229e-06,54.872,0.5879999995231628,-2.316415745625293
54.931034,,1.468189272651589e-06,55.34,0.6029999852180481,-2.2834091153283094
55.396552,,1.4808866674203917e-06,55.805,0.6060000061988831,-2.2766337214634427
55.862069,,1.4888542632488111e-06,56.27,0.5830000042915344,-2.326598421934727
56.327586,,1.4918593936651759e-06,56.735,0.6209999918937683,-2.2437654902574744
56.793102999999995,,1.4896770311121947e-06,57.195,0.5950000286102295,-2.300467067670137
57.258621000000005,,1.4820909189003836e-06,57.661,0.6010000109672546,-2.287551723679962
57.724138,,1.4688947207873622e-06,58.129,0.6010000109672546,-2.2878036851990076
58.189655,,1.4498931848469585e-06,58.591,0.6150000095367432,-2.2576421335597257
58.655172,,1.42490331809705e-06,59.055,0.6050000190734863,-2.279845165995577
59.120689999999996,,1.3937555681642332e-06,59.525,0.6069999933242798,-2.2759689926853057
59.586207,,1.35629500807759e-06,59.985,0.5540000200271606,-2.39196942282546
60.051724,,1.312382520103909e-06,60.454,0.5770000219345093,-2.342428855229813
60.517241,,1.2618959743635935e-06,60.92,0.5929999947547913,-2.3081575596236568
60.982758999999994,,1.2047313978010953e-06,61.382,0.574999988079071,-2.347960125848903
61.448276,,1.14080412892692e-06,61.848,0.6169999837875366,-2.2570249323104123
61.913793,,1.0700499536010524e-06,62.31,0.6150000095367432,-2.2619125332379295
62.379310000000004,,9.92426216990935e-07,62.775,0.6579999923706055,-2.1687052166811687
62.84482800000001,,9.079129067118655e-07,63.247,0.5879999995231628,-2.3216143205388926
63.310345000000005,,8.165137020447979e-07,63.705,0.5759999752044678,-2.3480803682420563
63.775862000000004,,7.182569840269624e-07,64.17,0.6169999837875366,-2.258987335615651
64.241379,,6.131968011254078e-07,64.636,0.5669999718666077,-2.368053087143223
64.706897,,5.014137851334254e-07,65.106,0.5690000057220459,-2.3637273365450526
65.172414,,3.83016011875745e-07,65.569,0.6190000176429749,-2.2547234728917482
65.637931,,2.581398012712834e-07,66.033,0.5989999771118164,-2.298122499301028
66.103448,,1.269504512829457e-07,66.495,0.6010000109672546,-2.293493224488543
66.56896599999999,,1.0357099716636111e-08,66.962,0.5789999961853027,-2.3410625803520086
67.03448300000001,,1.5355768761568629e-07,67.432,0.5960000157356262,-2.303586809027415
67.5,,3.023954196833435e-07,67.89,0.6169999837875366,-2.2573314779439886
67.965517,,4.5658325949226134e-07,68.362,0.5730000138282776,-2.3526381801759197
68.431034,,6.158027049150563e-07,68.82,0.5879999995231628,-2.3193725358260693
68.896552,,7.797035643618283e-07,69.286,0.5809999704360962,-2.3340234104983
69.362069,,9.479038362989852e-07,69.753,0.6019999980926514,-2.287676179122534
69.827586,,1.119989696939167e-06,70.221,0.5889999866485596,-2.31542520943749
70.293103,,1.2955156008176923e-06,70.686,0.5659999847412109,-2.3650010281141824
70.75862099999999,,1.4740044987722522e-06,71.151,0.593999981880188,-2.303523123513425
71.22413800000001,,1.6549481776191914e-06,71.61,0.593999981880188,-2.3031189067101083
71.689655,,1.8378077255713828e-06,72.077,0.5669999718666077,-2.3616223176922335
72.15517200000001,,2.02201412716923e-06,72.54,0.574999988079071,-2.3439679072683823
72.62069,,2.2069689911976014e-06,73.01,0.5830000042915344,-2.326415615794595
73.086207,,2.392045414737501e-06,73.473,0.5820000171661377,-2.3285768207618824
73.551724,,2.576588986152053e-06,73.944,0.6050000190734863,-2.2785562805999002
74.017241,,2.759918929432091e-06,74.406,0.5839999914169312,-2.32449920144474
74.482759,,2.9413293919275673e-06,74.872,0.6079999804496765,-2.2724999294014174
74.94827599999999,,3.1200908770674427e-06,75.336,0.6100000143051147,-2.268518714949884
75.41379300000001,,3.295451823223159e-06,75.802,0.5820000171661377,-2.329973593978992
75.87931,,3.4666403293998187e-06,76.267,0.5920000076293945,-2.3087035385334786
76.344828,,3.6328660279454015e-06,76.725,0.5820000171661377,-2.331054836685782
76.810345,,3.793322103952598e-06,77.192,0.6190000176429749,-2.251040389747756
77.275862,,3.947187460490912e-06,77.658,0.5839999914169312,-2.3279008254662217
77.741379,,4.093629028249708e-06,78.121,0.625,-2.2391772570050077
78.206897,,4.2318042175968645e-06,78.59,0.5789999961853027,-2.339971263260798
78.67241399999999,,4.360863510463953e-06,79.051,0.6209999918937683,-2.2490017835286302
79.137931,,4.4799531888586495e-06,79.521,0.5789999961853027,-2.3409802264694024
79.603448,,4.588218196179975e-06,79.984,0.5799999833106995,-2.3392044087791217
80.068966,,4.6848051268734856e-06,80.447,0.593999981880188,-2.3090218419547694
80.53448300000001,,4.768865339313349e-06,80.912,0.574999988079071,-2.350640338205033
81.0,,4.839558186138247e-06,81.375,0.597000002861023,-2.3028328451397875
81.465517,,4.896054355600107e-06,81.841,0.5910000205039978,-2.3159218236830466
81.931034,,4.937539316810827e-06,82.307,0.5879999995231628,-2.322368313059029
82.396552,,4.963216861094595e-06,82.772,0.5849999785423279,-2.328710903221296
82.86206899999999,,4.972312730974358e-06,83.237,0.6079999804496765,-2.2783100080270975
83.327586,,4.964078327642796e-06,83.703,0.5799999833106995,-2.338930004295438
83.79310299999999,,4.937794487093325e-06,84.17,0.6110000014305115,-2.270930875427746
84.258621,,4.892775314417622e-06,84.636,0.6579999923706055,-2.168006949316637
84.72413800000001,,4.82837206511574e-06,85.099,0.6060000061988831,-2.2807173599605237
85.189655,,4.743977061615602e-06,85.561,0.6330000162124634,-2.2212808179525765
85.65517200000001,,4.639027632563466e-06,86.029,0.6439999938011169,-2.1966876222031786
86.12069,,4.513010061828645e-06,86.492,0.597000002861023,-2.2984602483367853
86.586207,,4.365463533567295e-06,86.955,0.5720000267028809,-2.3523281786741017
87.051724,,4.195984059114475e-06,87.425,0.609000027179718,-2.271165280072902
87.517241,,4.004228370923854e-06,87.89,0.5920000076293945,-2.30771150971174
87.98275899999999,,3.7899177682536355e-06,88.355,0.5860000252723694,-2.3203699617151843
88.448276,,3.55284189880848e-06,88.82,0.5180000066757202,-2.468196992192102
88.913793,,3.292862460093597e-06,89.285,0.41600000858306885,-2.6902049524326808
89.37931,,3.0099168038218827e-06,89.751,0.609000027179718,-2.2696263439836817
89.844828,,2.7040214263411136e-06,90.21,0.6119999885559082,-2.2631036975000383
90.310345,,2.3752753277189373e-06,90.676,0.5759999752044678,-2.3416570672547556
90.775862,,2.023863221841773e-06,91.141,0.5519999861717224,-2.394173069833496
91.241379,,1.6500585796528668e-06,91.607,0.5979999899864197,-2.2942835273976323
91.706897,,1.254226487477595e-06,92.07,0.6039999723434448,-2.2816281068958166
92.17241399999999,,8.368263022636764e-07,92.54,0.5920000076293945,-2.3082624163721124
92.63793100000001,,3.98414085503092e-07,93.003,0.5789999961853027,-2.337134899773619
93.103448,,6.035520239599058e-08,93.465,0.640999972820282,-2.202650594812153
93.568966,,5.387257654524225e-07,93.931,0.5820000171661377,-2.331805287472841
94.03448300000001,,1.035839311201353e-06,94.395,0.6190000176429749,-2.251813770118145
94.5,,1.550733683356267e-06,94.861,0.6399999856948853,-2.2066651024100383
94.965517,,2.0823418055938348e-06,95.328,0.6100000143051147,-2.2725925159377143
95.431034,,2.6294909536604723e-06,95.794,0.5889999866485596,-2.3188612524803274
95.896552,,3.1909023725718954e-06,96.259,0.5889999866485596,-2.319313152311865
96.36206899999999,,3.7651912551710538e-06,96.724,0.5740000009536743,-2.352366791840336
96.827586,,4.350867097724134e-06,97.189,0.5929999947547913,-2.3112575359743377
97.293103,,4.946334447567383e-06,97.654,0.5889999866485596,-2.320159602501417
97.758621,,5.549894057068283e-06,98.117,0.6000000238418579,-2.2962783908728985
98.224138,,6.1597444573321185e-06,98.587,0.5770000219345093,-2.346365732622512
98.689655,,6.773983964168729e-06,99.047,0.5960000157356262,-2.3048454619729797
99.155172,,7.390613127833672e-06,99.51,0.5709999799728394,-2.3590857641824288
99.62069,,8.00753763697334e-06,99.978,0.5920000076293945,-2.3130153116630705
100.086207,,8.62257168603471e-06,100.44,0.6320000290870667,-2.225466618085384
100.551724,,9.233441814148093e-06,100.906,0.6079999804496765,-2.277278702786726
101.017241,,9.837791222156321e-06,101.377,0.6179999709129333,-2.254958332773104
101.482759,,1.0433184573047298e-05,101.835,0.6290000081062317,-2.2304172423122663
101.948276,,1.1017113279550587e-05,102.306,0.5929999947547913,-2.3082486282572057
102.413793,,1.1587001281084188e-05,102.765,0.6010000109672546,-2.2902147099615893
102.87931,,1.214021131058747e-05,103.23,0.5830000042915344,-2.3288403531001802
103.344828,,1.2674051650052742e-05,103.696,0.5929999947547913,-2.3064968822909404
103.810345,,1.3185783371774252e-05,104.163,0.5789999961853027,-2.3364912634213084
104.275862,,1.3672628060472886e-05,104.629,0.6050000190734863,-2.279405172987135
104.741379,,1.4131776009531132e-05,105.092,0.6169999837875366,-2.2528982403319913
105.206897,,1.4560394882590181e-05,105.562,0.5870000123977661,-2.3179829189569388
105.672414,,1.4955638829723888e-05,106.022,0.5759999752044678,-2.34177118146996
106.13793100000001,,1.5314658045317495e-05,106.485,0.578000009059906,-2.3373407195113893
106.603448,,1.5634608752648042e-05,106.955,0.5830000042915344,-2.326480225345905
107.068966,,1.5912663597993724e-05,107.417,0.5830000042915344,-2.3266172082537935
107.534483,,1.6146022434897274e-05,107.883,0.5860000252723694,-2.3203177001925597
108.0,,1.6331923476980104e-05,108.348,0.492000013589859,-2.5254407309777336
108.46551699999999,,1.6467654795456517e-05,108.813,0.6150000095367432,-2.2578809411047525
108.931034,,1.655056613523754e-05,109.28,0.5960000157356262,-2.2997577056558187
109.396552,,1.6578081021249578e-05,109.746,0.5929999947547913,-2.3068277058180082
109.862069,,1.6547709124332326e-05,110.21,0.6330000162124634,-2.220250190171851
110.32758600000001,,1.645705885383072e-05,110.676,0.578000009059906,-2.3406607532450447
110.793103,,1.6303850141766415e-05,111.144,0.5989999771118164,-2.29549315976632
111.258621,,1.6085927381273506e-05,111.602,0.5709999799728394,-2.357061206904693
111.724138,,1.580127247982043e-05,112.07,0.6209999918937683,-2.2486588616076046
112.189655,,1.5448017985624558e-05,112.532,0.6449999809265137,-2.1968477527402763
112.655172,,1.5024460243607242e-05,112.996,0.5910000205039978,-2.3149022757784934
113.12069,,1.4529072535245015e-05,113.466,0.5950000286102295,-2.3065156910115223
113.586207,,1.3960518154757125e-05,113.932,0.5929999947547913,-2.3111128927181572
114.051724,,1.3317663372240817e-05,114.395,0.5920000076293945,-2.313436349343998
114.51724100000001,,1.2599590232633973e-05,114.861,0.5709999799728394,-2.3592344918263795
114.982759,,1.1805609137760265e-05,115.325,0.5849999785423279,-2.328681172840372
115.448276,,1.093527115720531e-05,115.791,0.6079999804496765,-2.278422927713596
115.913793,,9.988380012393792e-06,116.251,0.5920000076293945,-2.3130391660493164
116.37931,,8.965003676997806e-06,116.717,0.5640000104904175,-2.3737150973629206
116.84482799999999,,7.865485535715917e-06,117.181,0.6060000061988831,-2.2818124725628826
117.310345,,6.690455042531159e-06,117.646,0.5929999947547913,-2.309674267480424
117.77586199999999,,5.4408378187944816e-06,118.114,0.5460000038146973,-2.4115637957157383
118.241379,,4.1178651308981145e-06,118.577,0.6230000257492065,-2.243270803942792
118.70689700000001,,2.7230826869108127e-06,119.04,0.6179999709129333,-2.2536118765558584
119.172414,,1.2583586913534252e-06,119.51,0.5989999771118164,-2.2944546226761484
119.63793100000001,,2.7410890269185614e-07,119.973,0.5669999718666077,-2.3636388412663774
120.103448,,1.8717860047130038e-06,120.436,0.5929999947547913,-2.3064976422383183
120.568966,,3.5317969212568123e-06,120.902,0.5770000219345093,-2.340910934147074
121.034483,,5.25091987319901e-06,121.367,0.5920000076293945,-2.307850591426534
121.5,,7.02558355428642e-06,121.833,0.6359999775886536,-2.211684052769348
121.96551699999999,,8.85186478825931e-06,122.299,0.6060000061988831,-2.2768196180913893
122.431034,,1.0725487340424285e-05,122.764,0.5910000205039978,-2.3093646900051645
122.896552,,1.264182193784915e-05,123.23,0.5920000076293945,-2.30714547146572
123.362069,,1.4595887550385766e-05,123.695,0.6399999856948853,-2.2026239756584873
123.827586,,1.6582353982490592e-05,124.155,0.5929999947547913,-2.305165340963214
124.293103,,1.859554582330156e-05,124.621,0.578000009059906,-2.338077539533897
124.758621,,2.062944779964129e-05,125.092,0.5860000252723694,-2.3209622924227586
125.22413800000001,,2.2677711573548382e-05,125.554,0.5830000042915344,-2.3278838898031204
125.68965500000002,,2.4733664022589378e-05,126.018,0.5879999995231628,-2.3174356619227288
126.15517200000001,,2.6790317037573758e-05,126.48,0.6060000061988831,-2.278710024871954
126.62069000000001,,2.884037886838392e-05,126.948,0.5820000171661377,-2.3315171697475465
127.086207,,3.087626704444316e-05,127.411,0.6100000143051147,-2.271048087093288
127.55172400000001,,3.2890122891880325e-05,127.876,0.515999972820282,-2.4763725473047162
128.017241,,3.487382766471372e-05,128.343,0.6060000061988831,-2.28080861922242
128.48275900000002,,3.681902030237421e-05,128.809,0.5860000252723694,-2.3248623256880836
128.948276,,3.8717116820625224e-05,129.274,0.5989999771118164,-2.296971016208612
129.413793,,4.055933133742162e-05,129.74,0.5799999833106995,-2.338733708885622
129.87931,,4.233669872949044e-05,130.207,0.6029999852180481,-2.288919342535903
130.344828,,4.404009890942302e-05,130.666,0.5889999866485596,-2.319632087441062
130.81034499999998,,4.56602827068521e-05,131.14,0.5920000076293945,-2.3132186049401793
131.275862,,4.718789933086105e-05,131.598,0.6050000190734863,-2.2849259148987837
131.741379,,4.861352538414961e-05,132.066,0.5830000042915344,-2.3327925271611156
132.206897,,4.992769539267586e-05,132.528,0.5960000157356262,-2.3043155053925273
132.67241399999997,,5.1120933807524895e-05,132.992,0.593999981880188,-2.308432518697269
133.13793099999998,,5.218378842863757e-05,133.461,0.5669999718666077,-2.3669379683909875
133.60344800000001,,5.310686519278757e-05,133.92,0.5830000042915344,-2.331694502760604
134.06896600000002,,5.38808642608407e-05,134.39,0.5910000205039978,-2.3138252116320857
134.53448300000002,,5.44966173318901e-05,134.856,0.5929999947547913,-2.308985949703075
135.0,,5.4945126104355775e-05,135.321,0.6010000109672546,-2.291047350015012
135.465517,,5.5217601796591967e-05,135.786,0.5960000157356262,-2.3014194082771358
135.931034,,5.5305505631985405e-05,136.251,0.5979999899864197,-2.2965453003214886
136.396552,,5.520059018597771e-05,136.71,0.6060000061988831,-2.278619340893401
136.862069,,5.4894941484934366e-05,137.181,0.6269999742507935,-2.232405759558197
137.327586,,5.43810217393373e-05,137.646,0.6060000061988831,-2.2777437091546764
137.793103,,5.3651712586429694e-05,138.107,0.5929999947547913,-2.305714344934346
138.258621,,5.2700358710218044e-05,138.576,0.5860000252723694,-2.3206866241873616
138.724138,,5.152081169967083e-05,139.036,0.6420000195503235,-2.1984857014995525
139.189655,,5.010747399907576e-05,139.506,0.6050000190734863,-2.2789854963613307
139.655172,,4.845534279786162e-05,139.97,0.6259999871253967,-2.233213354689532
140.12069,,4.656005370078923e-05,140.432,0.5839999914169312,-2.3247869947350153
140.586207,,4.44179240133029e-05,140.897,0.6079999804496765,-2.2726593230557706
141.05172399999998,,4.202599547104205e-05,141.361,0.574999988079071,-2.3447996679321457
141.51724099999998,,3.93820762370778e-05,141.827,0.5879999995231628,-2.3168001193796455
141.982759,,3.648478198539509e-05,142.291,0.5860000252723694,-2.3215483636534078
142.44827600000002,,3.333357588452262e-05,142.757,0.5920000076293945,-2.308923104237967
142.913793,,2.992880729105453e-05,143.221,0.5849999785423279,-2.3246618894368107
143.37931,,2.6271748959143768e-05,143.687,0.6060000061988831,-2.2794244386467217
143.844828,,2.2364632568911912e-05,144.152,0.5979999899864197,-2.297377384409106
144.310345,,1.821068237414747e-05,144.617,0.6240000128746033,-2.241248690968246
144.77586200000002,,1.3814146767687418e-05,145.08,0.5960000157356262,-2.302743208144806
145.241379,,9.180327561527348e-06,145.55,0.5929999947547913,-2.3097329381605274
145.706897,,4.315606778015656e-06,146.014,0.5960000157356262,-2.3035985407109867
146.172414,,7.725292515126545e-07,146.477,0.6039999723434448,-2.286506205225614
146.637931,,6.075468683587477e-06,146.948,0.6060000061988831,-2.282409911156406
147.103448,,1.1583456056398215e-05,147.41,0.5889999866485596,-2.3196243872461464
147.568966,,1.728557747974828e-05,147.875,0.5709999799728394,-2.3589292632630143
148.034483,,2.316974931734606e-05,148.34,0.5879999995231628,-2.3218910659285297
148.5,,2.9222710553746608e-05,148.805,0.5920000076293945,-2.3130846970828007
148.965517,,3.5430019033552374e-05,149.27,0.5910000205039978,-2.315083303415188
149.43103399999998,,4.17760517549131e-05,149.736,0.6330000162124634,-2.223316507196525
149.89655199999999,,4.8244009392917326e-05,150.195,0.5929999947547913,-2.3101228333952397
150.362069,,5.4815925221126916e-05,150.661,0.5960000157356262,-2.303182231695249
150.82758600000003,,6.147267859125877e-05,151.125,0.5789999961853027,-2.3397633579179615
151.293103,,6.819401312185708e-05,151.594,0.6079999804496765,-2.2760895143975812
151.758621,,7.495855973671708e-05,152.058,0.6119999885559082,-2.266859270127709
152.224138,,8.174386468281619e-05,152.521,0.6169999837875366,-2.255443115806149
152.68965500000002,,8.852642264557888e-05,152.985,0.5960000157356262,-2.3006809429756783
153.155172,,9.528171506645281e-05,153.454,0.6460000276565552,-2.191259744532619
153.62069,,0.00010198425375401081,153.92,0.5789999961853027,-2.336780751768794
154.086207,,0.00010860762986512882,154.382,0.5889999866485596,-2.314601389526687
154.551724,,0.00011512456831723559,154.848,0.5910000205039978,-2.309920037503639
155.017241,,0.00012150698767620688,155.314,0.5920000076293945,-2.30749629045072
155.482759,,0.00012772606554720367,155.78,0.5989999771118164,-2.2920870734618335
155.948276,,0.00013375230947766,156.245,0.6019999980926514,-2.285483415152971
156.413793,,0.00013955563336273804,156.71,0.5669999718666077,-2.36176218342868
156.87931,,0.0001451054393239233,157.177,0.6159999966621399,-2.2551275132750512
157.34482799999998,,0.0001503707050110674,157.635,0.6299999952316284,-2.2248336717332977
157.81034499999998,,0.00015532007625714475,158.103,0.593999981880188,-2.3035531356797008
158.275862,,0.0001599219649933172,158.565,0.5920000076293945,-2.308271417614342
158.741379,,0.00016414465230965057,159.033,0.5860000252723694,-2.321766906936868
159.20689700000003,,0.00016795639652405394,159.495,0.5789999961853027,-2.337490903420439
159.672414,,0.00017132554609877742,159.963,0.5839999914169312,-2.3271062659849244
160.137931,,0.0001742206572201684,160.425,0.5929999947547913,-2.3080260231108167
160.60344800000001,,0.00017661061583342284,160.89,0.6370000243186951,-2.2126941465681296
161.06896600000002,,0.00017846476389984627,161.358,0.5699999928474426,-2.359176405090757
161.534483,,0.00017975302961973583,161.823,0.6449999809265137,-2.196258515273386
162.0,,0.00018044606133949377,162.289,0.5960000157356262,-2.3034453607816414
162.465517,,0.00018051536483706503,162.755,0.5960000157356262,-2.303817633074953
162.931034,,0.00017993344365534801,163.221,0.6060000061988831,-2.28233165099721
163.396552,,0.00017867394212894722,163.68,0.6169999837875366,-2.258585258010464
163.862069,,0.0001767117907256209,164.151,0.5740000009536743,-2.3523973991455733
164.327586,,0.00017402335330011593,164.61,0.5849999785423279,-2.3284712455827306
164.793103,,0.00017058657583488517,165.08,0.6209999918937683,-2.2499859360101073
165.258621,,0.0001663811362195499,165.543,0.6119999885559082,-2.26944729456796
165.72413799999998,,0.00016138859459900867,166.007,0.6190000176429749,-2.253961710331536
166.189655,,0.00015559254379891478,166.477,0.5920000076293945,-2.3124695861182767
166.655172,,0.00014897875931695694,166.935,0.6010000109672546,-2.292475997498712
167.12069,,0.00014153534834909542,167.4,0.5929999947547913,-2.3094618685781767
167.58620699999997,,0.00013325289730174147,167.866,0.5860000252723694,-2.3242255533948186
168.051724,,0.00012412461722393665,168.332,0.578000009059906,-2.3411403821960293
168.517241,,0.00011414648657800574,168.798,0.6060000061988831,-2.279612210616385
168.98275900000002,,0.00010331739075303846,169.262,0.574999988079071,-2.3466288982252466
169.44827600000002,,9.163925771301732e-05,169.728,0.6460000276565552,-2.1914433472969845
169.913793,,7.911718916056245e-05,170.193,0.6209999918937683,-2.2454424482211364
170.37931,,6.575958658822094e-05,170.658,0.621999979019165,-2.2428450114465104
170.844828,,5.157827158210007e-05,171.121,0.5809999704360962,-2.331813614094837
171.310345,,3.658859973755282e-05,171.591,0.5889999866485596,-2.3141037526585913
171.775862,,2.0809567543672184e-05,172.051,0.593999981880188,-2.3030145474526464
172.241379,,4.2639115926248465e-06,172.521,0.6660000085830688,-2.1460449699004926
172.706897,,1.302180052855892e-05,172.985,0.621999979019165,-2.2418895036161817
173.172414,,3.101708830210064e-05,173.447,0.6079999804496765,-2.272466407534272
173.637931,,4.9687485931259356e-05,173.913,0.6119999885559082,-2.2639186498534793
174.103448,,6.899448020231579e-05,174.376,0.6299999952316284,-2.224955638690868
174.568966,,8.889545916744146e-05,174.842,0.5789999961853027,-2.336397815089511
175.034483,,0.00010934367224467212,175.306,0.5809999704360962,-2.332441428360422
175.5,,0.00013028820231385295,175.772,0.5920000076293945,-2.308935159728581
175.96551699999998,,0.00015167395036686608,176.237,0.621999979019165,-2.244077526200605
176.43103399999998,,0.0001734416332468299,176.703,0.6399999856948853,-2.205389111513084
176.896552,,0.0001955277949849232,177.17,0.5929999947547913,-2.3083215708203744
177.36206900000002,,0.00021786483221516786,177.635,0.6370000243186951,-2.2129894351882875
177.827586,,0.00024038103411558865,178.095,0.6000000238418579,-2.294103876854488
178.293103,,0.0002630006372872784,178.565,0.6150000095367432,-2.2618889931702517
178.758621,,0.0002856438959426113,179.026,0.5950000286102295,-2.305873080611425
179.224138,,0.00030822716773422896,179.495,0.6140000224113464,-2.2648233844774635
179.68965500000002,,0.00033066301551750495,179.956,0.6010000109672546,-2.293412950320282
180.155172,,0.000352860325292681,180.425,0.6069999933242798,-2.280522162219736
180.62069,,0.000374724440512138,180.89,0.5400000214576721,-2.42658203713946
181.086207,,0.00039615731287522704,181.355,0.5929999947547913,-2.3111117920977025
181.551724,,0.000417057669690941,181.82,0.5960000157356262,-2.304480482487795
182.01724099999998,,0.0004373211978616819,182.285,0.5820000171661377,-2.3347945400357486
182.482759,,0.00045684074447733213,182.751,0.6349999904632568,-2.2190523170682
182.948276,,0.000475506533878295,183.21,0.6320000290870667,-2.2252339186824783
183.413793,,0.0004932064009330787,183.675,0.6019999980926514,-2.290169188016387
183.87931,,0.0005098260403082707,184.141,0.6050000190734863,-2.2831529977858884
184.34482799999998,,0.000525249271616082,184.606,0.593999981880188,-2.3065975424615925
184.81034499999998,,0.0005393583201883683,185.077,0.6150000095367432,-2.2603007592195605
185.27586200000002,,0.00055203411273689,185.539,0.6060000061988831,-2.279355630991044
185.74137900000002,,0.0005631565868861305,186.0,0.5920000076293945,-2.3093133095002627
186.206897,,0.0005726050141859413,186.469,0.5540000200271606,-2.3915865440676773
186.672414,,0.0005802583370994373,186.935,0.597000002861023,-2.29743431334129
187.137931,,0.0005859955197215936,187.401,0.5830000042915344,-2.327524251191876
187.60344800000001,,0.0005896959093943084,187.867,0.5950000286102295,-2.3010409051472167
188.06896600000002,,0.0005912396056654417,188.325,0.6039999723434448,-2.281175714218854
188.534483,,0.0005905078376171664,188.791,0.6060000061988831,-2.2766505224170515
189.0,,0.0005873833555438008,189.255,0.5879999995231628,-2.315793613942275
189.465517,,0.0005817508373260397,189.722,0.5960000157356262,-2.2983900043807246
189.931034,,0.0005734972949961209,190.188,0.6190000176429749,-2.2484040097858315
190.39655199999999,,0.0005625124665567267,190.654,0.640999972820282,-2.2006891391022507
190.862069,,0.0005486892081485775,191.117,0.6179999709129333,-2.251098580809212
191.327586,,0.0005319239263467447,191.58,0.6079999804496765,-2.273262427249592
191.793103,,0.0005121170481496955,192.048,0.5889999866485596,-2.3151008308616454
192.25862099999998,,0.0004891734416443421,192.51,0.6190000176429749,-2.2502389947681904
192.72413799999998,,0.00046300271952892853,192.981,0.5849999785423279,-2.3248492311851363
193.189655,,0.0004335195467790761,193.443,0.6060000061988831,-2.279655926507398
193.655172,,0.0004006441849905567,193.908,0.6190000176429749,-2.251896633676728
194.12069000000002,,0.00036430320571977255,194.372,0.6039999723434448,-2.2851264751780915
194.586207,,0.00032442983681436904,194.838,0.5960000157356262,-2.303075877929099
195.051724,,0.00028096364937404354,195.303,0.6129999756813049,-2.2665136439493203
195.517241,,0.00023385045026850246,195.769,0.6060000061988831,-2.2821780841766204
195.98275900000002,,0.00018304366723977957,196.233,0.5920000076293945,-2.313019590862125
196.448276,,0.0001285064706095745,196.698,0.6029999852180481,-2.289311045137551
196.913793,,7.021137796300376e-05,197.166,0.6370000243186951,-2.2154005241560224
197.37931,,8.136296768323072e-06,197.631,0.5879999995231628,-2.3222191481967087
197.844828,,5.773714252219049e-05,198.092,0.6290000081062317,-2.2328584550009856
198.310345,,0.00012741614958506137,198.562,0.6060000061988831,-2.2828310846866655
198.775862,,0.00020088683697033993,199.022,0.625,-2.2412038008988384
199.241379,,0.0002781210637519918,199.492,0.6060000061988831,-2.282275454869489
199.706897,,0.00035910186606558266,199.955,0.6449999809265137,-2.196905126459224
200.172414,,0.00044382927164190983,200.417,0.6190000176429749,-2.2530780796457495
200.63793099999998,,0.0005322723142235956,200.883,0.6129999756813049,-2.265624226479283
201.103448,,0.0006243185376300887,201.347,0.6140000224113464,-2.2628825157937196
201.568966,,0.0007198321970057199,201.813,0.609000027179718,-2.273193230919814
202.034483,,0.0008188044044333126,202.281,0.5669999718666077,-2.3641135394884474
202.5,,0.0009213531870978937,202.746,0.6330000162124634,-2.2197574770220183
202.965517,,0.0010274148419219086,203.21,0.5669999718666077,-2.3630183736622024
203.431034,,0.001136497740575035,203.676,0.6190000176429749,-2.2492502807297705
203.896552,,0.0012481208065508345,204.14,0.6460000276565552,-2.1900140017390033
204.36206900000002,,0.0013626698189170552,204.606,0.5910000205039978,-2.309504473498608
204.827586,,0.0014811792385452404,205.067,0.5910000205039978,-2.3092588422001974
205.293103,,0.0016033978627029645,205.537,0.6019999980926514,-2.285146402929072
205.758621,,0.0017266949887639453,205.999,0.5649999976158142,-2.3657124340070426
206.224138,,0.0018491660085338884,206.462,0.6159999966621399,-2.2546624759947504
206.689655,,0.0019743596270829678,206.928,0.5849999785423279,-2.3223645718837034
207.155172,,0.0021086636239408783,207.391,0.5989999771118164,-2.292125202098423
207.62069,,0.0022495000158384965,207.856,0.6150000095367432,-2.2576180124412217
208.086207,,0.0023812849349823134,208.321,0.6019999980926514,-2.2863698954618203
208.551724,,0.0024964805935032202,208.786,0.5929999947547913,-2.306472451735068
209.01724099999998,,0.0026206967868724947,209.252,0.6169999837875366,-2.254729759543025
209.482759,,0.0027894270959635064,209.717,0.6079999804496765,-2.2749152364923844
209.948276,,0.0029778779512904044,210.184,0.6140000224113464,-2.262435547071319
210.413793,,0.0030928320912143765,210.65,0.5929999947547913,-2.3087762177802533
210.87930999999998,,0.003110448523310175,211.111,0.6050000190734863,-2.283200234271784
211.344828,,0.0032029073350282318,211.58,0.6489999890327454,-2.187867980402305
211.810345,,0.003556041490480782,212.043,0.6029999852180481,-2.288557081677037
212.27586200000002,,0.003963381320900634,212.506,0.593999981880188,-2.3085655963210536
212.741379,,0.0038775695971632255,212.97,0.5979999899864197,-2.3001697723224246
213.206897,,0.0032882330530176257,213.439,0.6330000162124634,-2.2241433420689747
213.672414,,0.0033229638283171635,213.905,0.5730000138282776,-2.3549888606939025
214.137931,,0.004922340590685478,214.369,0.6320000290870667,-2.226471766806204
214.60344800000001,,0.00646161431200951,214.835,0.5870000123977661,-2.3244298756479527
215.068966,,0.004168739243323388,215.299,0.6140000224113464,-2.265423259808266
215.534483,,0.0033727839413844377,215.765,0.6119999885559082,-2.2695010542802594
216.0,,0.012121999141345935,216.225,0.6370000243186951,-2.2146662862793596
216.465517,,0.016250901013095915,216.69,0.6010000109672546,-2.2926514332700525
216.93103399999998,,0.014422865696857546,217.155,0.5540000200271606,-2.394539389468337
217.39655199999999,,0.010296727239982324,217.621,0.5830000042915344,-2.330805335082133
217.862069,,0.007464039659726565,218.092,0.6060000061988831,-2.2801147796796615
218.327586,,0.006291774780217414,218.554,0.550000011920929,-2.401526629305251
218.793103,,0.005515317128221016,219.022,0.6050000190734863,-2.281116316438971
219.25862099999998,,0.004516567615771656,219.484,0.5989999771118164,-2.2936285924419635
219.724138,,0.0032876811138955056,219.952,0.5929999947547913,-2.3061820225186387
220.18965500000002,,0.0016734208643581355,220.414,0.6269999742507935,-2.231646396072638
220.65517200000002,,0.00027716826621542514,220.88,0.515999972820282,-2.4730867385663844
221.12069,,0.0018425791988197638,221.34,0.5929999947547913,-2.305026837087143
221.586207,,0.002309815685511819,221.805,0.6420000195503235,-2.1980624839454297
222.051724,,0.00186867274269113,222.27,0.6190000176429749,-2.2480578334064845
222.517241,,0.0013620410832121713,222.736,0.5929999947547913,-2.304689973185835
222.98275900000002,,0.0013565992520291914,223.202,0.6039999723434448,-2.280814528637307
223.448276,,0.0017697272374618631,223.668,0.6029999852180481,-2.2831826692833728
223.913793,,0.0021817569511365996,224.141,0.593999981880188,-2.303074213907137
224.37931,,0.002204767017521762,224.599,0.597000002861023,-2.2969078262235443
224.844828,,0.0016753647865013063,225.062,0.6309999823570251,-2.223277549339471
225.31034499999998,,0.0007758921361649517,225.525,0.5920000076293945,-2.30874867872771
225.775862,,8.842346918729418e-06,225.993,0.5839999914169312,-2.3267276059286304
226.241379,,0.00014286446374111057,226.455,0.597000002861023,-2.2989848009624763
226.706897,,0.00028026212294632064,226.92,0.5929999947547913,-2.3082911704692934
227.172414,,0.0006214417733358536,227.39,0.5879999995231628,-2.319770248301209
227.63793099999998,,0.00029310148837211265,227.855,0.6039999723434448,-2.2854739497706458
228.103448,,0.0004309042318357129,228.321,0.5889999866485596,-2.318674481824601
228.56896600000002,,0.000670426291761856,228.787,0.6439999938011169,-2.199311673195365
229.03448300000002,,0.0001244669027345022,229.252,0.5979999899864197,-2.2999194624362778
229.5,,0.0003999181870516403,229.71,0.6299999952316284,-2.230507763431409
229.965517,,2.2315637591858554e-06,230.177,0.5899999737739563,-2.31786513978612
230.431034,,0.0009967857929915284,230.642,0.6060000061988831,-2.2831184707484
230.896552,,0.0010923261892704854,231.112,0.5889999866485596,-2.3201648258384813
231.362069,,0.0008449506563176545,231.574,0.6039999723434448,-2.2873916318687946
231.827586,,0.004323161029638648,232.036,0.5630000233650208,-2.3765232205427322
232.293103,,0.007563200739973346,232.506,0.6200000047683716,-2.2520538929451575
232.758621,,0.009053444857756431,232.969,0.6290000081062317,-2.232073322678057
233.224138,,0.00876366457124465,233.432,0.5860000252723694,-2.325306785828661
233.689655,,0.007943133954591815,233.898,0.6119999885559082,-2.2681524229871366
234.155172,,0.00782188867896065,234.361,0.6169999837875366,-2.256703689366539
234.62069,,0.008451358119619619,234.827,0.6100000143051147,-2.2713690843539003
235.086207,,0.008682467810052072,235.291,0.5929999947547913,-2.3078098093672454
235.55172399999998,,0.007198950546721995,235.757,0.5979999899864197,-2.2963278142914345
236.01724099999998,,0.0035885386502572253,236.221,0.5960000157356262,-2.300122026842074
236.482759,,0.0014354622677414375,236.687,0.5830000042915344,-2.327924594268914
236.94827600000002,,0.006608378199955211,237.152,0.5929999947547913,-2.305677547394577
237.413793,,0.01088491627388544,237.618,0.6230000257492065,-2.239930086492506
237.87931,,0.01399457922887705,238.081,0.6060000061988831,-2.276662734960239
238.344828,,0.016482015109267934,238.551,0.6190000176429749,-2.2481284590954327
238.810345,,0.0189832943128618,239.014,0.6050000190734863,-2.2785169662586253
239.27586200000002,,0.021257694958222367,239.476,0.6169999837875366,-2.2523634884146535
239.741379,,0.022170391392643242,239.947,0.5989999771118164,-2.2916728124980827
240.206897,,0.02087153282893366,240.41,0.6240000128746033,-2.2374007876965933
240.672414,,0.017815691802346875,240.876,0.6060000061988831,-2.27690541318264
241.137931,,0.014378708208805456,241.336,0.6299999952316284,-2.224992553988233
241.603448,,0.01154559606653616,241.801,0.6060000061988831,-2.2777292548215193
242.068966,,0.009157959539304416,242.266,0.5989999771118164,-2.293490559257769
242.534483,,0.006451312108274258,242.731,0.5989999771118164,-2.294048164948278
243.0,,0.0032184103611027567,243.196,0.5929999947547913,-2.307707960515182
243.465517,,0.00037608684728132564,243.662,0.5989999771118164,-2.2952366935043607
243.93103399999998,,0.0006240404878695697,244.129,0.6470000147819519,-2.191255445710434
244.39655199999999,,0.0011435712501013133,244.592,0.6060000061988831,-2.28114828552339
244.862069,,0.005764196622083274,245.055,0.6000000238418579,-2.2947460192166216
245.327586,,0.013029378887301725,245.525,0.6119999885559082,-2.2690706131962504
245.793103,,0.02253739076001539,245.988,0.6079999804496765,-2.278181407014143
246.258621,,0.03280148548114465,246.451,0.5920000076293945,-2.31335187124974
246.724138,,0.04087782608038842,246.916,0.6150000095367432,-2.263461648815996
247.18965500000002,,0.04366878859456937,247.387,0.5789999961853027,-2.342011634315691
247.655172,,0.03951742097712305,247.845,0.6060000061988831,-2.2832031311514824
248.12069,,0.028252350153704593,248.31,0.5950000286102295,-2.307078892428332
248.586207,,0.010171803580837123,248.776,0.6050000190734863,-2.2851008567704962
249.051724,,0.014187605941309604,249.24,0.6140000224113464,-2.265204393243297
249.517241,,0.043021106367687634,249.705,0.6069999933242798,-2.2800774215578086
249.982759,,0.07238612668754134,250.17,0.6449999809265137,-2.1968328209354513
250.44827600000002,,0.09687922865919571,250.636,0.5920000076293945,-2.311780182480869
250.913793,,0.11152297945263731,251.106,0.5929999947547913,-2.3090324770023116
251.37931000000003,,0.11353830483142256,251.569,0.5950000286102295,-2.3040760287829793
251.844828,,0.1034670876450919,252.032,0.593999981880188,-2.305643751756335
252.31034499999998,,0.08560989444612682,252.495,0.6039999723434448,-2.2832526102640185
252.77586200000002,,0.06672410313180498,252.966,0.5889999866485596,-2.3153522628449688
253.241379,,0.052048176694370424,253.429,0.5920000076293945,-2.308278762405964
253.706897,,0.04118067946288556,253.894,0.6579999923706055,-2.16400827056843
254.172414,,0.029215579426427284,254.358,0.5929999947547913,-2.3052119628019327
254.63793099999998,,0.013896237584868274,254.824,0.6209999918937683,-2.243885709392353
255.10344800000001,,0.0001771764042537765,255.291,0.5929999947547913,-2.304658995791594
255.56896600000002,,0.005393775729828308,255.75,0.5989999771118164,-2.2914610901178363
256.03448299999997,,0.003611842608171938,256.222,0.6290000081062317,-2.226082201092195
256.5,,0.0021433352827869546,256.68,0.6129999756813049,-2.2610279925776573
256.965517,,0.0066996532015609865,257.148,0.5920000076293945,-2.306971698511213
257.431034,,0.016041707160179008,257.613,0.6069999933242798,-2.274584274569834
257.896552,,0.025330874624155224,258.081,0.6190000176429749,-2.248823931124878
258.362069,,0.03134073747333609,258.543,0.6449999809265137,-2.1926413099654636
258.827586,,0.03392339809050967,259.006,0.5809999704360962,-2.3326020300174726
259.29310300000003,,0.034509461295578255,259.476,0.6060000061988831,-2.278713578623371
259.758621,,0.034528290031340045,259.935,0.5389999747276306,-2.425295932678304
260.224138,,0.03485903975100065,260.401,0.6190000176429749,-2.2516336865771853
260.689655,,0.035838357337540164,260.866,0.6050000190734863,-2.2827609614436635
261.155172,,0.03735393291397974,261.333,0.5830000042915344,-2.3312941992278446
261.62068999999997,,0.039114000185954845,261.799,0.628000020980835,-2.2338163686254275
262.086207,,0.041022602341920525,262.267,0.6259999871253967,-2.2386751371843396
262.551724,,0.04322086180784316,262.725,0.6069999933242798,-2.2804949171988733
263.017241,,0.04587291234590043,263.196,0.6290000081062317,-2.2329012486983917
263.482759,,0.04924076772004103,263.655,0.6370000243186951,-2.215708715559918
263.94827599999996,,0.053905637386951415,264.125,0.5920000076293945,-2.3138773688198184
264.413793,,0.06039009840504126,264.587,0.6449999809265137,-2.198427467519688
264.87931,,0.06809296134261,265.051,0.6190000176429749,-2.254978297470459
265.34482799999995,,0.0745433023780836,265.521,0.6370000243186951,-2.2155584879877117
265.810345,,0.0762572595543613,265.984,0.574999988079071,-2.3503275794779603
266.27586199999996,,0.0711478953071581,266.447,0.6340000033378601,-2.2213869470102834
266.741379,,0.06017306840508569,266.913,0.6039999723434448,-2.2862646949900864
267.206897,,0.045987362526389575,267.376,0.6140000224113464,-2.2639291662357133
267.672414,,0.03005700388384331,267.841,0.6010000109672546,-2.29165261720579
268.137931,,0.012020470682554952,268.306,0.6140000224113464,-2.262699269383507
268.603448,,0.007932071643761125,268.772,0.6019999980926514,-2.288199498651239
269.06896600000005,,0.026926386975000088,269.237,0.6000000238418579,-2.2919202064874247
269.53448299999997,,0.04024079621669888,269.703,0.5759999752044678,-2.34359855938166
270.0,,0.04415972712695451,270.17,0.6039999723434448,-2.28203320603515
270.465517,,0.03804377832158569,270.635,0.6119999885559082,-2.264103329018074
270.931034,,0.024354191068937603,271.095,0.6959999799728394,-2.0806715426535565
271.396552,,0.00761005073031779,271.565,0.5879999995231628,-2.3156274817306945
271.86206899999996,,0.006657177915049301,272.025,0.5509999990463257,-2.396000144218562
272.327586,,0.013104651568116495,272.495,0.5989999771118164,-2.2912983852621895
272.793103,,0.00804843330852131,272.955,0.5989999771118164,-2.2912853672529367
273.258621,,0.009457541597510478,273.425,0.6420000195503235,-2.197702782484395
273.724138,,0.03719871779315468,273.89,0.5960000157356262,-2.298128882501442
274.18965499999996,,0.06974125000505323,274.355,0.6349999904632568,-2.213472657446904
274.655172,,0.0991500970315845,274.82,0.5929999947547913,-2.3053806727172304
275.12069,,0.11737714879563092,275.285,0.6079999804496765,-2.273187871146601
275.586207,,0.1199233157768051,275.751,0.597000002861023,-2.2977078061587957
276.051724,,0.10840555012940675,276.21,0.6309999823570251,-2.224239308796265
276.517241,,0.089464281641818,276.676,0.6110000014305115,-2.268449474549351
276.98275900000004,,0.07029787281564055,277.14,0.640999972820282,-2.2037392448075526
277.448276,,0.05454220156887924,277.606,0.5960000157356262,-2.3024199661150675
277.913793,,0.041858870850724865,278.073,0.6000000238418579,-2.294320993722669
278.37931,,0.030626909957671346,278.535,0.5910000205039978,-2.31450072138499
278.844828,,0.020512452348215065,279.003,0.593999981880188,-2.308475771428303
279.31034500000004,,0.012790413416214057,279.466,0.6290000081062317,-2.2326567189207975
279.77586199999996,,0.008714713149723264,279.931,0.5929999947547913,-2.311430639827335
280.241379,,0.007651391846641896,280.395,0.6039999723434448,-2.2877067530704966
280.706897,,0.0067476144764863025,280.861,0.5910000205039978,-2.3161619363417607
281.172414,,0.002726206906551698,281.326,0.6299999952316284,-2.231214412123888
281.637931,,0.005433183973512786,281.792,0.628000020980835,-2.235476224593663
282.10344799999996,,0.015327286121989333,282.258,0.5960000157356262,-2.3049849861316107
282.568966,,0.023024369710537104,282.725,0.6620000004768372,-2.1608796323620343
283.034483,,0.0265809250187004,283.192,0.6330000162124634,-2.2236474121869474
283.5,,0.027499169931095555,283.65,0.6449999809265137,-2.197004272795272
283.965517,,0.028479557382972167,284.118,0.6230000257492065,-2.2443642898566867
284.431034,,0.03028874876561031,284.58,0.6179999709129333,-2.2546348356307684
284.89655200000004,,0.03150970246127855,285.051,0.6269999742507935,-2.234371008595479
285.362069,,0.031042329426467615,285.513,0.5899999737739563,-2.314312465887266
285.827586,,0.029790845849817903,285.981,0.5960000157356262,-2.3005809555248997
286.293103,,0.029388852225197274,286.443,0.6150000095367432,-2.258556508220494
286.758621,,0.029981129430151795,286.909,0.6140000224113464,-2.2601529307943933
287.22413800000004,,0.03022463556063478,287.372,0.6129999756813049,-2.26181498430657
287.689655,,0.029191265818305875,287.838,0.6179999709129333,-2.2504864003046485
288.155172,,0.027297037242523463,288.303,0.6190000176429749,-2.2479668768082868
288.62069,,0.025532628150503233,288.769,0.6069999933242798,-2.273875155959964
289.086207,,0.024670239763042046,289.232,0.6110000014305115,-2.265037872136525
289.55172400000004,,0.025062239213570415,289.698,0.6039999723434448,-2.2802827899132847
290.01724099999996,,0.026428271697378578,290.163,0.6299999952316284,-2.2237491386767902
290.482759,,0.027853228297917063,290.629,0.6140000224113464,-2.2588318787999073
290.948276,,0.028527697082241427,291.092,0.6190000176429749,-2.2482694566790253
291.413793,,0.028594280446423558,291.561,0.6480000019073486,-2.185515448891543
291.87931,,0.028944339420984625,292.022,0.5690000057220459,-2.3581388615888823
292.344828,,0.02998070061154904,292.491,0.6430000066757202,-2.1974978417869235
292.81034500000004,,0.030820367270197872,292.952,0.6039999723434448,-2.2830949767156583
293.275862,,0.03008091599133291,293.422,0.5889999866485596,-2.3164362956178155
293.74137900000005,,0.027337673137661993,293.88,0.6309999823570251,-2.2256068143737955
294.206897,,0.02342135890849834,294.347,0.6119999885559082,-2.2676655116256055
294.672414,,0.01933147579450801,294.812,0.6209999918937683,-2.2486920177774525
295.13793100000004,,0.015151001509798768,295.279,0.6629999876022339,-2.157772859233184
295.603448,,0.010028872604953049,295.745,0.6430000066757202,-2.2018603564892185
296.068966,,0.0031753317236958394,296.206,0.6169999837875366,-2.2589349913475716
296.534483,,0.005085472082858897,296.672,0.6000000238418579,-2.29630533736595
297.0,,0.01343246158345835,297.144,0.5920000076293945,-2.3139627337749453
297.46551700000003,,0.020829381388942497,297.602,0.5929999947547913,-2.311900622583234
297.931034,,0.027345216101790065,298.07,0.6230000257492065,-2.2465418015171195
298.396552,,0.03343236591105044,298.532,0.640999972820282,-2.207209499671796
298.862069,,0.038668766255056365,298.995,0.597000002861023,-2.3028387980557974
299.327586,,0.04163110788137531,299.465,0.6439999938011169,-2.200103966119114
299.79310300000003,,0.041147634416988564,299.931,0.5960000157356262,-2.304243762998634
300.258621,,0.0374852651559496,300.395,0.6439999938011169,-2.19914953573011
300.724138,,0.031958636641690026,300.861,0.6039999723434448,-2.2857082475785324
301.189655,,0.025389838558021766,301.321,0.6449999809265137,-2.195745806163042
301.65517200000005,,0.017442800018251027,301.787,0.6190000176429749,-2.251721444857917
302.12069,,0.007663630258230139,302.251,0.6330000162124634,-2.220540229945916
302.586207,,0.0032384878017121333,302.716,0.6010000109672546,-2.289587311809835
303.05172400000004,,0.013481935571256857,303.183,0.5920000076293945,-2.3085575255806168
303.517241,,0.021506818414521733,303.648,0.6439999938011169,-2.1946817515734067
303.982759,,0.027054694086688806,304.113,0.6660000085830688,-2.1462327850742544
304.448276,,0.031002199350845923,304.575,0.609000027179718,-2.269979748848956
304.913793,,0.03412440999380022,305.044,0.5709999799728394,-2.3524311306960075
305.37931000000003,,0.03562005616069267,305.506,0.6119999885559082,-2.2628799506348236
305.844828,,0.032389903573468194,305.974,0.6110000014305115,-2.2649491541383133
306.310345,,0.020456303993046238,306.437,0.609000027179718,-2.2693168725929795
306.775862,,0.0012285056086778934,306.902,0.6060000061988831,-2.2759831582281844
307.241379,,0.027976289685550493,307.368,0.6000000238418579,-2.2893014673377654
307.70689699999997,,0.05166972891999857,307.834,0.6010000109672546,-2.287478213061522
308.172414,,0.0664474014180258,308.299,0.640999972820282,-2.2007850545848915
308.637931,,0.07142299151077766,308.764,0.621999979019165,-2.2427144245620068
309.103448,,0.06828736371748054,309.229,0.6470000147819519,-2.1888485891425553
309.568966,,0.05825509208276235,309.695,0.6190000176429749,-2.250498239647532
310.034483,,0.042279869153360065,310.159,0.6439999938011169,-2.1967068812337236
310.5,,0.02296461482213073,310.624,0.5929999947547913,-2.3085001071310227
310.96551700000003,,0.004533555912230724,311.088,0.6539999842643738,-2.1762714324101458
311.431034,,0.009508007078371336,311.55,0.6110000014305115,-2.2705880765563338
311.896552,,0.018279110761732716,312.021,0.6150000095367432,-2.2624551183824044
312.362069,,0.023236386384929458,312.484,0.5809999704360962,-2.3370413711255598
312.827586,,0.02650218305371669,312.952,0.6119999885559082,-2.2699306876313554
313.29310300000003,,0.02914988129153685,313.414,0.5920000076293945,-2.313833208281777
313.758621,,0.030311678676280002,313.88,0.6460000276565552,-2.196406726537783
314.224138,,0.028008339857764575,314.34,0.6019999980926514,-2.292371287419811
314.689655,,0.021523332616165913,314.806,0.6190000176429749,-2.25531841630713
315.155172,,0.013065403125987285,315.27,0.5709999799728394,-2.359759536289179
315.62068999999997,,0.006614521856448067,315.736,0.6430000066757202,-2.202648294006961
316.086207,,0.0046587362552856495,316.203,0.6000000238418579,-2.295973786673572
316.551724,,0.005789383499131977,316.669,0.6290000081062317,-2.2323390385480684
317.017241,,0.005601547299711531,317.14,0.6269999742507935,-2.2361583128209035
317.482759,,0.0003882047358306273,317.599,0.6140000224113464,-2.263874459145739
317.94827599999996,,0.009744878846207842,318.067,0.625,-2.239253811896968
318.413793,,0.021198471563072908,318.528,0.6100000143051147,-2.271248673704034
318.87931000000003,,0.029873573902058165,318.992,0.6129999756813049,-2.2640198746119355
319.344828,,0.03373457279718883,319.462,0.6200000047683716,-2.2480894660081168
319.810345,,0.03310590947856972,319.92,0.6290000081062317,-2.227835288201071
320.275862,,0.029380497815267213,320.39,0.6579999923706055,-2.164060484567929
320.741379,,0.023773548111558854,320.855,0.621999979019165,-2.241967947257876
321.20689699999997,,0.016969674154146554,321.321,0.6370000243186951,-2.2088510468634297
321.672414,,0.009413122549280506,321.78,0.6340000033378601,-2.2150507171722413
322.137931,,0.0017165705082894537,322.247,0.5920000076293945,-2.306329679133461
322.603448,,0.0051667929165940705,322.712,0.6119999885559082,-2.2626529851009574
323.068966,,0.010347034148581446,323.178,0.6060000061988831,-2.2757453442443243
323.53448299999997,,0.013705543693670165,323.643,0.6190000176429749,-2.247566958850996
324.0,,0.015777350182673608,324.106,0.5210000276565552,-2.461339569454631
324.465517,,0.016616988814706014,324.576,0.6140000224113464,-2.259104917004263
324.931034,,0.015352646477976661,325.036,0.628000020980835,-2.229084793994691
325.396552,,0.011594928270717229,325.506,0.6790000200271606,-2.118537937958401
325.86206899999996,,0.007142271342404173,325.97,0.6110000014305115,-2.2673154784582077
326.327586,,0.00545285791898997,326.432,0.6460000276565552,-2.1917388248200416
326.793103,,0.008802316706911263,326.898,0.6639999747276306,-2.153225098332621
327.258621,,0.016104633662903288,327.362,0.6489999890327454,-2.1866098658983177
327.724138,,0.024014921681058902,327.827,0.6039999723434448,-2.2853369442157763
328.189655,,0.030073443692105083,328.292,0.5989999771118164,-2.296881847005741
328.655172,,0.03432578447616079,328.758,0.6150000095367432,-2.2626196965395753
329.12068999999997,,0.03815760416609989,329.225,0.6470000147819519,-2.193424445041776
329.586207,,0.04223288756987618,329.69,0.6230000257492065,-2.246141650974377
330.051724,,0.04549091903497541,330.155,0.6179999709129333,-2.257359899151045
330.517241,,0.04559551263291278,330.621,0.6499999761581421,-2.187853183312465
330.982759,,0.04027336051442068,331.084,0.6729999780654907,-2.1378313918655896
331.44827599999996,,0.028599814826357494,331.547,0.6060000061988831,-2.2837620545052943
331.913793,,0.011514630458917274,332.015,0.6140000224113464,-2.2661711597929024
332.37931,,0.008402443563293607,332.478,0.6489999890327454,-2.189639110165402
332.844828,,0.027622481194797256,332.948,0.6190000176429749,-2.2546089413323864
333.310345,,0.042807609524964756,333.41,0.6269999742507935,-2.2366922196019177
333.77586199999996,,0.05207451818223451,333.875,0.6620000004768372,-2.1598682225208266
334.241379,,0.05544231663322219,334.34,0.6389999985694885,-2.209338739115935
334.706897,,0.05393029347403077,334.806,0.6159999966621399,-2.258762215098907
335.17241399999995,,0.048251834129927694,335.266,0.6660000085830688,-2.1491185863231035
335.637931,,0.03879348958672958,335.732,0.6060000061988831,-2.2791222261441093
336.103448,,0.0269088285242793,336.2,0.6019999980926514,-2.287140703620013
336.56896600000005,,0.015261684399809433,336.665,0.6119999885559082,-2.2646997439991083
337.034483,,0.006023009252321008,337.125,0.6579999923706055,-2.163887942550913
337.5,,0.0007228830761260597,337.595,0.6169999837875366,-2.2526962784287328
337.965517,,0.005948668226121322,338.058,0.6579999923706055,-2.162948726878224
338.431034,,0.009705504253408534,338.521,0.6069999933242798,-2.273743519098804
338.89655200000004,,0.011399741942434951,338.989,0.5950000286102295,-2.299688655235086
339.36206899999996,,0.011882731003980167,339.451,0.6290000081062317,-2.2255407038361907
339.827586,,0.013814668875043148,339.916,0.6290000081062317,-2.2255926806926296
340.293103,,0.01894782272055353,340.387,0.6150000095367432,-2.2562696845459396
340.758621,,0.025514001535889518,340.846,0.6140000224113464,-2.2587433185601253
341.224138,,0.02946118889732925,341.31,0.6060000061988831,-2.2765780475139974
341.68965499999996,,0.02856174605619939,341.775,0.6150000095367432,-2.257473857934141
342.155172,,0.024576708606664457,342.242,0.6060000061988831,-2.2776679916143427
342.62069,,0.021121122326058756,342.708,0.6340000033378601,-2.2173162844894563
343.086207,,0.020170187326947687,343.173,0.6340000033378601,-2.2180099822675574
343.551724,,0.02117748382339081,343.64,0.6060000061988831,-2.279727697007647
344.01724099999996,,0.022985627927337722,344.102,0.6069999933242798,-2.278265444168298
344.48275900000004,,0.025597470563331785,344.572,0.6150000095367432,-2.261531660572123
344.948276,,0.029939828944527035,345.033,0.6349999904632568,-2.218611085203528
345.413793,,0.0366268975150216,345.495,0.6269999742507935,-2.2366287165770236
345.87931,,0.04520152940219623,345.966,0.6700000166893005,-2.1434521151382318
346.344828,,0.053677684121268485,346.429,0.6000000238418579,-2.296364262556034
346.81034500000004,,0.05814713886527468,346.894,0.6039999723434448,-2.287947077482296
347.275862,,0.05357797237976818,347.358,0.6029999852180481,-2.2903056625656006
347.741379,,0.03622128470012487,347.824,0.6169999837875366,-2.2598613834002053
348.206897,,0.006000081125384799,348.289,0.5910000205039978,-2.316438050653473
348.672414,,0.03278139901719757,348.755,0.6359999775886536,-2.2182077748065137
349.13793100000004,,0.07271706755808095,349.221,0.6140000224113464,-2.2658288134319458
349.60344799999996,,0.10595774757270839,349.68,0.6150000095367432,-2.2632324574615335
350.068966,,0.12683900574019008,350.145,0.6140000224113464,-2.264897936782712
350.534483,,0.1331113007410697,350.61,0.6489999890327454,-2.1880518240848295
351.0,,0.12588872102228987,351.08,0.6100000143051147,-2.272362957580954
351.465517,,0.1090145194773368,351.543,0.6710000038146973,-2.1387664154235164
351.93103399999995,,0.08765025413677448,352.011,0.6309999823570251,-2.225191380423361
352.396552,,0.06620607682167792,352.473,0.6190000176429749,-2.2506148254352456
352.862069,,0.04703053952186597,352.944,0.625,-2.236846885511121
353.32758600000005,,0.03073580790572734,353.406,0.6520000100135803,-2.1773725275669102
353.793103,,0.017233933378012288,353.871,0.6079999804496765,-2.2726475560254484
354.258621,,0.006264802225507531,354.336,0.6119999885559082,-2.2634318555842907
354.72413800000004,,0.0026360633071409226,354.801,0.6269999742507935,-2.2303516101368697
355.189655,,0.010087808857845366,355.266,0.628000020980835,-2.22788473461943
355.655172,,0.016501536837450804,355.732,0.6050000190734863,-2.277827118342991
356.12069,,0.0218481030562021,356.195,0.6039999723434448,-2.279967029179614
356.586207,,0.02595376489275111,356.661,0.6069999933242798,-2.273521619450433
357.05172400000004,,0.028963913978377717,357.122,0.6190000176429749,-2.247594716485949
357.517241,,0.031234155225837893,357.591,0.6190000176429749,-2.2479308132941167
357.982759,,0.032689916502175995,358.055,0.6079999804496765,-2.2723408615242287
358.448276,,0.032762645259324055,358.518,0.6290000081062317,-2.2271289442666458
358.913793,,0.03144862258511672,358.981,0.652999997138977,-2.1754583322463117
359.37931000000003,,0.030035888697889902,359.451,0.6880000233650208,-2.099878591640904
359.844828,,0.029921408512577526,359.916,0.6340000033378601,-2.2182332795255664
360.310345,,0.03080865252148209,360.379,0.6190000176429749,-2.2516349768546164
360.775862,,0.03098955198060377,360.844,0.5460000038146973,-2.411393531213872
361.241379,,0.029487471755272162,361.31,0.6579999923706055,-2.1680759254174116
361.706897,,0.027142113229985727,361.775,0.6200000047683716,-2.251506117345641
362.172414,,0.02552665695369904,362.24,0.6200000047683716,-2.252077581062265
362.63793100000004,,0.02541318945282106,362.706,0.6320000290870667,-2.2264178869118547
363.103448,,0.026231884919438533,363.17,0.6200000047683716,-2.252943309505809
363.568966,,0.026559561824104128,363.636,0.5789999961853027,-2.342536070915295
364.034483,,0.02529841401703129,364.099,0.656000018119812,-2.174926615586465
364.5,,0.022684875863708986,364.561,0.6060000061988831,-2.2838782831612923
364.96551700000003,,0.019894294322814334,365.029,0.640999972820282,-2.20751642996506
365.431034,,0.01747829635373727,365.491,0.6299999952316284,-2.2312469921332534
365.896552,,0.014633602189199011,365.955,0.6690000295639038,-2.145925883394186
366.362069,,0.010445746644365057,366.424,0.6449999809265137,-2.19775072326579
366.827586,,0.005567905761509066,366.89,0.6880000233650208,-2.1035104013901207
367.29310300000003,,0.001958077886772663,367.355,0.5740000009536743,-2.351241009920893
367.758621,,0.0007550951581287782,367.82,0.6539999842643738,-2.1762582761082996
368.224138,,0.0009062468258062232,368.285,0.6489999890327454,-2.186426059959259
368.689655,,0.00020160469780028116,368.751,0.656000018119812,-2.1704365578479856
369.155172,,0.002503870677601316,369.21,0.6470000147819519,-2.1893151629421372
369.62068999999997,,0.006130031433901733,369.675,0.5809999704360962,-2.3324107952099027
370.086207,,0.008379247647837457,370.141,0.6859999895095825,-2.1030136725430024
370.55172400000004,,0.008091467708645864,370.606,0.6060000061988831,-2.276741903826371
371.017241,,0.006528529849289677,371.07,0.6119999885559082,-2.263200234656301
371.482759,,0.006002160874244285,371.539,0.6169999837875366,-2.251946990631836
371.948276,,0.007405324988736212,372.0,0.6230000257492065,-2.2386356884684795
372.413793,,0.009471611988632212,372.469,0.6209999918937683,-2.242881657537613
372.87931000000003,,0.010255616125862623,372.935,0.6060000061988831,-2.2755815974855658
373.344828,,0.008956580589269307,373.401,0.6579999923706055,-2.162442702749996
373.810345,,0.006408694006151422,373.866,0.6330000162124634,-2.2171843703065166
374.275862,,0.004136427235422368,374.326,0.6290000081062317,-2.2262905332288003
374.741379,,0.0030255031271506807,374.792,0.6340000033378601,-2.2158931907268724
375.20689699999997,,0.0026761853500723576,375.258,0.6439999938011169,-2.194691166137926
375.672414,,0.0017565543618682797,375.724,0.6790000200271606,-2.119092020326036
376.137931,,0.0008835045789627007,376.185,0.640999972820282,-2.2025824690061646
376.603448,,0.0050173726361636235,376.65,0.6299999952316284,-2.2272764464535757
377.068966,,0.008947079978610543,377.118,0.6190000176429749,-2.2519763393628547
377.53448299999997,,0.010950624649645605,377.58,0.6869999766349792,-2.1045455272057034
378.0,,0.010903142804131117,378.051,0.625,-2.2402979804657757
378.465517,,0.010368954322849856,378.513,0.652999997138977,-2.1799106307052916
378.931034,,0.011013488597569392,378.981,0.6600000262260437,-2.1651943706728023
379.396552,,0.012621598459240232,379.443,0.6299999952316284,-2.230991055370038
379.862069,,0.012489309656741252,379.909,0.6119999885559082,-2.270534543127739
380.327586,,0.0071979915330347794,380.372,0.6320000290870667,-2.22717066683116
380.79310300000003,,0.004442933318261461,380.837,0.6499999761581421,-2.188038494172919
381.258621,,0.020062721785732,381.303,0.6100000143051147,-2.2751390967464347
381.724138,,0.035311270810026475,381.768,0.6200000047683716,-2.253181018755915
382.189655,,0.046686480275770596,382.232,0.6330000162124634,-2.2245660188472196
382.655172,,0.05292942231525138,382.698,0.625,-2.2415902304375357
383.12068999999997,,0.05420022899471649,383.163,0.6200000047683716,-2.2519785443037823
383.586207,,0.05075743289305711,383.628,0.625,-2.240496225334235
384.051724,,0.0429849318939466,384.096,0.6449999809265137,-2.1962676536088224
384.517241,,0.03232318203920723,384.558,0.640999972820282,-2.2042794673515043
384.982759,,0.021375216601761296,385.021,0.6449999809265137,-2.194836203123244
385.44827599999996,,0.012718713555463878,385.491,0.6700000166893005,-2.1396373155244244
385.913793,,0.007373567709221572,385.955,0.625,-2.2369625321693767
386.37931,,0.004117842252996019,386.416,0.6470000147819519,-2.188359657953105
386.84482799999995,,0.0006981124263021489,386.882,0.6320000290870667,-2.2204294701437037
387.310345,,0.003428966414378897,387.348,0.6700000166893005,-2.1371120146746736
387.775862,,0.005918347566803584,387.813,0.6190000176429749,-2.2477917241861065
388.241379,,0.004625834872462307,388.277,0.6790000200271606,-2.116752397901441
388.70689699999997,,0.0019229007583014656,388.743,0.6209999918937683,-2.242914724227836
389.172414,,0.0033284369406732807,389.21,0.6489999890327454,-2.181841101671427
389.637931,,0.010077794832364744,389.676,0.6129999756813049,-2.260332199230506
390.103448,,0.01570584286064951,390.14,0.6830000281333923,-2.108015417846534
390.56896600000005,,0.013432064092268086,390.606,0.625,-2.234688558162484
391.03448299999997,,0.005061045923100101,391.067,0.6200000047683716,-2.246007442078787
391.5,,0.0013315737416424486,391.53,0.6169999837875366,-2.253071698261454
391.965517,,0.0012095406434686061,391.999,0.5799999833106995,-2.334297306549392
392.431034,,0.0026333605841068457,392.462,0.6159999966621399,-2.2565505781653052
392.896552,,0.005220305394142026,392.927,0.6340000033378601,-2.218066377470918
393.36206899999996,,0.004991400864129012,393.39,0.6209999918937683,-2.2471432438531163
393.827586,,0.004012021600804917,393.856,0.6309999823570251,-2.2261104377953407
394.293103,,0.004732349853871516,394.324,0.6330000162124634,-2.2224821932413206
394.75862099999995,,0.007628099968583869,394.79,0.6439999938011169,-2.1991983058338778
395.224138,,0.011577768625401873,395.254,0.6209999918937683,-2.2499190522116685
395.68965499999996,,0.015685128829613357,395.72,0.6600000262260437,-2.1654746815083454
396.155172,,0.020233038725886606,396.185,0.6660000085830688,-2.15281936384459
396.62069,,0.02601332017247424,396.65,0.722000002861023,-2.03110986218247
397.086207,,0.033049340336390225,397.114,0.6579999923706055,-2.17070624714372
397.551724,,0.03995092982064248,397.576,0.6190000176429749,-2.2557012742207876
398.017241,,0.04449609759616353,398.044,0.6129999756813049,-2.2686679219262613
398.48275900000004,,0.045059368051663336,398.506,0.6399999856948853,-2.209609696202469
398.94827599999996,,0.04165560043424864,398.97,0.6380000114440918,-2.213609386842822
399.413793,,0.035770758150969015,399.439,0.6100000143051147,-2.274142361405288
399.87931,,0.029212763463004502,399.905,0.6209999918937683,-2.249611908771601
400.344828,,0.02253990518534072,400.369,0.6190000176429749,-2.253325348417092
400.810345,,0.014085075163680207,400.834,0.6330000162124634,-2.222121602587076
401.27586199999996,,0.0013885117685591248,401.299,0.6230000257492065,-2.243168049233554
401.741379,,0.014899988753786455,401.765,0.6430000066757202,-2.1988404003680695
402.206897,,0.028863887532711206,402.23,0.6439999938011169,-2.1959152216593134
402.672414,,0.033632905987841695,402.696,0.6100000143051147,-2.26927424372195
403.137931,,0.029465258295881987,403.155,0.625,-2.2359342659411916
403.60344799999996,,0.025344919970941796,403.62,0.6039999723434448,-2.2811014002324
404.068966,,0.02957984435727224,404.089,0.5879999995231628,-2.315469813563525
404.534483,,0.04011120355076019,404.551,0.6830000281333923,-2.1081171670392944
405.0,,0.047214663214502524,405.021,0.5950000286102295,-2.299576539099123
405.465517,,0.044833631857574906,405.484,0.6499999761581421,-2.1796168898857897
405.931034,,0.03633077091121103,405.947,0.6110000014305115,-2.2645822467920107
406.39655200000004,,0.029242974840308317,406.41,0.6269999742507935,-2.2298543200763072
406.862069,,0.026286384559210178,406.875,0.6349999904632568,-2.2126837152675036
407.327586,,0.022495687807114893,407.34,0.6620000004768372,-2.15423786857979
407.793103,,0.011714557829335967,407.806,0.625,-2.235332511237119
408.258621,,0.0050492617822823745,408.27,0.625,-2.235909958040933
408.72413800000004,,0.020229281216876265,408.735,0.6320000290870667,-2.2213123606273064
409.18965499999996,,0.028333000169781814,409.203,0.6449999809265137,-2.1936979313517653
409.655172,,0.03073755254687965,409.668,0.6060000061988831,-2.2794062544392775
410.12069,,0.031770015072816356,410.141,0.6700000166893005,-2.1407240310007944
410.586207,,0.03317047795249308,410.599,0.6660000085830688,-2.1501755080570804
411.05172400000004,,0.03323472990242552,411.062,0.6990000009536743,-2.078978112858658
411.51724099999996,,0.029570920233963124,411.525,0.6169999837875366,-2.25826551675453
411.982759,,0.021724890748386128,411.992,0.6499999761581421,-2.1869307007320917
412.448276,,0.011443441991506648,412.462,0.6919999718666077,-2.0958929424965067
412.913793,,0.0010127774853809794,412.92,0.6639999747276306,-2.157249752476613
413.37931,,0.007990356508110833,413.39,0.6060000061988831,-2.283845832235017
413.844828,,0.014566604952359152,413.856,0.6660000085830688,-2.153235884652202
414.31034500000004,,0.018387770697201107,414.317,0.597000002861023,-2.3035432837376866
414.775862,,0.020628651667769816,414.783,0.6660000085830688,-2.1530696427600797
415.241379,,0.023196899521079936,415.247,0.6809999942779541,-2.1201188161605984
415.706897,,0.025811788426087046,415.713,0.6190000176429749,-2.2548074290656253
416.172414,,0.025322623289323824,416.178,0.6579999923706055,-2.1693495039600426
416.63793100000004,,0.0201893450164888,416.643,0.6370000243186951,-2.214522653159361
417.103448,,0.014322763551072005,417.106,0.675000011920929,-2.1310850599864217
417.568966,,0.013115350301467292,417.576,0.6499999761581421,-2.1848513398528704
418.034483,,0.0162362013206796,418.036,0.6430000066757202,-2.199372634272284
418.5,,0.01775416745590099,418.506,0.6259999871253967,-2.2356748619300215
418.96551700000003,,0.013235466745662677,418.97,0.6190000176429749,-2.250208275013966
419.43103399999995,,0.004067328737110549,419.432,0.6370000243186951,-2.2103154695038714
419.896552,,0.005052083695719695,419.898,0.6700000166893005,-2.1378023783884834
420.362069,,0.01101923336070706,420.361,0.640999972820282,-2.200442762583294
420.827586,,0.014670636105723351,420.827,0.6039999723434448,-2.2806069173521246
421.293103,,0.019019985006193275,421.291,0.6150000095367432,-2.256305643157401
421.758621,,0.025318692942855894,421.757,0.6919999718666077,-2.088332322591583
422.22413800000004,,0.03130661960456685,422.222,0.6700000166893005,-2.136167375275906
422.689655,,0.03384129873291384,422.688,0.5929999947547913,-2.3039539905083384
423.15517200000005,,0.03258154245139018,423.155,0.6359999775886536,-2.2104296710403304
423.62069,,0.030141303963039136,423.62,0.6309999823570251,-2.2216022508702027
424.086207,,0.028858607455220866,424.081,0.6209999918937683,-2.243780544418251
424.55172400000004,,0.028376116724596813,424.55,0.6449999809265137,-2.191984984852663
425.017241,,0.026760531120640613,425.014,0.6460000276565552,-2.1903823034038066
425.482759,,0.023273697774753334,425.477,0.6069999933242798,-2.2759921708563255
425.948276,,0.019234580311194318,425.947,0.6330000162124634,-2.220037164142878
426.413793,,0.016733546143896855,426.41,0.6230000257492065,-2.242539617239265
426.87931000000003,,0.017589523394932045,426.876,0.6269999742507935,-2.2345448772123704
427.344828,,0.02258151275066863,427.341,0.6190000176429749,-2.252675484085164
427.810345,,0.029284963015893905,427.806,0.675000011920929,-2.13133199584103
428.275862,,0.030799366833801377,428.266,0.6439999938011169,-2.199468720742358
428.741379,,0.019992416359909677,428.732,0.6330000162124634,-2.223952119502571
429.20689699999997,,0.0028668159327658463,429.196,0.5839999914169312,-2.3311302190181524
429.672414,,0.028642288832700407,429.662,0.6610000133514404,-2.163692125219819
430.137931,,0.04782261311695975,430.125,0.6330000162124634,-2.2248949690709328
430.603448,,0.05874835745618776,430.595,0.675000011920929,-2.1334680175061336
431.068966,,0.06480352922349705,431.055,0.6190000176429749,-2.255422269679482
431.534483,,0.066218137976259,431.525,0.6299999952316284,-2.23128368276874
432.0,,0.059635310320094864,431.988,0.621999979019165,-2.2484224946290547
432.46551700000003,,0.0450537963190602,432.451,0.6579999923706055,-2.169592432587809
432.931034,,0.028670541697477278,432.916,0.625,-2.2409929214080435
433.396552,,0.017746831685113477,433.385,0.6420000195503235,-2.2033804118720908
433.862069,,0.014501166718674565,433.851,0.6259999871253967,-2.237601159863082
434.327586,,0.015502892847397351,434.311,0.609000027179718,-2.2739585333247394
434.79310300000003,,0.01611731465333128,434.776,0.6589999794960022,-2.164325767356976
435.258621,,0.014898520341383132,435.243,0.6190000176429749,-2.250771212436863
435.724138,,0.01352116295123746,435.709,0.6520000100135803,-2.178196823177067
436.189655,,0.013163651726342351,436.173,0.621999979019165,-2.2429197619078356
436.655172,,0.012317825016614032,436.639,0.656000018119812,-2.168270728896762
437.12068999999997,,0.008460985157661213,437.107,0.6579999923706055,-2.1634171461862826
437.586207,,0.0009001307967724261,437.569,0.6140000224113464,-2.2588750692413306
438.051724,,0.008654876524048026,438.03,0.6299999952316284,-2.223721450601602
438.517241,,0.018023560105956196,438.499,0.6610000133514404,-2.156003801818116
438.982759,,0.026685622887074198,438.962,0.6330000162124634,-2.216946648096825
439.448276,,0.036022974003462306,439.425,0.6190000176429749,-2.247510884443947
439.913793,,0.04754384293481824,439.89,0.6349999904632568,-2.212836744602999
440.37931000000003,,0.060549095604942774,440.362,0.6819999814033508,-2.110738335380483
440.844828,,0.0709712213154834,440.82,0.6439999938011169,-2.1939282060708303
441.310345,,0.07260426061959768,441.291,0.6729999780654907,-2.1312392646236678
441.775862,,0.06077629490412294,441.75,0.6620000004768372,-2.155771437975214
442.241379,,0.036600114671947126,442.222,0.6449999809265137,-2.19343355170486
442.70689699999997,,0.008341496127630282,442.68,0.6060000061988831,-2.2790662027685533
443.172414,,0.012991910373782495,443.151,0.640999972820282,-2.203500025237487
443.637931,,0.022027285036984624,443.617,0.652999997138977,-2.1780418966292645
444.103448,,0.02308813197667724,444.077,0.6439999938011169,-2.1983127621039897
444.568966,,0.023870969519101084,444.54,0.6439999938011169,-2.1989329121061547
445.03448299999997,,0.02587263701740271,445.01,0.6200000047683716,-2.2517794392986157
445.5,,0.02423354117457146,445.473,0.6460000276565552,-2.195615662880275
445.965517,,0.016730067793693553,445.944,0.6309999823570251,-2.228683929826792
446.431034,,0.009480115583390914,446.406,0.6330000162124634,-2.224610475643316
446.896552,,0.01205391382102994,446.872,0.6600000262260437,-2.165957405650484
447.36206899999996,,0.02713473785251694,447.336,0.6470000147819519,-2.1943309648046627
447.827586,,0.0459217353635294,447.801,0.6589999794960022,-2.1681172495477297
448.29310300000003,,0.055933201974996856,448.266,0.6549999713897705,-2.1766429103923985
448.758621,,0.05386427860025683,448.732,0.6259999871253967,-2.239522211087481
449.224138,,0.04757768369373312,449.195,0.6190000176429749,-2.254369349150331
449.689655,,0.044332834070172494,449.661,0.6259999871253967,-2.2386268467568997
450.155172,,0.04123974955746924,450.121,0.6460000276565552,-2.194487712724522
450.62068999999997,,0.030378218669061874,450.591,0.5540000200271606,-2.3943015745682104
451.086207,,0.010905355691340813,451.052,0.675000011920929,-2.1300271414281906
451.551724,,0.008166117993702223,451.521,0.6359999775886536,-2.214318588847257
452.017241,,0.018094690424696407,451.981,0.6759999990463257,-2.126497574104703
452.482759,,0.019762657744578343,452.451,0.6330000162124634,-2.219525991688689
452.94827599999996,,0.020383167348934878,452.916,0.6240000128746033,-2.2385228629629954
453.413793,,0.02418457117915478,453.379,0.6320000290870667,-2.220544749357723
453.87931,,0.03022024780214402,453.845,0.5839999914169312,-2.3246506675754812
454.344828,,0.03685793707625118,454.31,0.6209999918937683,-2.243666043548567
454.810345,,0.04346333548139113,454.776,0.6299999952316284,-2.223788915279067
455.27586199999996,,0.04776329278433793,455.24,0.6330000162124634,-2.2170958702178702
455.741379,,0.0458143053527822,455.705,0.6320000290870667,-2.21923395370409
456.206897,,0.03683288118203476,456.17,0.6669999957084656,-2.1430576064757845
456.672414,,0.025648381617085474,456.636,0.6700000166893005,-2.1367108812150253
457.137931,,0.017038232319753464,457.099,0.6549999713897705,-2.1696865664138816
457.603448,,0.008998965363505671,457.561,0.6290000081062317,-2.2267257292026765
458.06896600000005,,0.003995212339732742,458.029,0.5870000123977661,-2.3187119071492566
458.53448299999997,,0.021525746238142927,458.491,0.6320000290870667,-2.2212306554972323
459.0,,0.03587058241729217,458.959,0.6299999952316284,-2.2262032386009185
459.465517,,0.04065588850588808,459.421,0.6700000166893005,-2.1397093656879593
459.931034,,0.03688766603615281,459.887,0.6420000195503235,-2.2013798234466
460.39655200000004,,0.02944033119613449,460.352,0.6209999918937683,-2.2477963472941287
460.86206899999996,,0.020623787083713457,460.817,0.6370000243186951,-2.2135801255148237
461.327586,,0.009283481577316349,461.284,0.6579999923706055,-2.168428155803438
461.793103,,0.004661182560116116,461.749,0.6330000162124634,-2.2234325361787852
462.258621,,0.017308832564456603,462.215,0.6470000147819519,-2.1933923035485567
462.724138,,0.024050317909585384,462.68,0.6129999756813049,-2.2678366861114343
463.18965499999996,,0.02464112752380915,463.141,0.6370000243186951,-2.215818044836649
463.655172,,0.02309869544164293,463.607,0.6340000033378601,-2.2225136494945255
464.12069,,0.023124999011956568,464.077,0.6370000243186951,-2.2160226934100122
464.58620699999994,,0.025171607049513666,464.539,0.671999990940094,-2.139698521440483
465.051724,,0.027445044119812516,465.003,0.6230000257492065,-2.246266004527168
465.517241,,0.028335643224416018,465.465,0.6230000257492065,-2.2459719722506284
465.98275900000004,,0.027735594464021723,465.931,0.6370000243186951,-2.2150787613282157
466.448276,,0.026542297810524522,466.395,0.6190000176429749,-2.2538160292602525
466.913793,,0.025227467138474863,466.861,0.6729999780654907,-2.135618273199585
467.37931,,0.023272981656361172,467.326,0.6470000147819519,-2.191655478283296
467.844828,,0.020009498843975737,467.792,0.652999997138977,-2.1779375409236783
468.31034500000004,,0.015241143317661748,468.258,0.6830000281333923,-2.11191279939558
468.77586199999996,,0.008700414197356577,468.724,0.6200000047683716,-2.248503661892053
469.241379,,3.796423569686296e-05,469.188,0.6330000162124634,-2.2195400370606566
469.706897,,0.009479882115251742,469.654,0.6370000243186951,-2.210227369582602
470.172414,,0.01657460779188046,470.118,0.6449999809265137,-2.1922609954415635
470.63793100000004,,0.019783807009916443,470.58,0.609000027179718,-2.2702324103803257
471.10344799999996,,0.02282729265768239,471.051,0.6259999871253967,-2.232827854515215
471.568966,,0.030502917347063473,471.513,0.6370000243186951,-2.2085982036252645
472.034483,,0.04130846266105973,471.977,0.6190000176429749,-2.247660171589023
472.5,,0.04800108225154693,472.44,0.6119999885559082,-2.2628728497908552
472.965517,,0.0460506388895225,472.905,0.6299999952316284,-2.223736227763184
473.43103399999995,,0.03845653078274287,473.376,0.6539999842643738,-2.1716411092551486
473.89655200000004,,0.03131703615239733,473.842,0.6460000276565552,-2.1893688117752865
474.362069,,0.026645240371395786,474.306,0.6169999837875366,-2.2529455832941294
474.827586,,0.02114634282403071,474.772,0.6579999923706055,-2.1641022652999045
475.293103,,0.011977565576938591,475.236,0.6179999709129333,-2.2518000107435197
475.758621,,0.0019106529630714716,475.695,0.6850000023841858,-2.1064351318775003
476.22413800000004,,0.003371816860858559,476.163,0.6790000200271606,-2.120144509844539
476.689655,,0.0028824908254926713,476.628,0.6240000128746033,-2.240621207340697
477.155172,,0.0028682494303580567,477.092,0.6000000238418579,-2.2935561176604127
477.62069,,0.010252042905323604,477.561,0.6269999742507935,-2.2353582897437057
478.086207,,0.024138625175580047,478.022,0.6370000243186951,-2.2141558549116644
478.55172400000004,,0.035894362322897395,478.491,0.6100000143051147,-2.273504100719497
479.01724099999996,,0.038741126985066224,478.955,0.675000011920929,-2.13234087068323
479.482759,,0.034861453553260785,479.417,0.6190000176429749,-2.2547040189892464
479.948276,,0.030748563979558434,479.883,0.6110000014305115,-2.272392131246504
480.413793,,0.028553097155556845,480.351,0.6370000243186951,-2.2158992701477644
480.87931000000003,,0.02566195777766315,480.816,0.6039999723434448,-2.2878353186479483
481.344828,,0.020174190256870412,481.28,0.6359999775886536,-2.2180464529514157
481.810345,,0.012198877282923664,481.746,0.6449999809265137,-2.198255394081893
482.275862,,0.0009783493127748788,482.21,0.6230000257492065,-2.245896287518931
482.74137900000005,,0.014283658523433657,482.676,0.6700000166893005,-2.1431129878202944
483.206897,,0.029580891380058254,483.141,0.6840000152587891,-2.1121377471270493
483.672414,,0.036471648519026366,483.6,0.6299999952316284,-2.2292374353332844
484.13793100000004,,0.031165709163153497,484.07,0.6320000290870667,-2.22427788113771
484.603448,,0.020977374868550787,484.532,0.6700000166893005,-2.1408509653353733
485.068966,,0.016932851872399488,484.996,0.6439999938011169,-2.1968401170985636
485.534483,,0.02081859367328474,485.466,0.6349999904632568,-2.2157952239576697
486.0,,0.024184256988771784,485.931,0.6830000281333923,-2.1105902248134973
486.46551700000003,,0.019862778779695212,486.395,0.6370000243186951,-2.2102199075542455
486.931034,,0.010291647573791576,486.861,0.6470000147819519,-2.1879055417816202
487.396552,,0.003534894426187974,487.326,0.6340000033378601,-2.215777401749123
487.862069,,0.003142003981390046,487.791,0.5490000247955322,-2.4006049940165917
488.327586,,0.003722345916719138,488.251,0.6660000085830688,-2.1454507766130164
488.79310300000003,,0.0020397240269418907,488.716,0.6340000033378601,-2.215025976436887
489.258621,,0.013076639322578734,489.181,0.6140000224113464,-2.2585716235819446
489.724138,,0.020643655957013157,489.647,0.6309999823570251,-2.221623379196725
490.189655,,0.019503769936988182,490.11,0.6690000295639038,-2.139035431911125
490.655172,,0.013507394829165308,490.58,0.6269999742507935,-2.230844465279417
491.12069,,0.009007184777039491,491.04,0.6190000176429749,-2.2486754999369687
491.586207,,0.007375135878880852,491.51,0.640999972820282,-2.2012317294663815
492.05172400000004,,0.005949950829418098,491.973,0.6460000276565552,-2.190893411475026
492.517241,,0.003184026167560255,492.436,0.6269999742507935,-2.232894131144231
492.982759,,0.0002557477992422572,492.901,0.6919999718666077,-2.091920115506706
493.448276,,0.0014261204173176315,493.368,0.6589999794960022,-2.164464521049571
493.913793,,0.001985251251398131,493.834,0.6370000243186951,-2.2130350752409207
494.37931000000003,,0.0017607934440818861,494.295,0.6269999742507935,-2.235435509732221
494.844828,,1.2166323452976754e-05,494.761,0.6890000104904175,-2.1009274157133926
495.310345,,0.0033998554687658953,495.226,0.656000018119812,-2.173326702111289
495.775862,,0.006031470672796345,495.692,0.640999972820282,-2.2064312069675935
496.241379,,0.00509027534017927,496.158,0.6790000200271606,-2.123975636110187
496.70689699999997,,0.0022271199823435677,496.624,0.6579999923706055,-2.169958440002763
497.172414,,0.0033561617846087875,497.085,0.6690000295639038,-2.1461153952185565
497.637931,,0.01100477230188983,497.554,0.6439999938011169,-2.2005920665824044
498.103448,,0.018785774967029028,498.018,0.6449999809265137,-2.1983128087335113
498.568966,,0.01773229950656807,498.48,0.6579999923706055,-2.1697823809234134
499.03448299999997,,0.007396512631941759,498.948,0.6190000176429749,-2.254441315787796
499.5,,0.00382925861173188,499.41,0.6579999923706055,-2.1690755894790024
499.96551700000003,,0.009328859420252255,499.876,0.628000020980835,-2.2339586762974126
500.431034,,0.011019445722585319,500.341,0.6480000019073486,-2.18984629111976
500.89655200000004,,0.014701629391345283,500.806,0.6790000200271606,-2.1217213853426524
501.362069,,0.02167413453148617,501.273,0.6439999938011169,-2.197357216129657
501.827586,,0.027164022988896794,501.739,0.6819999814033508,-2.113940284199251
502.293103,,0.026755834784060486,502.206,0.6499999761581421,-2.183036441945886
502.758621,,0.022151932378592715,502.665,0.6370000243186951,-2.2107654364007834
503.224138,,0.018707644887521316,503.132,0.6759999990463257,-2.125250494709722
503.68965499999996,,0.01870635094306476,503.595,0.6209999918937683,-2.2445905912343163
504.15517200000005,,0.01980952107525341,504.065,0.6480000019073486,-2.185358914881441
504.62068999999997,,0.019412207064288412,504.528,0.6349999904632568,-2.213363220372921
505.08620699999994,,0.0176484423883087,504.992,0.6200000047683716,-2.2458243874839314
505.55172400000004,,0.01587084641857282,505.462,0.6169999837875366,-2.252248607549597
506.017241,,0.014288947846802645,505.92,0.5770000219345093,-2.3393935796534917
506.48275899999993,,0.012118942669247658,506.39,0.699999988079071,-2.0715284703478134
506.948276,,0.009036356658940469,506.855,0.6499999761581421,-2.1806723826824475
507.413793,,0.005079488411581346,507.317,0.6499999761581421,-2.180979117009314
507.87931,,0.0005419139706599622,507.783,0.6269999742507935,-2.2314816185543305
508.344828,,0.008525790202145587,508.247,0.6430000066757202,-2.1970916786815753
508.810345,,0.016801120823595368,508.713,0.6190000176429749,-2.2499083138836173
509.27586199999996,,0.020981114427973284,509.18,0.640999972820282,-2.202551480063562
509.74137900000005,,0.019363651141400068,509.646,0.6370000243186951,-2.2118655259824886
510.20689699999997,,0.016669157120518245,510.107,0.6330000162124634,-2.2211872305138938
510.67241399999995,,0.02046055809763483,510.576,0.6729999780654907,-2.1346368003135123
511.13793100000004,,0.032339117252232964,511.04,0.6399999856948853,-2.2070970463743915
511.603448,,0.04430786072237049,511.502,0.6880000233650208,-2.103038488598943
512.0689659999999,,0.04702731756809518,511.97,0.6340000033378601,-2.2211384439691253
512.534483,,0.04081707072412655,512.432,0.6700000166893005,-2.1430830713816036
513.0,,0.034572381179707165,512.898,0.6460000276565552,-2.1956589603345162
513.465517,,0.03416842309275225,513.362,0.6779999732971191,-2.1261343411499074
513.931034,,0.03603121318751529,513.827,0.6209999918937683,-2.250408165628094
514.396552,,0.032967887542301115,514.294,0.6140000224113464,-2.265647916537535
514.862069,,0.02344302690206359,514.76,0.6729999780654907,-2.1369966306923263
515.327586,,0.012942398184955134,515.225,0.6489999890327454,-2.1890751622774216
515.793103,,0.006414669846703858,515.691,0.6539999842643738,-2.1778816452205354
516.258621,,0.0015960995770292455,516.156,0.6190000176429749,-2.2537534199473805
516.724138,,0.007769304477829032,516.621,0.6370000243186951,-2.2140892555495064
517.189655,,0.022502845025296286,517.084,0.628000020980835,-2.233195279002571
517.655172,,0.034494340984720186,517.547,0.6449999809265137,-2.195618391424989
518.1206900000001,,0.03410288090559585,518.01,0.652999997138977,-2.177627099030314
518.5862070000001,,0.020368216664116905,518.48,0.6449999809265137,-2.1944888334884554
519.051724,,0.0022432926677157174,518.944,0.628000020980835,-2.230970547273199
519.517241,,0.011012618846585848,519.406,0.625,-2.2369811404399766
519.982759,,0.018769850237726163,519.871,0.6159999966621399,-2.256109719354103
520.448276,,0.026851475056623258,520.336,0.6489999890327454,-2.1837950949491867
520.9137929999999,,0.03905931167886559,520.802,0.6449999809265137,-2.1921617617905533
521.37931,,0.05355303905271337,521.269,0.6439999938011169,-2.194073215316961
521.844828,,0.06518025203303858,521.735,0.6449999809265137,-2.191715761130831
522.310345,,0.06769055747221411,522.199,0.6650000214576721,-2.1480565501204065
522.7758620000001,,0.05478290169156086,522.665,0.621999979019165,-2.241747097534582
523.241379,,0.02359091884541707,523.125,0.6919999718666077,-2.089343899952357
523.7068969999999,,0.020163461755164043,523.595,0.6439999938011169,-2.1941103291959614
524.172414,,0.062448203455082556,524.058,0.6790000200271606,-2.1181314629588024
524.637931,,0.09046050481212517,524.521,0.6620000004768372,-2.155516259975765
525.103448,,0.10256961228037953,524.992,0.6639999747276306,-2.1515696673848126
525.568966,,0.10599297897596063,525.454,0.6470000147819519,-2.189068172469491
526.034483,,0.10540821203562928,525.92,0.6209999918937683,-2.2462126381492173
526.5,,0.09858251843184815,526.382,0.6700000166893005,-2.13998159168434
526.9655170000001,,0.08341914738935964,526.848,0.6539999842643738,-2.1753694111162543
527.4310340000001,,0.06409865942360465,527.313,0.6869999766349792,-2.1039931763518918
527.8965519999999,,0.047577634178857985,527.779,0.6700000166893005,-2.1415231318295924
528.362069,,0.036036694439926624,528.244,0.7080000042915344,-2.0591861935526916
528.827586,,0.025460260064654676,528.71,0.6449999809265137,-2.1968385707751485
529.293103,,0.012425625077200514,529.177,0.6990000009536743,-2.0795239464862534
529.7586210000001,,0.00019514931165407945,529.635,0.7099999785423279,-2.0558160802777254
530.224138,,0.004913497210451224,530.103,0.6769999861717224,-2.1278857566349005
530.689655,,0.0023553253014400857,530.565,0.6990000009536743,-2.0800430475415554
531.155172,,0.0011154730883950264,531.036,0.6700000166893005,-2.1432234523204188
531.62069,,0.000980684879912781,531.498,0.6859999895095825,-2.1082780925105995
532.086207,,0.008495356586425414,531.966,0.6949999928474426,-2.0884998908250365
532.5517239999999,,0.016223287687938553,532.428,0.6869999766349792,-2.105680954319661
533.017241,,0.019835482265024375,532.894,0.722000002861023,-2.0291099289304166
533.482759,,0.019493403348067026,533.358,0.7009999752044678,-2.0744828180381942
533.9482760000001,,0.018501511044113156,533.824,0.7179999947547913,-2.0370182119323803
534.413793,,0.01959199089279299,534.288,0.7260000109672546,-2.0191257411288115
534.87931,,0.02305781970528804,534.753,0.7129999995231628,-2.046963251584182
535.344828,,0.02760937437526217,535.218,0.675000011920929,-2.129261201548532
535.810345,,0.03139488554130768,535.684,0.7889999747276306,-1.8804133308838455
536.275862,,0.032232490550588314,536.151,0.6880000233650208,-2.0999965209436016
536.7413789999999,,0.02926087563484941,536.617,0.7350000143051147,-1.997176007578496
537.206897,,0.025914542048601122,537.077,0.7269999980926514,-2.014230392316958
537.672414,,0.02883575729283661,537.54,0.7279999852180481,-2.0117365531646514
538.137931,,0.0401581282065225,538.01,0.7039999961853027,-2.063778251078407
538.6034480000001,,0.05204298875839218,538.473,0.7329999804496765,-2.000428287120546
539.0689659999999,,0.053637844943310205,538.944,0.7129999995231628,-2.043913089873496
539.5344829999999,,0.043550175575502524,539.406,0.722000002861023,-2.024300266144952
540.0,,0.030917440911441954,539.865,0.746999979019165,-1.9699114026436544
540.465517,,0.023805673515839097,540.33,0.7229999899864197,-2.022354971897476
540.931034,,0.020828802135427947,540.795,0.6990000009536743,-2.0748728296905083
541.396552,,0.015330307762925571,541.262,0.781000018119812,-1.8965204535847324
541.862069,,0.004557025188646496,541.728,0.699999988079071,-2.0733440367071774
542.327586,,0.007759551522474218,542.193,0.7620000243186951,-1.9386659363101415
542.7931030000001,,0.016944146853398928,542.658,0.722000002861023,-2.0262430949836205
543.258621,,0.022475842984161356,543.121,0.7829999923706055,-1.893795546223652
543.7241379999999,,0.02610340429070388,543.591,0.7490000128746033,-1.9683239508395576
544.189655,,0.027372029271411726,544.051,0.7139999866485596,-2.045022618816672
544.655172,,0.02402196957718622,544.521,0.6990000009536743,-2.078128726856634
545.12069,,0.01577194136315497,544.984,0.699999988079071,-2.0763456459564735
545.5862070000001,,0.005180775056517394,545.447,0.7239999771118164,-2.0244109434912776
546.051724,,0.004680112450628467,545.913,0.8500000238418579,-1.7501976261518362
546.517241,,0.011496211383429645,546.375,0.7229999899864197,-2.0271151780585233
546.982759,,0.013087883298633113,546.841,0.7850000262260437,-1.892195234134885
547.448276,,0.007882470280321635,547.309,0.6700000166893005,-2.142821873344636
547.9137929999999,,0.0023651847978722828,547.775,0.8230000138282776,-1.8094946289000409
548.3793099999999,,0.011375097345845837,548.239,0.765999972820282,-1.933605998354702
548.844828,,0.01280281674695021,548.705,0.8019999861717224,-1.8550266224281713
549.310345,,0.006936954916246793,549.17,0.7559999823570251,-1.9550261795282524
549.775862,,0.0008504861533461631,549.636,0.8240000009536743,-1.8065965830753759
550.241379,,0.000375046941333749,550.099,0.8169999718666077,-1.8215105248781007
550.706897,,0.0029202042698538134,550.561,0.7300000190734863,-2.010672667817469
551.172414,,2.826868137299821e-05,551.029,0.7350000143051147,-1.9993712662740837
551.637931,,0.01233124331797363,551.491,0.746999979019165,-1.9728057226330076
552.103448,,0.026791461080017002,551.955,0.8119999766349792,-1.8307695324139168
552.568966,,0.03277965677668613,552.425,0.8169999718666077,-1.8194605376329946
553.034483,,0.029435910997136373,552.89,0.7739999890327454,-1.912747091709059
553.5,,0.026571580762687914,553.355,0.7379999756813049,-1.9908178712472975
553.965517,,0.032467406484298744,553.82,0.8349999785423279,-1.77917418768833
554.4310340000001,,0.04503665603723414,554.285,0.8510000109672546,-1.7440530305595912
554.896552,,0.05505345287818582,554.751,0.7250000238418579,-2.0183597472560257
555.3620689999999,,0.05450803578130027,555.21,0.7730000019073486,-1.9136505557965076
555.827586,,0.04128229487084873,555.676,0.6869999766349792,-2.100955118565833
556.293103,,0.018017593083652854,556.14,0.7110000252723694,-2.0486858575159834
556.758621,,0.011909015296656807,556.606,0.8399999737739563,-1.7677332498029814
557.224138,,0.046292643075074656,557.077,0.7620000243186951,-1.9378277464220275
557.689655,,0.08140964791691277,557.54,0.7490000128746033,-1.9663719574656544
558.155172,,0.10900392107653442,558.003,0.6330000162124634,-2.2193751213278867
558.6206900000001,,0.11972817056172858,558.465,0.8130000233650208,-1.8275478092244744
559.0862070000001,,0.1118889296639998,558.931,0.6840000152587891,-2.108959489856342
559.5517239999999,,0.0946120487563938,559.395,0.8149999976158142,-1.8239454392838363
560.017241,,0.07911591491642915,559.861,0.7369999885559082,-1.9942781592749212
560.482759,,0.0682033867378721,560.325,0.7319999933242798,-2.005566057980606
560.948276,,0.05728287248565719,560.791,0.7590000033378601,-1.947122118050417
561.413793,,0.043257004711161166,561.255,0.7369999885559082,-1.99540430391172
561.87931,,0.02796176716860121,561.72,0.7300000190734863,-2.0109682000784566
562.344828,,0.014412961152319437,562.192,0.7910000085830688,-1.8783353126251128
562.8103450000001,,0.004361399416530123,562.65,0.7950000166893005,-1.869826329345546
563.275862,,0.0007011750680579447,563.118,0.7269999980926514,-2.0181150228136664
563.7413789999999,,0.0005570210103783536,563.58,0.5929999947547913,-2.3101305698131642
564.206897,,0.000297970824541635,564.051,0.7699999809265137,-1.9245234797723174
564.672414,,0.005762498002392675,564.513,0.722000002861023,-2.029046588634354
565.137931,,0.02056916211376504,564.977,0.7429999709129333,-1.9831775407664995
565.603448,,0.035145439764564815,565.447,0.7850000262260437,-1.8914948509681149
566.068966,,0.03873711633080255,565.905,0.7649999856948853,-1.9348315402011922
566.534483,,0.03173141043801605,566.377,0.7390000224113464,-1.9911915096381907
567.0,,0.024347978065316755,566.835,0.7239999771118164,-2.0235494403223626
567.465517,,0.023432551222950085,567.306,0.7419999837875366,-1.9839863463910303
567.931034,,0.02592511395823421,567.765,0.7310000061988831,-2.0075899777468336
568.396552,,0.025273075254332013,568.237,0.699999988079071,-2.0747652213700007
568.862069,,0.01974039441741774,568.695,0.6949999928474426,-2.085307400651077
569.327586,,0.013162264721995198,569.162,0.7049999833106995,-2.0631936300682976
569.793103,,0.00978297155847488,569.628,0.7080000042915344,-2.056364116154927
570.2586210000001,,0.00994282384818364,570.095,0.722000002861023,-2.0256118213111174
570.724138,,0.010858279777989536,570.558,0.7409999966621399,-1.9840152521566237
571.189655,,0.01070898767803526,571.021,0.7329999804496765,-2.0012962750577605
571.655172,,0.010718349544774824,571.491,0.7160000205039978,-2.038243416721944
572.12069,,0.01318036979339464,571.955,0.765999972820282,-1.9292816652288627
572.586207,,0.01865806886450541,572.417,0.7279999852180481,-2.0121006870571487
573.051724,,0.02571331499191911,572.883,0.7910000085830688,-1.8749334864965657
573.517241,,0.03276843317781071,573.351,0.6579999923706055,-2.164836344824663
573.982759,,0.03939958333091452,573.816,0.746999979019165,-1.9711307181256565
574.4482760000001,,0.04551311303786095,574.281,0.753000020980835,-1.9582967134486613
574.913793,,0.04989086704177509,574.747,0.7089999914169312,-2.054429919843838
575.37931,,0.05071565119760973,575.211,0.7039999961853027,-2.0656227362039252
575.844828,,0.04764806512509412,575.677,0.7089999914169312,-2.055046987696286
576.310345,,0.04196336591410976,576.143,0.7360000014305115,-1.9965476966225697
576.775862,,0.03394862687695219,576.602,0.6869999766349792,-2.1036217310295418
577.241379,,0.022175030779727593,577.066,0.7039999961853027,-2.0668912742178547
577.706897,,0.007630507430282486,577.535,0.6290000081062317,-2.2305747354796943
578.172414,,0.003349368308558492,577.996,0.777999997138977,-1.9062094467797859
578.6379310000001,,0.004695064322606506,578.466,0.7080000042915344,-2.0589258692670747
579.1034480000001,,0.0015074691787366498,578.932,0.675000011920929,-2.1309835490091937
579.5689659999999,,0.007833630316693575,579.395,0.6579999923706055,-2.168131958979632
580.034483,,0.011506347759009154,579.86,0.6700000166893005,-2.142046100923013
580.5,,0.015320733126080165,580.325,0.656000018119812,-2.172550217443578
580.965517,,0.018706161183886894,580.792,0.656000018119812,-2.1724985806478383
581.431034,,0.014397118548446502,581.251,0.675000011920929,-2.1309995625236087
581.896552,,0.0039409229991138476,581.717,0.6850000023841858,-2.1090578025916518
582.362069,,0.03373854511694733,582.184,0.6589999794960022,-2.165501579867446
582.827586,,0.0639699067952025,582.65,0.722000002861023,-2.0280056529216073
583.2931030000001,,0.0825315455557783,583.114,0.6660000085830688,-2.1497360999161663
583.758621,,0.08420399751957916,583.576,0.6959999799728394,-2.08407902258649
584.2241379999999,,0.07314389743155256,584.044,0.6589999794960022,-2.164377821342975
584.689655,,0.058062903658467294,584.506,0.7070000171661377,-2.059487741189757
585.155172,,0.04493599857521852,584.977,0.6610000133514404,-2.159397072413394
585.6206900000001,,0.034054234322449604,585.439,0.6579999923706055,-2.1656416474292555
586.0862070000001,,0.02272588736114869,585.905,0.6679999828338623,-2.1435910539755327
586.551724,,0.009222682683241314,586.369,0.656000018119812,-2.1695063249781485
587.017241,,0.005819437815542304,586.835,0.6579999923706055,-2.164963837834009
587.482759,,0.020099567263290017,587.299,0.6499999761581421,-2.182257188304452
587.948276,,0.030877217076613707,587.765,0.6389999985694885,-2.206140473945708
588.4137929999999,,0.0369362951569481,588.225,0.6489999890327454,-2.184329088465412
588.87931,,0.04009601592799402,588.691,0.6499999761581421,-2.182182822271744
589.344828,,0.04284819193071716,589.158,0.6549999713897705,-2.1713775691288513
589.810345,,0.043876376648969345,589.625,0.6449999809265137,-2.193304492004978
590.2758620000001,,0.038956746472495064,590.088,0.640999972820282,-2.2022075351796526
590.741379,,0.027884891755062514,590.551,0.6309999823570251,-2.2242245271832854
591.2068969999999,,0.01765624253967442,591.021,0.6460000276565552,-2.1918096842390202
591.672414,,0.015607841684425824,591.484,0.6700000166893005,-2.1398118606425025
592.137931,,0.019310464348672098,591.952,0.6150000095367432,-2.2599422150952786
592.603448,,0.01613949504679679,592.414,0.6520000100135803,-2.1796424895762976
593.068966,,0.004072356375550378,592.88,0.6660000085830688,-2.149446438371843
593.534483,,0.037180182701769246,593.34,0.6909999847412109,-2.095268248895596
594.0,,0.06869257794753184,593.806,0.6290000081062317,-2.230605895932636
594.4655170000001,,0.08780452246416383,594.277,0.6389999985694885,-2.209047478242795
594.9310340000001,,0.0937997487176886,594.735,0.6700000166893005,-2.1416968030605754
595.3965519999999,,0.09088020811965515,595.207,0.6359999775886536,-2.2159111586462577
595.862069,,0.08189234469849868,595.665,0.6700000166893005,-2.141925525309511
596.327586,,0.06755038343056624,596.133,0.6449999809265137,-2.196425817026442
596.793103,,0.04876820187365336,596.595,0.6449999809265137,-2.19640467018793
597.2586210000001,,0.028342212414149442,597.066,0.6140000224113464,-2.263868412565145
597.724138,,0.01050458750942913,597.528,0.6259999871253967,-2.237600851410752
598.189655,,0.0014771204810884288,597.996,0.6579999923706055,-2.167714430249167
598.655172,,0.00779005224054573,598.458,0.6489999890327454,-2.1871113003829263
599.12069,,0.012155943568397264,598.924,0.6539999842643738,-2.1759724183236875
599.586207,,0.018819466360629155,599.386,0.6209999918937683,-2.2475962786180026
600.0517239999999,,0.028836169713966707,599.852,0.6399999856948853,-2.205914284844788
600.517241,,0.0393647995294348,600.318,0.6340000033378601,-2.2186918426337825
600.982759,,0.04672393608842396,600.784,0.6370000243186951,-2.2118643851843602
601.448276,,0.04966273176897453,601.251,0.6330000162124634,-2.220299962442552
601.913793,,0.049645463155725524,601.717,0.6290000081062317,-2.2287572050854014
602.37931,,0.04898382723192222,602.181,0.6620000004768372,-2.156634019759153
602.844828,,0.04906120125866544,602.647,0.6209999918937683,-2.245767410391657
603.310345,,0.04930656369135002,603.11,0.6970000267028809,-2.0800408946721225
603.775862,,0.04729811781952775,603.573,0.6340000033378601,-2.21719275638121
604.2413789999999,,0.041012775173044184,604.036,0.6190000176429749,-2.2498198778703715
604.706897,,0.032010772381817605,604.506,0.6190000176429749,-2.2498211731379074
605.172414,,0.024832197337129124,604.97,0.6840000152587891,-2.108263062205055
605.637931,,0.02077498427652595,605.432,0.625,-2.2369070537498983
606.1034480000001,,0.013857308639149434,605.897,0.6489999890327454,-2.1847697725768134
606.5689659999999,,0.0025991697806428044,606.361,0.671999990940094,-2.134852519296915
607.0344829999999,,0.02566848123784815,606.826,0.6359999775886536,-2.2135100560527157
607.5,,0.04361650518726313,607.291,0.6190000176429749,-2.250801419985895
607.965517,,0.047522018817290824,607.757,0.6290000081062317,-2.2292904406479264
608.431034,,0.039270941744970284,608.222,0.6110000014305115,-2.2687939577367104
608.896552,,0.028041766611518488,608.688,0.6460000276565552,-2.1928316793781724
609.362069,,0.020389550417900887,609.155,0.6079999804496765,-2.275903793290935
609.827586,,0.014145597728596285,609.62,0.6710000038146973,-2.138915235521325
610.293103,,0.0032160424974114286,610.081,0.6179999709129333,-2.2546236891474654
610.758621,,0.011870017909404557,610.55,0.6629999876022339,-2.15679000215863
611.2241379999999,,0.022369315854681986,611.014,0.6669999957084656,-2.148238975605071
611.689655,,0.02170259611549969,611.476,0.6299999952316284,-2.2289649185591984
612.155172,,0.012981532565147542,611.944,0.6399999856948853,-2.207244032814399
612.62069,,0.0042815284773369345,612.406,0.6700000166893005,-2.14189737469021
613.0862070000001,,6.31258296227717e-05,612.872,0.6230000257492065,-2.2442532503196984
613.551724,,0.000913815319639772,613.337,0.6150000095367432,-2.2615911032048475
614.017241,,0.0017113548870368212,613.802,0.625,-2.239666543716049
614.4827590000001,,0.0035218185917258553,614.266,0.6470000147819519,-2.1915553431782304
614.948276,,0.005470169590132656,614.731,0.6140000224113464,-2.2632326058762837
615.4137929999999,,0.006363847813556619,615.196,0.6439999938011169,-2.197625185269049
615.8793099999999,,0.005459022272749144,615.662,0.6129999756813049,-2.26489366098215
616.344828,,0.002304189934123321,616.125,0.6489999890327454,-2.1861796060435634
616.810345,,0.0022988979467332307,616.594,0.6460000276565552,-2.192428353704724
617.275862,,0.0051771111742322995,617.055,0.6190000176429749,-2.2509696374770485
617.741379,,0.003091690934335863,617.525,0.640999972820282,-2.202771909549427
618.206897,,0.0022233173923328436,617.985,0.6230000257492065,-2.2417434231896953
618.672414,,0.0035465421805678946,618.454,0.6190000176429749,-2.2502457740256303
619.137931,,0.0037731321485118506,618.92,0.6190000176429749,-2.25007271323134
619.603448,,0.014333151022838091,619.383,0.6230000257492065,-2.241229862674209
620.068966,,0.017856704709429252,619.848,0.6150000095367432,-2.258579817881001
620.534483,,0.011659546290375217,620.317,0.6539999842643738,-2.173584256550172
621.0,,0.0032193433934430645,620.775,0.6079999804496765,-2.273825216635764
621.465517,,0.0002559703323889099,621.24,0.5709999799728394,-2.354510574584516
621.9310340000001,,0.0026600093921084643,621.705,0.6489999890327454,-2.1847017283247747
622.396552,,0.004844135551572939,622.17,0.6660000085830688,-2.1478341516283326
622.862069,,0.002873399719152016,622.636,0.6039999723434448,-2.2831170843100614
623.327586,,0.00200003814946201,623.107,0.6000000238418579,-2.2920705192539925
623.793103,,0.005776370160139021,623.569,0.6129999756813049,-2.2640126652251467
624.258621,,0.006528605792129051,624.036,0.6079999804496765,-2.275186845840671
624.724138,,0.0060053176468901825,624.499,0.625,-2.2384374891897276
625.189655,,0.006656624596113522,624.966,0.6060000061988831,-2.280116580522078
625.655172,,0.008620623347946539,625.428,0.6269999742507935,-2.234637379770958
626.1206900000001,,0.010319889761410414,625.894,0.597000002861023,-2.300247835990187
626.5862070000001,,0.01072037394825787,626.358,0.6290000081062317,-2.2307525472048613
627.0517239999999,,0.009977875377321407,626.824,0.6169999837875366,-2.2570805479470564
627.5172409999999,,0.008656699965065625,627.289,0.6140000224113464,-2.2637569791274372
627.982759,,0.007479724688778631,627.754,0.6269999742507935,-2.235527003885938
628.448276,,0.007560311508186567,628.221,0.6320000290870667,-2.2246741509720143
628.913793,,0.009417134518650078,628.687,0.6430000066757202,-2.2006957028392877
629.37931,,0.011248706776868069,629.151,0.6579999923706055,-2.1679484182557713
629.844828,,0.009746299413964928,629.617,0.6190000176429749,-2.2527961269716146
630.3103450000001,,0.004221644512590578,630.077,0.5709999799728394,-2.35720596239708
630.7758620000001,,0.0009821254532085741,630.547,0.5929999947547913,-2.309072059734718
631.2413789999999,,0.0007176463369236826,631.01,0.6100000143051147,-2.2717997412430044
631.706897,,0.003648865982264491,631.473,0.6309999823570251,-2.2257876083286168
632.172414,,0.003967871867094647,631.94,0.628000020980835,-2.2320451103897936
632.637931,,0.004671077826679184,632.403,0.6060000061988831,-2.2796885888366956
633.103448,,0.015831836235105014,632.868,0.6039999723434448,-2.283761045964728
633.568966,,0.01855346946053285,633.336,0.5929999947547913,-2.3074532483059844
634.034483,,0.011123422272041494,633.801,0.6209999918937683,-2.2461991262090666
634.5,,0.0023588435526641026,634.266,0.5950000286102295,-2.3026208416011036
634.9655170000001,,0.00034351744804688795,634.732,0.6209999918937683,-2.24578910138566
635.431034,,0.0015520756677851045,635.192,0.5929999947547913,-2.3066466352860657
635.8965519999999,,0.002717602444571248,635.657,0.6169999837875366,-2.2542615724913544
636.362069,,0.0014747716525245712,636.125,0.5849999785423279,-2.3239313723746005
636.827586,,0.0001677899431704859,636.587,0.6019999980926514,-2.286899737481221
637.293103,,0.0003565453871867928,637.051,0.5929999947547913,-2.306565331737723
637.7586210000001,,0.00023831329769677325,637.521,0.6420000195503235,-2.199918604453544
638.224138,,0.002673910353809924,637.985,0.5889999866485596,-2.3155393190251536
638.689655,,0.007669678391512976,638.447,0.6499999761581421,-2.1828339019032224
639.155172,,0.011136646370411089,638.913,0.5910000205039978,-2.3115996431922627
639.62069,,0.010547660774524159,639.375,0.628000020980835,-2.2312414573561825
640.086207,,0.0068649191203852085,639.841,0.6069999933242798,-2.277263123714951
640.551724,,0.002817169391166287,640.309,0.6320000290870667,-2.223075689723403
641.017241,,5.020951248825631e-05,640.775,0.6060000061988831,-2.2799992153044464
641.482759,,0.00195834253996981,641.24,0.6069999933242798,-2.278090302966535
641.9482760000001,,0.0032871355078780327,641.706,0.6000000238418579,-2.2935933888443554
642.413793,,0.003654057864307496,642.166,0.6200000047683716,-2.250247578958791
642.87931,,0.002911215705586233,642.632,0.5820000171661377,-2.3332305577213557
643.344828,,0.0019262059449172675,643.099,0.5809999704360962,-2.3355655509346147
643.810345,,0.0012491560763992601,643.562,0.6000000238418579,-2.2942844859955036
644.275862,,0.0002966007727157029,644.025,0.6349999904632568,-2.2180972182189134
644.7413789999999,,0.0037949832625779854,644.495,0.6069999933242798,-2.2791133821777447
645.206897,,0.006711650156563864,644.955,0.6019999980926514,-2.2899691558599273
645.672414,,0.0038500994062575546,645.426,0.640999972820282,-2.204914102742375
646.1379310000001,,0.005678242214778269,645.891,0.6179999709129333,-2.2548867997331694
646.6034480000001,,0.01448130516207651,646.35,0.6060000061988831,-2.280850610174855
647.0689659999999,,0.01402191943311385,646.816,0.5979999899864197,-2.298063192871398
647.534483,,0.0051088569916698376,647.28,0.5920000076293945,-2.3108893965709667
648.0,,0.002825505633231792,647.746,0.6539999842643738,-2.1755457903480293
648.465517,,0.0029895408192471924,648.21,0.574999988079071,-2.3473779503218823
648.931034,,0.0017681258212435306,648.676,0.6480000019073486,-2.18805135862921
649.396552,,0.004064524128637591,649.141,0.6430000066757202,-2.1986636211216117
649.862069,,0.0016038853310219434,649.607,0.6209999918937683,-2.2463257043814377
650.327586,,0.0006394137413788366,650.07,0.6309999823570251,-2.2242934366682294
650.7931030000001,,0.0019909278388666814,650.54,0.6079999804496765,-2.274187761322904
651.258621,,0.006846687019813355,651.003,0.652999997138977,-2.1759722046815426
651.7241379999999,,0.007566925301918483,651.465,0.6129999756813049,-2.2629857854193736
652.189655,,0.0029743135223865486,651.931,0.6460000276565552,-2.1910063821582217
652.655172,,0.0017203624964117247,652.395,0.625,-2.236725787478066
653.12069,,0.0021372771985641473,652.86,0.6499999761581421,-2.1822800264818336
653.5862070000001,,0.0006104799553508639,653.325,0.6169999837875366,-2.2542483539004294
654.051724,,0.0028032675206354643,653.792,0.6430000066757202,-2.1977271277776267
654.517241,,0.002767424241806669,654.259,0.6150000095367432,-2.2589002812254244
654.982759,,0.0015033763654256737,654.725,0.6159999966621399,-2.2569352028091574
655.448276,,0.0002628763995727159,655.185,0.6209999918937683,-2.2462917545948384
655.9137929999999,,0.0007942296763569767,655.65,0.5419999957084656,-2.4186843616221583
656.37931,,0.0015309997402705893,656.118,0.6079999804496765,-2.275194966188818
656.844828,,0.0008864434582828661,656.58,0.6299999952316284,-2.2275768081072194
657.310345,,0.0018134209850870135,657.051,0.6129999756813049,-2.264924603352581
657.7758620000001,,0.0052838323969255354,657.513,0.6449999809265137,-2.195506242741318
658.241379,,0.007913127779042345,657.977,0.6079999804496765,-2.2763920843890286
658.7068969999999,,0.011243377900121532,658.44,0.6759999990463257,-2.1284871849424145
659.172414,,0.01915117601027274,658.905,0.6549999713897705,-2.174439791053109
659.637931,,0.03137713541053631,659.376,0.6150000095367432,-2.261737498027701
660.103448,,0.04039672394468388,659.835,0.6079999804496765,-2.277087515185309
660.568966,,0.038702089641094374,660.307,0.6299999952316284,-2.229201162519674
661.034483,,0.027767808811368512,660.765,0.6399999856948853,-2.207400494317177
661.5,,0.015609889609587976,661.232,0.6320000290870667,-2.224756686744665
661.965517,,0.006533320612308073,661.698,0.6340000033378601,-2.2202699514639357
662.4310340000001,,0.002452039608258508,662.163,0.6230000257492065,-2.2440532000967606
662.8965519999999,,0.015335402731456166,662.629,0.6700000166893005,-2.1414277295055655
663.362069,,0.030948793461485005,663.092,0.6460000276565552,-2.193445420410908
663.827586,,0.04402928852359052,663.561,0.6209999918937683,-2.2476102488828573
664.293103,,0.050403914702802526,664.022,0.6309999823570251,-2.2255018054811018
664.7586210000001,,0.049965467556288175,664.491,0.6449999809265137,-2.1946687552100297
665.224138,,0.04538266366924705,664.952,0.6470000147819519,-2.1899797450139107
665.689655,,0.03917364673716178,665.415,0.6909999847412109,-2.0937979171519907
666.155172,,0.03226620193084245,665.88,0.6499999761581421,-2.182821542761994
666.62069,,0.02456610186951199,666.348,0.6430000066757202,-2.19780254592883
667.086207,,0.016215415145952483,666.814,0.6570000052452087,-2.167073729243805
667.5517239999999,,0.008312687002715551,667.281,0.6269999742507935,-2.232255587106868
668.017241,,0.002434182763910628,667.747,0.6449999809265137,-2.192919289803256
668.482759,,0.0007484559166522688,668.21,0.640999972820282,-2.2015750138218055
668.948276,,0.002170572474840782,668.676,0.6449999809265137,-2.192865565008761
669.413793,,0.00330961280026857,669.141,0.6449999809265137,-2.1929351939512567
669.87931,,0.004665110736933507,669.607,0.6200000047683716,-2.247534177814926
670.3448279999999,,0.005810552606971003,670.069,0.6340000033378601,-2.2172259181226113
670.810345,,0.006628327555687215,670.532,0.6309999823570251,-2.224008855990923
671.275862,,0.007542975050332885,670.996,0.6700000166893005,-2.1393338456489843
671.7413789999999,,0.00843416212468197,671.465,0.6259999871253967,-2.2355223241419684
672.206897,,0.008416119001216384,671.931,0.6100000143051147,-2.270734514312353
672.672414,,0.007313531986420439,672.395,0.6230000257492065,-2.2427814481896466
673.137931,,0.006406795485918651,672.861,0.6669999957084656,-2.1472925446733138
673.6034480000001,,0.006754873648080392,673.325,0.6679999828338623,-2.1454732755105614
674.068966,,0.007482424372276575,673.791,0.6460000276565552,-2.19373790342196
674.5344829999999,,0.0068450848913386535,674.255,0.6190000176429749,-2.2528608397090646
675.0,,0.004600770460146465,674.72,0.6539999842643738,-2.1768629005142004
675.465517,,0.0022470174509679713,675.185,0.6809999942779541,-2.118239081206108
675.931034,,0.0009849768495120504,675.65,0.6449999809265137,-2.196807018656227
676.396552,,0.00040817872497327356,676.114,0.6589999794960022,-2.1663747097776285
676.862069,,0.00045643298963360716,676.576,0.6800000071525574,-2.1206208914348816
677.327586,,0.0014883314893886315,677.044,0.722000002861023,-2.0290422475485834
677.793103,,0.001601281806128704,677.506,0.6439999938011169,-2.198829739904747
678.2586210000001,,0.0003666003546580344,677.97,0.6190000176429749,-2.253084036431545
678.7241379999999,,0.0012895171498115555,678.439,0.6800000071525574,-2.119917784540319
679.1896549999999,,0.002196004519475006,678.905,0.6660000085830688,-2.15010045335739
679.655172,,0.0021354066742199362,679.369,0.6179999709129333,-2.2543181390928373
680.12069,,0.0017268628608350268,679.835,0.6290000081062317,-2.229969767656366
680.5862070000001,,0.001600361938396187,680.299,0.6520000100135803,-2.1794647456225205
681.051724,,0.0019261222527182744,680.765,0.6579999923706055,-2.1659957620789054
