Trial: ,11
Threshold: ,0.0
Maximum EMG: ,0.07271719422818662
Success: ,True

EMG Time,Raw EMG,Filtered EMG,Force Time,Raw Force (V),Filtered Force (N)
0.0,samples,2.5967314584186914e-06,0.468,0.7739999890327454,0.0044502060407284015
0.46551699999999996,time,2.695636881445709e-06,0.934,0.7670000195503235,-0.01136086559245477
0.9310339999999999,value,2.789206011881429e-06,1.399,0.7689999938011169,-0.007536917066342883
1.396552,,2.8768748898084364e-06,1.865,0.777999997138977,0.011581753192796447
1.862069,,2.95807622889518e-06,2.327,0.7580000162124634,-0.032420811869513504
2.327586,,3.032241294658436e-06,2.79,0.7820000052452087,0.019510252037099884
2.793103,,3.098801869005585e-06,3.258,0.7760000228881836,0.00616696718532192
3.258621,,3.1571922977809647e-06,3.72,0.7649999856948853,-0.017975639573811125
3.724138,,3.206851617603257e-06,4.191,0.7820000052452087,0.018983989688999926
4.189654999999999,,3.2472257578379123e-06,4.653,0.7639999985694885,-0.020206097782095686
4.655172,,3.2777698131013185e-06,5.119,0.8209999799728394,0.10410611302869853
5.12069,,3.2979503812432568e-06,5.582,0.7699999809265137,-0.006774658010888224
5.586207,,3.307247961302547e-06,6.047,0.7450000047683716,-0.06091729041563645
6.051723999999999,,3.3051594054792963e-06,6.516,0.7820000052452087,0.020098779053603563
6.517241,,3.291200418717373e-06,6.974,0.781000018119812,0.01839750034560768
6.982759,,3.264908099044371e-06,7.439,0.7789999842643738,0.014575003841724134
7.448276,,3.225843511375122e-06,7.904,1.0440000295639038,0.5924981443947578
7.913793000000001,,3.173594287050532e-06,8.369,0.7549999952316284,-0.03651794240647129
8.379309999999998,,3.107777240958046e-06,8.835,0.7870000004768372,0.03382049010133448
8.844828000000001,,3.028040997665235e-06,9.305,0.7670000195503235,-0.009147180867975117
9.310345,,2.9340686175958097e-06,9.768,0.7739999890327454,0.006672779125382461
9.775862,,2.825580213889827e-06,10.231,0.7979999780654907,0.059476021902310036
10.241379,,2.7023355502188944e-06,10.694,0.7820000052452087,0.02506359127904933
10.706897,,2.564136609474877e-06,11.165,0.777999997138977,0.01671026676519136
11.172414,,2.410830122919034e-06,11.627,0.753000020980835,-0.037492131262522876
11.637931,,2.2423100490697303e-06,12.093,0.7799999713897705,0.021488131397469856
12.103447999999998,,2.058519991322964e-06,12.557,0.7850000262260437,0.03242649603614156
12.568966000000001,,1.8594555430430173e-06,13.023,0.777999997138977,0.017107611292319216
13.034483,,1.645166548632632e-06,13.487,0.7609999775886536,-0.020109908698753436
13.5,,1.4157592688953427e-06,13.953,0.7599999904632568,-0.022576734601454315
13.965517,,1.171398438838971e-06,14.421,0.7609999775886536,-0.020785750113736578
14.431034,,9.123092059408383e-07,14.879,0.7599999904632568,-0.023439526069107482
14.896552,,6.387789368039506e-07,15.35,0.777999997138977,0.015228612978642267
15.362069,,3.511588800811921e-07,15.812,0.781000018119812,0.021162540897292016
15.827586000000002,,4.986567353329428e-08,16.275,0.7599999904632568,-0.02522665366942107
16.293103,,2.646173168821607e-07,16.746,0.7760000228881836,0.008978669179373552
16.758621,,5.917388379174494e-07,17.209,0.7789999842643738,0.014866852314254327
17.224138,,9.308787818417397e-07,17.672,0.7590000033378601,-0.029327526994189963
17.689655,,1.2813474228832118e-06,18.138,0.7730000019073486,0.0005979475918134799
18.155172,,1.6423848688220312e-06,18.6,0.7860000133514404,0.028409667068759595
18.62069,,2.0131607389804315e-06,19.066,0.7609999775886536,-0.026485576394880583
19.086207,,2.39277407953494e-06,19.531,0.7950000166893005,0.047255525073211346
19.551724,,2.780253526701734e-06,19.997,0.7760000228881836,0.005635588952086036
20.017241000000002,,3.174557727918312e-06,20.462,0.9819999933242798,0.454330583770274
20.482758999999998,,3.5745760306623214e-06,20.928,0.8149999976158142,0.09051646052811751
20.948276,,3.979129448010817e-06,21.394,0.7570000290870667,-0.035701783963391714
21.413793000000002,,4.386971909450042e-06,21.86,0.7620000243186951,-0.024551851353814106
21.87931,,4.796791804796636e-06,22.32,0.7639999985694885,-0.019833533864275468
22.344828,,5.2072138283859765e-06,22.79,0.7710000276565552,-0.004128585596518793
22.810344999999998,,5.6168011299221795e-06,23.251,0.7749999761581421,0.005119514391173124
23.275862,,6.0240577775674436e-06,23.714,0.7620000243186951,-0.022606777407911505
23.741379,,6.427431537976453e-06,24.183,0.7870000004768372,0.03249905456978612
24.206897,,6.82531697705513e-06,24.646,0.7559999823570251,-0.034376008448496954
24.672414,,7.216058884243097e-06,25.111,0.7889999747276306,0.03818484330338859
25.137931,,7.597956022087021e-06,25.576,0.7820000052452087,0.023581544331727267
25.603448,,7.969265201788934e-06,26.042,0.7749999761581421,0.00893949267110045
26.068966,,8.328205684281394e-06,26.506,0.7710000276565552,0.0007750774220890619
26.534483,,8.672963905201676e-06,26.971,0.7559999823570251,-0.031431304763139545
27.0,,9.001698520912545e-06,27.438,0.7850000262260437,0.032131221526240206
27.465517,,9.312545771449615e-06,27.904,0.765999972820282,-0.00898526433916791
27.931034,,9.603625154967882e-06,28.369,0.7630000114440918,-0.015355978290418909
28.396552,,9.873045406915355e-06,28.835,0.7770000100135803,0.015191857725253884
28.862069,,1.011891077578315e-05,29.298,0.7699999809265137,-0.0001316786184098427
29.327586,,1.0339327585872405e-05,29.761,0.777999997138977,0.01710727831878375
29.793103000000002,,1.0532411076082518e-05,30.224,0.765999972820282,-0.009338328314018858
30.258620999999998,,1.069629250226661e-05,30.694,0.7620000243186951,-0.01845698534344274
30.724138,,1.0829126489222878e-05,31.165,0.7609999775886536,-0.021129984096567325
31.189655000000002,,1.0929098616899103e-05,31.62,0.7599999904632568,-0.023877437711582697
31.655172000000004,,1.099443322388679e-05,32.085,0.7919999957084656,0.04521450486965152
32.12069,,1.1023401409776133e-05,32.55,0.843999981880188,0.1578453617338446
32.586207,,1.1014329216438353e-05,33.015,0.777999997138977,0.01338383424636221
33.051724,,1.0965605966803383e-05,33.48,0.7789999842643738,0.014899626360757211
33.517241000000006,,1.0875692738214063e-05,33.946,0.7620000243186951,-0.02277285995755345
33.982759,,1.0743130945968533e-05,34.413,0.7360000014305115,-0.08000705160328869
34.448276,,1.0566551011216641e-05,34.879,0.8370000123977661,0.13951283329811284
34.913793,,1.0344681085959896e-05,35.339,0.7459999918937683,-0.05918422324144963
35.37931,,1.0076355806524123e-05,35.809,0.7820000052452087,0.018904178641272504
35.844828,,9.760525045536177e-06,36.272,0.7620000243186951,-0.024904619418959918
36.310345,,9.39626263114718e-06,36.735,0.7860000133514404,0.027262188937337607
36.775862,,8.98277500101168e-06,37.205,0.7879999876022339,0.03161831525603942
37.241378999999995,,8.519409757361662e-06,37.668,0.7620000243186951,-0.024907744648271363
37.706897000000005,,8.005664088413172e-06,38.134,0.777999997138977,0.010184936690784912
38.172414,,7.441193020318675e-06,38.596,0.7369999885559082,-0.07879764517208211
38.637931,,6.825817462936789e-06,39.062,0.765999972820282,-0.015178422732300235
39.103448,,6.1595320118399495e-06,39.528,0.781000018119812,0.01802316363190315
39.568965999999996,,5.442512468226537e-06,39.993,0.7649999856948853,-0.01624569528598758
40.034483,,4.675123037754156e-06,40.461,0.7699999809265137,-0.004713669081286832
40.5,,3.8579231687717725e-06,40.919,0.7580000162124634,-0.03018974813122737
40.965517,,2.991673990007063e-06,41.387,0.7580000162124634,-0.02951456211757822
41.431034,,2.077344307468106e-06,41.853,0.7820000052452087,0.023434766321369288
41.896552,,1.1161161201520073e-06,42.317,0.7649999856948853,-0.012974170983297104
42.362069000000005,,1.0938961412330668e-07,42.779,0.781000018119812,0.022459138529723633
42.827586000000004,,9.41212405361846e-07,43.249,0.7850000262260437,0.03167752301123369
43.293103,,2.0338406837479815e-06,43.713,0.7590000033378601,-0.02455071920552428
43.758621,,3.166416328735409e-06,44.176,0.7860000133514404,0.03458877046485783
44.224138,,4.336628302569266e-06,44.646,0.765999972820282,-0.008779106513149497
44.689655,,5.541931633394356e-06,45.104,0.8309999704360962,0.13292181889194346
45.155172,,6.779546383099715e-06,45.569,0.781000018119812,0.02395975776857419
45.620689999999996,,8.046457407996301e-06,46.035,0.777999997138977,0.017275477727266092
46.086206999999995,,9.339414947414455e-06,46.502,0.7760000228881836,0.01265452358002392
46.551724,,1.065493607387162e-05,46.968,0.765999972820282,-0.009503664797885154
47.017241,,1.1989307036842726e-05,47.435,0.7570000290870667,-0.029580145788061857
47.482759,,1.3338586530363334e-05,47.901,0.6499999761581421,-0.26324979440766133
47.948276,,1.4698609912707872e-05,48.365,0.7620000243186951,-0.019865208061239696
48.413793,,1.6064994404210837e-05,48.831,0.777999997138977,0.014320816979829183
48.879310000000004,,1.743314528693762e-05,49.291,0.824999988079071,0.11602176191476041
49.344828,,1.8798263127363734e-05,49.761,0.7609999775886536,-0.024107730832364983
49.810345,,2.015535204048798e-05,50.221,0.777999997138977,0.012253894031857265
50.275862,,2.1499229010887984e-05,50.69,0.7609999775886536,-0.025417641941051797
50.741379,,2.2824534283128207e-05,51.156,0.7820000052452087,0.019760840553525307
51.206897,,2.4125742830654024e-05,51.621,0.7730000019073486,-0.00034039067583921823
51.672414,,2.539717690885477e-05,52.08,0.9340000152587891,0.3500274771339677
52.137931,,2.663301969435884e-05,52.547,0.777999997138977,0.00987771476395883
52.603448,,2.782733000884011e-05,53.012,0.7590000033378601,-0.03167710311635114
53.068966,,2.8974058121673924e-05,53.48,0.7620000243186951,-0.02518019626753908
53.534483,,3.006706262168965e-05,53.946,0.781000018119812,0.016297801325378322
54.0,,3.110012834403365e-05,54.406,0.8450000286102295,0.15593718244510715
54.465517,,3.2066985333790364e-05,54.872,0.7839999794960022,0.023362556313598955
54.931034,,3.296132882351965e-05,55.339,0.7820000052452087,0.019434334233377367
55.396552,,3.377684019726637e-05,55.802,0.7519999742507935,-0.045405621929298166
55.862069,,3.4507208908895384e-05,56.265,0.7260000109672546,-0.10145833781103533
56.327586,,3.514615531781307e-05,56.734,0.8759999871253967,0.22598619600445244
56.793102999999995,,3.568745440026982e-05,57.195,0.7770000100135803,0.010985194788234096
57.258621000000005,,3.612496028950907e-05,57.665,0.7820000052452087,0.0225792524346187
57.724138,,3.6452631593053976e-05,58.13,0.75,-0.04644553131201655
58.189655,,3.666455743041707e-05,58.593,0.7609999775886536,-0.02182001002997931
58.655172,,3.675498412949906e-05,59.058,0.7870000004768372,0.03543325482873311
59.120689999999996,,3.671834251492602e-05,59.524,0.7749999761581421,0.009827466687312679
59.586207,,3.654927571657915e-05,59.99,0.7480000257492065,-0.0485455567608921
60.051724,,3.6242667421615604e-05,60.454,0.7599999904632568,-0.022054238914211544
60.517241,,3.579367048838269e-05,60.92,0.753000020980835,-0.03707093592738752
60.982758999999994,,3.5197735835810776e-05,61.379,0.7730000019073486,0.00661509560044141
61.448276,,3.445064151715291e-05,61.845,0.7620000243186951,-0.01736055941662696
61.913793,,3.354852188234295e-05,62.313,0.7620000243186951,-0.017494264635031776
62.379310000000004,,3.248789672879026e-05,62.775,0.7829999923706055,0.02800507432879045
62.84482800000001,,3.1265700336139775e-05,63.243,0.781000018119812,0.02328600218580555
63.310345000000005,,2.9879310276424236e-05,63.705,0.7609999775886536,-0.020746966366610504
63.775862000000004,,2.8326575887142708e-05,64.176,0.777999997138977,0.015746337800149016
64.241379,,2.6605846291139682e-05,64.638,0.7720000147819519,0.002064246523164381
64.706897,,2.4715997843754656e-05,65.103,0.7739999890327454,0.005764261873044504
65.172414,,2.2656460884586688e-05,65.568,0.777999997138977,0.013795473742716745
65.637931,,2.0427245668395115e-05,66.034,0.9520000219345093,0.39219591251758285
66.103448,,1.802896734715924e-05,66.498,0.7739999890327454,0.003735219737735311
66.56896599999999,,1.5462869873169778e-05,66.964,0.7599999904632568,-0.027386564372325565
67.03448300000001,,1.2730848691245292e-05,67.428,0.7850000262260437,0.026515133581084063
67.5,,9.835472086780737e-06,67.894,0.7829999923706055,0.021667208746060748
67.965517,,6.780001055363936e-06,68.358,0.7739999890327454,0.0016580897470767296
68.431034,,3.568407559161169e-06,68.824,0.765999972820282,-0.016071451474483092
68.896552,,2.0539103519552703e-07,69.287,0.7620000243186951,-0.024976783247075727
69.362069,,3.3036069789586157e-06,69.749,0.7799999713897705,0.014163107361957744
69.827586,,6.952390235645423e-06,70.22,0.777999997138977,0.009848020346299488
70.293103,,1.0733997315931285e-05,70.683,0.7590000033378601,-0.03138794108451937
70.75862099999999,,1.4640693446969123e-05,71.148,0.777999997138977,0.010275431207314507
71.22413800000001,,1.8663964725659304e-05,71.611,0.7580000162124634,-0.0329263121661584
71.689655,,2.279451487328961e-05,72.077,0.8360000252723694,0.13747111151097133
72.15517200000001,,2.7022264642207013e-05,72.545,0.781000018119812,0.018186749074034222
72.62069,,3.133635399135596e-05,73.011,0.777999997138977,0.01225311860127554
73.086207,,3.5725147142701514e-05,73.475,0.7749999761581421,0.006360455021509715
73.551724,,4.0176240625131694e-05,73.941,0.7609999775886536,-0.023476841371586864
74.017241,,4.467647440639543e-05,74.399,0.7580000162124634,-0.029349751372987273
74.482759,,4.921194620697527e-05,74.865,0.7860000133514404,0.03229412212853026
74.94827599999999,,5.376802908251453e-05,75.335,0.7680000066757202,-0.006320317899185643
75.41379300000001,,5.832939235351578e-05,75.797,0.7829999923706055,0.026901797952548566
75.87931,,6.288002595250236e-05,76.259,0.7789999842643738,0.018654206995491546
76.344828,,6.740326824969143e-05,76.729,0.777999997138977,0.016853019153300522
76.810345,,7.18818374084705e-05,77.191,0.7789999842643738,0.019307868624630214
77.275862,,7.629786631160906e-05,77.66,0.7450000047683716,-0.05460012144702527
77.741379,,8.063294108818203e-05,78.126,0.878000020980835,0.23521241829529146
78.206897,,8.48681432596471e-05,78.59,0.7839999794960022,0.030358733573405672
78.67241399999999,,8.898409551141795e-05,79.055,0.7789999842643738,0.019293073894542476
79.137931,,9.296101108363085e-05,79.52,0.7860000133514404,0.03426297195712325
79.603448,,9.677874676163197e-05,79.986,0.7590000033378601,-0.024941189943642587
80.068966,,0.00010041685943304346,80.451,0.8519999980926514,0.17720533571457311
80.53448300000001,,0.00010385466616412283,80.909,0.7910000085830688,0.04376899262881755
81.0,,0.00010707130773354396,81.377,0.7549999952316284,-0.035256707601964934
81.465517,,0.00011004581554673116,81.842,0.777999997138977,0.014218615521449785
81.931034,,0.00011275718183850604,82.305,0.7590000033378601,-0.027829290249983454
82.396552,,0.00011518443305609814,82.775,0.7649999856948853,-0.015410992009560559
82.86206899999999,,0.00011730670629856646,83.239,0.7789999842643738,0.014456893652553387
83.327586,,0.00011910332867242362,83.701,0.7490000128746033,-0.05149567840624565
83.79310299999999,,0.00012055389940679615,84.165,0.781000018119812,0.017686140762877778
84.258621,,0.00012163837455483976,84.635,0.7820000052452087,0.01940528516379392
84.72413800000001,,0.00012233715409141246,85.101,0.7789999842643738,0.012500217634392312
85.189655,,0.00012263117120024503,85.564,0.7820000052452087,0.018769038528806577
85.65517200000001,,0.00012250198352709523,86.03,0.7570000290870667,-0.03585444068382502
86.12069,,0.00012193186615868848,86.495,0.7630000114440918,-0.022825787719065047
86.586207,,0.00012090390607069649,86.96,0.7689999938011169,-0.009681684425626542
87.051724,,0.00011940209777165065,87.425,0.9279999732971191,0.3369124345438191
87.517241,,0.0001174114398535962,87.89,0.7739999890327454,0.001703527274286244
87.98275899999999,,0.00011491803214453271,88.353,0.7870000004768372,0.030431142715776863
88.448276,,0.00011190917314232794,88.816,0.7799999713897705,0.01567255717781935
88.913793,,0.00010837345739490731,89.284,0.7839999794960022,0.024950695677775924
89.37931,,0.00010430087247718182,89.746,0.7919999957084656,0.04299746498107276
89.844828,,9.968289520145933e-05,90.209,0.7789999842643738,0.01532734926835231
90.310345,,9.451258668506174e-05,90.679,0.7599999904632568,-0.025400929249831304
90.775862,,8.87846858866198e-05,91.144,0.777999997138977,0.01447306188686455
91.241379,,8.249570121111503e-05,91.607,0.7559999823570251,-0.032827360207833604
91.706897,,7.564399977326073e-05,92.073,0.7620000243186951,-0.01917387246080133
92.17241399999999,,6.822989389933812e-05,92.539,0.777999997138977,0.016199615224118634
92.63793100000001,,6.02557244392063e-05,93.004,0.7620000243186951,-0.01822543234414098
93.103448,,5.172594045296037e-05,93.469,0.7620000243186951,-0.017887691401617924
93.568966,,4.2647174830697195e-05,93.935,0.7829999923706055,0.028095816047289217
94.03448300000001,,3.302831539913553e-05,94.394,0.7770000100135803,0.015143748206484257
94.5,,2.2880571065499513e-05,94.86,0.6859999895095825,-0.18311080233266347
94.965517,,1.221753254718176e-05,95.328,0.8130000233650208,0.09346210889614644
95.431034,,1.0552272353232406e-06,95.79,0.777999997138977,0.016981820068487825
95.896552,,1.0587832258352926e-05,96.258,0.7789999842643738,0.0188295058731615
96.36206899999999,,2.2690606319274567e-05,96.72,0.7599999904632568,-0.022989595713140173
96.827586,,3.5229493755597184e-05,97.191,0.734000027179718,-0.08014075033855965
97.293103,,4.817830486859906e-05,97.653,0.7620000243186951,-0.019711326015925335
97.758621,,6.150824259675714e-05,98.119,0.7770000100135803,0.012348146004895474
98.224138,,7.518789215239526e-05,98.583,0.7870000004768372,0.03348769429574075
98.689655,,8.918321955792371e-05,99.048,0.765999972820282,-0.01291704614970659
99.155172,,0.0001034575794748766,99.514,0.7820000052452087,0.02130236899701054
99.62069,,0.00011797173270316763,99.979,0.7839999794960022,0.025054737871854225
100.086207,,0.0001326838737101977,100.446,0.7599999904632568,-0.02778480849326232
100.551724,,0.0001475496685296383,100.904,0.7599999904632568,-0.028267693133948512
101.017241,,0.000162522303347869,101.369,0.7599999904632568,-0.02866703299872943
101.482759,,0.00017755254407215512,101.834,0.777999997138977,0.010245477255720609
101.948276,,0.00019258880714871242,102.302,0.7749999761581421,0.0035123103050033406
102.413793,,0.0002075772418708255,102.764,0.7760000228881836,0.005606063529145803
102.87931,,0.00022246182438717907,103.235,0.7789999842643738,0.012171530256779297
103.344828,,0.0002371844635885474,103.697,0.7689999938011169,-0.009472002170888734
103.810345,,0.0002516851190169973,104.168,0.7570000290870667,-0.03536473793161343
104.275862,,0.00026590193090583123,104.631,0.7730000019073486,-0.0001558409193076933
104.741379,,0.00027977136242067735,105.089,0.781000018119812,0.017712880669021217
105.206897,,0.0002932283541324771,105.554,0.781000018119812,0.018227954440579446
105.672414,,0.0003062064907116927,106.02,0.7630000114440918,-0.0204135629602024
106.13793100000001,,0.0003186381797899313,106.487,0.6460000276565552,-0.2747031537622988
106.603448,,0.0003304548428904441,106.952,0.7620000243186951,-0.021351080831770692
107.068966,,0.00034158711828269404,107.416,0.765999972820282,-0.012008677084482671
107.534483,,0.0003519650755685056,107.882,0.7839999794960022,0.027817386060463738
108.0,,0.0003615184417583196,108.35,0.7730000019073486,0.0044268666228674805
108.46551699999999,,0.00037017683854589765,108.813,0.925000011920929,0.3361054677163281
108.931034,,0.00037787003043858713,109.276,0.7820000052452087,0.025018474112835636
109.396552,,0.00038452818334811005,109.746,0.7630000114440918,-0.015997200375841993
109.862069,,0.0003900821331939216,110.209,0.7739999890327454,0.008250271050262277
110.32758600000001,,0.000394463664017662,110.672,0.7630000114440918,-0.015537735880176347
110.793103,,0.00039760579505326296,111.137,0.781000018119812,0.023744312006194496
111.258621,,0.0003994430761430451,111.6,0.753000020980835,-0.03730441897107665
111.724138,,0.0003999118908358438,112.066,0.777999997138977,0.01700347859604719
112.189655,,0.0003989507664490197,112.531,0.7789999842643738,0.018917456688874384
112.655172,,0.00039650069032234387,112.997,0.7620000243186951,-0.01848205149888948
113.12069,,0.00039250543143841627,113.461,0.7739999890327454,0.0072121157809082745
113.586207,,0.00038691186653168927,113.927,0.777999997138977,0.01540444874172018
114.051724,,0.000379670309756551,114.394,0.7599999904632568,-0.024389904381094195
114.51724100000001,,0.0003707348449345065,114.86,0.7760000228881836,0.009851326623990655
114.982759,,0.0003600636593515127,115.32,0.7820000052452087,0.02228706776507148
115.448276,,0.00034761937802922074,115.79,0.7580000162124634,-0.030635512137532177
115.913793,,0.00033336939734849284,116.253,0.777999997138977,0.012322967169796513
116.37931,,0.00031728621686034653,116.716,0.753000020980835,-0.04271803966638152
116.84482799999999,,0.00029934776807868365,117.18,0.7789999842643738,0.013409519181097871
117.310345,,0.00027953773901104735,117.649,0.7739999890327454,0.0020732833257498446
117.77586199999999,,0.00025784589314846527,118.115,0.777999997138977,0.010433441690001426
118.241379,,0.0002342683816034314,118.579,0.7820000052452087,0.018893428901080662
118.70689700000001,,0.00020880804705650794,119.045,0.7570000290870667,-0.035719770062679373
119.172414,,0.00018147471814715876,119.509,0.7950000166893005,0.047033962225305745
119.63793100000001,,0.00015228549292351854,119.975,0.7799999713897705,0.014433133929162534
120.103448,,0.0001212650099490876,120.439,0.765999972820282,-0.015877580111428532
120.568966,,8.844570565202341e-05,120.904,0.7639999985694885,-0.0199398760861034
121.034483,,5.386805649502214e-05,121.369,0.7760000228881836,0.00659415918871515
121.5,,1.7580804541065243e-05,121.835,0.7480000257492065,-0.05393487865505822
121.96551699999999,,2.0358835007181245e-05,122.298,0.7950000166893005,0.04900297379465684
122.431034,,5.988498570870841e-05,122.76,0.7760000228881836,0.00820220566402229
122.896552,,0.00010092294262752673,123.224,0.7799999713897705,0.017544123853516107
123.362069,,0.00014338902730061517,123.694,0.7630000114440918,-0.01885168380211566
123.827586,,0.00018719046628800533,124.165,0.7620000243186951,-0.020396124777641047
124.293103,,0.000232225294630873,124.62,0.7559999823570251,-0.03286123158172663
124.758621,,0.0002783822855059637,125.085,0.7820000052452087,0.024344519319796892
125.22413800000001,,0.0003255409073222688,125.55,0.7860000133514404,0.033557276422743754
125.68965500000002,,0.0003735713094574627,126.016,0.7649999856948853,-0.011774321298288239
126.15517200000001,,0.00042233433777397075,126.483,0.7480000257492065,-0.04848344087313683
126.62069000000001,,0.00047168158098717097,126.949,0.8050000071525574,0.07592482291020787
127.086207,,0.000521455448887232,127.414,0.7789999842643738,0.019396891043901996
127.55172400000001,,0.000571489283347177,127.879,0.777999997138977,0.01722330648756194
128.017241,,0.0006216075029749084,128.342,0.8510000109672546,0.17615837704657125
128.48275900000002,,0.0006716257821679161,128.805,0.7910000085830688,0.045226418663961473
128.948276,,0.0007213512652082504,129.273,0.7820000052452087,0.0253042790811463
129.413793,,0.000770582815931201,129.735,0.7549999952316284,-0.033927300209912074
129.87931,,0.0008191113034412196,130.206,0.7699999809265137,-0.0017378029450131926
130.344828,,0.0008667199242744022,130.668,0.7739999890327454,0.006419619895479123
130.81034499999998,,0.0009131845612158929,131.134,0.7749999761581421,0.0079917325504281
131.275862,,0.0009582741787119661,131.597,0.7590000033378601,-0.027503801636547767
131.741379,,0.0010017512547124297,132.062,0.7850000262260437,0.028492956281355203
132.206897,,0.0010433722489527348,132.527,0.7789999842643738,0.014782621216502187
132.67241399999997,,0.001082888107729813,132.993,0.7559999823570251,-0.03593503388526289
133.13793099999998,,0.001120044804584164,133.458,0.7620000243186951,-0.023423891033566086
133.60344800000001,,0.0011545839153662705,133.923,0.7839999794960022,0.0240112151543378
134.06896600000002,,0.001186243226397907,134.39,0.7609999775886536,-0.02651083435599786
134.53448300000002,,0.0012147573761952556,134.856,0.7829999923706055,0.021101481756191594
135.0,,0.0012398585317847889,135.316,0.7910000085830688,0.03831861857540498
135.465517,,0.0012612770971150921,135.779,0.7760000228881836,0.00554011285902398
135.931034,,0.0012787424467215808,136.25,0.7770000100135803,0.007736248950678894
136.396552,,0.0012919836812109399,136.712,0.7639999985694885,-0.020453101956337
136.862069,,0.0013007304124083231,137.176,0.7110000252723694,-0.13567803605404088
137.327586,,0.0013047135876108763,137.646,0.7820000052452087,0.0193515868916855
137.793103,,0.0013036663400977258,138.104,0.7749999761581421,0.0045398343025028765
138.258621,,0.001297324831589874,138.569,0.7739999890327454,0.0028810760761249967
138.724138,,0.0012854290806988895,139.035,0.7590000033378601,-0.02921411349686925
139.189655,,0.0012677238377593841,139.502,0.7570000290870667,-0.03294077418548094
139.655172,,0.0012439595607176624,139.968,0.7770000100135803,0.011289376799721473
140.12069,,0.001213893405378674,140.435,0.7609999775886536,-0.02290517611550596
140.586207,,0.0011772900419608598,140.9,0.7739999890327454,0.006067293750771413
141.05172399999998,,0.0011339223194158684,141.365,0.781000018119812,0.021934065553901146
141.51724099999998,,0.001083572174175437,141.831,0.7289999723434448,-0.09079322438488081
141.982759,,0.0010260320481789943,142.294,0.7760000228881836,0.012093760049961657
142.44827600000002,,0.0009611062040894963,142.757,0.7620000243186951,-0.018004123795118693
142.913793,,0.0008886108968412494,143.22,0.7820000052452087,0.0258727908463966
143.37931,,0.0008083738216246455,143.69,0.7820000052452087,0.02606824638144225
143.844828,,0.0007202353052386532,144.149,0.777999997138977,0.017434413746921028
144.310345,,0.0006240523361839354,144.619,0.7900000214576721,0.04354149207545953
144.77586200000002,,0.0005197012258483982,145.085,0.7760000228881836,0.012886863920078052
145.241379,,0.0004070732831235719,145.549,0.7860000133514404,0.034407159484137965
145.706897,,0.0002860676643065204,146.015,0.7620000243186951,-0.018251804219923833
146.172414,,0.0001565962604636323,146.48,0.7879999876022339,0.03792715837028864
146.637931,,1.860391081682493e-05,146.939,0.7789999842643738,0.017773384274443523
147.103448,,0.0001279240039536957,147.405,0.7519999742507935,-0.04166001127051748
147.568966,,0.0002829956517911982,147.871,0.777999997138977,0.014329034531639369
148.034483,,0.00044665425069682294,148.339,0.7820000052452087,0.022362364385156746
148.5,,0.0006189398901083655,148.801,0.7799999713897705,0.01731988212159769
148.965517,,0.0007997726805172805,149.269,0.777999997138977,0.012294843880063825
149.43103399999998,,0.0009889371254814302,149.731,0.7590000033378601,-0.02972970267943107
149.89655199999999,,0.0011863091499723535,150.199,0.7680000066757202,-0.010695427441653426
150.362069,,0.0013920687047362732,150.661,0.7789999842643738,0.012770937948719235
150.82758600000003,,0.0016064020590622796,151.127,0.6700000166893005,-0.22511130016792558
151.293103,,0.0018288268455773087,151.59,0.777999997138977,0.00987373486060826
151.758621,,0.0020582656759290706,152.056,0.7580000162124634,-0.03389590116164471
152.224138,,0.0022944927735238964,152.521,0.7609999775886536,-0.02743621022330847
152.68965500000002,,0.002539136773510469,152.986,0.765999972820282,-0.016495635526460245
153.155172,,0.0027935063916895587,153.453,0.7570000290870667,-0.03593307413971082
153.62069,,0.003054794542283682,153.919,0.7730000019073486,-0.0007859196252071794
154.086207,,0.0033175221261932675,154.384,0.7820000052452087,0.019221739762496495
154.551724,,0.0035824959485982865,154.849,0.7760000228881836,0.006649528497240834
155.017241,,0.003860986673317457,155.31,0.7760000228881836,0.007234083105026784
155.482759,,0.004159643093409615,155.779,0.765999972820282,-0.013900983585620667
155.948276,,0.004459869015474985,156.242,0.777999997138977,0.012941386318129917
156.413793,,0.004732394337295462,156.705,0.7580000162124634,-0.029907587742660523
156.87931,,0.004991306290266554,157.176,0.7620000243186951,-0.020466377430981376
157.34482799999998,,0.005307186222936969,157.638,0.777999997138977,0.015098664043743631
157.81034499999998,,0.005706473564178006,158.104,0.7459999918937683,-0.0539533206191352
158.275862,,0.006064156247598247,158.569,0.7599999904632568,-0.022850911309743573
158.741379,,0.006225211702841989,159.034,0.7630000114440918,-0.015796163171677435
159.20689700000003,,0.006322945044979998,159.494,0.5669999718666077,-0.4423951958767613
159.672414,,0.006785518978983924,159.96,0.777999997138977,0.01759698267022678
160.137931,,0.007686132408924017,160.428,0.8109999895095825,0.08966561727979289
160.60344800000001,,0.008177211552886567,160.894,0.777999997138977,0.017818354384167137
161.06896600000002,,0.007222946256947255,161.354,0.7789999842643738,0.01991747498607034
161.534483,,0.005108709248906595,161.823,0.7789999842643738,0.01971164773472379
162.0,,0.003333157622186164,162.291,0.5709999799728394,-0.4337776591628622
162.465517,,0.002408165463694975,162.753,0.7609999775886536,-0.020283513520364314
162.931034,,0.0008112602829508266,163.216,0.777999997138977,0.016202543117948755
163.396552,,0.002773015944241561,163.679,0.7580000162124634,-0.028002548330466105
163.862069,,0.006919778656182534,164.145,0.7820000052452087,0.023591178827503938
164.327586,,0.008551261172048645,164.615,0.7630000114440918,-0.0185371278833428
164.793103,,0.0065287928662646115,165.08,0.781000018119812,0.019927138451214882
165.258621,,0.0030390255960883452,165.539,0.7070000171661377,-0.1420396566872596
165.72413799999998,,0.0009379305691819221,166.005,0.7720000147819519,-0.0011476227121604108
166.189655,,0.0006709385307052277,166.472,0.7599999904632568,-0.027961827100257703
166.655172,,0.0007974063717676056,166.937,0.777999997138977,0.01065533754039425
167.12069,,0.0007439506854429384,167.402,0.9359999895095825,0.3543773170231688
167.58620699999997,,0.0014304786218575294,167.867,0.7839999794960022,0.0228311266310716
168.051724,,0.0033833645444716664,168.335,0.7760000228881836,0.005132842553521142
168.517241,,0.005866026851017989,168.798,0.7590000033378601,-0.0320463763428626
168.98275900000002,,0.008116169704933295,169.261,0.7760000228881836,0.004979423210592004
169.44827600000002,,0.010078234312402496,169.724,0.7699999809265137,-0.007972514330820668
169.913793,,0.011508160559596753,170.191,0.7490000128746033,-0.053476766042712905
170.37931,,0.011534960669342158,170.661,0.7820000052452087,0.018785274352732247
170.844828,,0.0097147363947518,171.119,0.7749999761581421,0.004010020079332979
171.310345,,0.006711270875396435,171.59,0.7770000100135803,0.008937215507032335
171.775862,,0.003525742733246293,172.056,0.7649999856948853,-0.016560169681189237
172.241379,,0.0008565306690938556,172.521,0.8479999899864197,0.16497204987707748
172.706897,,0.0005024261659907339,172.979,0.7620000243186951,-0.021649972329610228
173.172414,,0.0003215988853381029,173.446,0.7580000162124634,-0.02961010755952131
173.637931,,0.003210786911652271,173.911,0.7940000295639038,0.049564091238344966
174.103448,,0.006644959977275966,174.376,0.781000018119812,0.021950806588089126
174.568966,,0.008907463124592918,174.842,0.7599999904632568,-0.023147459976552383
175.034483,,0.009347953419804478,175.305,0.7760000228881836,0.01228773461398134
175.5,,0.00820133944277249,175.776,0.8270000219345093,0.12388222040359159
175.96551699999998,,0.005699587456774487,176.239,0.7570000290870667,-0.028247254737490055
176.43103399999998,,0.0020002365799180223,176.701,0.765999972820282,-0.008384172079881614
176.896552,,0.002013495663392008,177.165,0.7620000243186951,-0.016972885277944376
177.36206900000002,,0.004483200901782533,177.635,0.7820000052452087,0.026592717825932217
177.827586,,0.0038746042225216502,178.1,0.7599999904632568,-0.021477563153372573
178.293103,,0.0007055681010959756,178.565,0.765999972820282,-0.008674292679239385
178.758621,,0.0026106106860846515,179.03,0.7639999985694885,-0.013420625149686703
179.224138,,0.004025309290646364,179.494,0.7599999904632568,-0.02263277358705691
179.68965500000002,,0.003479279383963176,179.96,0.7820000052452087,0.024707267806221313
180.155172,,0.00202904107663275,180.424,0.7919999957084656,0.04583002499533764
180.62069,,0.00020969473290981052,180.889,0.7770000100135803,0.012434293741872967
181.086207,,0.002001203503081987,181.35,0.7760000228881836,0.009509164004643127
181.551724,,0.004176909434802929,181.821,0.8040000200271606,0.06975768865751568
182.01724099999998,,0.005354720630348082,182.283,0.777999997138977,0.012375847791464738
182.482759,,0.005005027865177026,182.745,0.7519999742507935,-0.04496741246962337
182.948276,,0.003629918393478578,183.213,0.7590000033378601,-0.03035630753980529
183.413793,,0.0022580989275572958,183.675,0.7580000162124634,-0.03309606688217411
183.87931,,0.0014234551988380971,184.141,0.7820000052452087,0.018726652368072787
184.34482799999998,,0.0006764793073721408,184.604,0.7649999856948853,-0.018663970803891417
184.81034499999998,,0.0007816478464698007,185.069,0.7739999890327454,0.0007126085865650776
185.27586200000002,,0.0029043051836932714,185.538,0.781000018119812,0.015861582954155972
185.74137900000002,,0.004480020755263476,186.004,0.8429999947547913,0.1509705742539747
186.206897,,0.004279502160460667,186.468,0.765999972820282,-0.016618256717089556
186.672414,,0.002349825941810109,186.934,0.7839999794960022,0.022892437067963727
187.137931,,0.00014083592945772245,187.398,0.7900000214576721,0.036377301482907055
187.60344800000001,,0.002175448765572825,187.864,0.7829999923706055,0.021644972602497172
188.06896600000002,,0.003628711741056687,188.324,0.7870000004768372,0.03096699451235837
188.534483,,0.004837707901562632,188.794,0.7559999823570251,-0.03589417090520731
189.0,,0.005850315846502672,189.257,0.777999997138977,0.012760940638829437
189.465517,,0.006248519156208586,189.72,0.7609999775886536,-0.023526199024354596
189.931034,,0.005595019872677217,190.187,0.7599999904632568,-0.02495329999855936
190.39655199999999,,0.003960315675311676,190.649,0.7919999957084656,0.0454935037988291
190.862069,,0.0019857893358688258,191.115,0.7739999890327454,0.006964532637029085
191.327586,,0.00043380165618584843,191.579,0.7760000228881836,0.011944039784153412
191.793103,,0.0002855719471167486,192.045,0.7620000243186951,-0.018019286028194463
192.25862099999998,,0.00017848229720445773,192.51,0.753000020980835,-0.037191020803455266
192.72413799999998,,0.0005522052856922893,192.976,0.7799999713897705,0.02195335347382526
193.189655,,0.0016827874229221015,193.443,0.7910000085830688,0.04611559701933722
193.655172,,0.0030970151358502953,193.909,0.7829999923706055,0.028754254928370304
194.12069000000002,,0.0048597368902000785,194.376,0.781000018119812,0.02433364995809954
194.586207,,0.0069262650214338885,194.834,0.765999972820282,-0.00853924191838119
195.051724,,0.008605702191168976,195.302,0.777999997138977,0.01728755407681166
195.517241,,0.008649147510871357,195.764,0.7570000290870667,-0.02889536052855962
195.98275900000002,,0.00637518027128917,196.235,0.7599999904632568,-0.022892191361134104
196.448276,,0.002800383825215666,196.697,0.7879999876022339,0.03749280472841711
196.913793,,0.0002637772405935453,197.168,0.7870000004768372,0.03463285204165427
197.37931,,0.000484023776354272,197.631,0.7789999842643738,0.01647967712118732
197.844828,,0.0029372396998722673,198.089,0.7730000019073486,0.002663317010697499
198.310345,,0.005421736341039676,198.561,0.7559999823570251,-0.035116418476493175
198.775862,,0.006256589257578889,199.019,0.7620000243186951,-0.022762843886781035
199.241379,,0.00558721609303062,199.484,0.7649999856948853,-0.01689889479580836
199.706897,,0.004504254751718489,199.95,0.777999997138977,0.010819483781579035
200.172414,,0.0035646223039388207,200.416,0.7699999809265137,-0.0071268511342312876
200.63793099999998,,0.0026502490967141284,200.881,0.7770000100135803,0.007709758783487243
201.103448,,0.0016704181533918037,201.35,0.7609999775886536,-0.02744693560688951
201.568966,,0.0007156661463335094,201.812,0.7609999775886536,-0.027620632058346053
202.034483,,7.356338461754442e-05,202.276,0.777999997138977,0.009372697472569247
202.5,,0.0003418283641774028,202.745,0.7789999842643738,0.011639532333899878
202.965517,,0.00017112400826957002,203.206,0.7519999742507935,-0.046966731471938576
203.431034,,0.0008028050911161211,203.675,0.7739999890327454,0.0013026147119247354
203.896552,,0.0002560805617247012,204.134,0.7789999842643738,0.012646515635885687
204.36206900000002,,0.0018407991876576047,204.604,0.7850000262260437,0.02626752552516374
204.827586,,0.004303140223110936,205.069,0.777999997138977,0.011647424231617916
205.293103,,0.00564229716359887,205.535,0.7599999904632568,-0.026876389230410774
205.758621,,0.005547137364745832,206.0,0.8309999704360962,0.12853991622805164
206.224138,,0.005048773253655088,206.464,0.777999997138977,0.013822689938146417
206.689655,,0.0054383790221536115,206.93,0.7820000052452087,0.023283254105053143
207.155172,,0.006850528811822802,207.394,0.7820000052452087,0.023999835456336212
207.62069,,0.007865323506687257,207.86,0.765999972820282,-0.01019408989364718
208.086207,,0.0070134042065559945,208.324,0.7739999890327454,0.007826334266473767
208.551724,,0.004773544334985668,208.786,0.7590000033378601,-0.024354344397692226
209.01724099999998,,0.00335946196123898,209.25,0.7839999794960022,0.030503096921414802
209.482759,,0.004142374287072165,209.719,0.7889999747276306,0.04166829748956301
209.948276,,0.0058052619323727605,210.18,0.7590000033378601,-0.02354691554958058
210.413793,,0.005565604594766266,210.65,0.7820000052452087,0.026573285924420032
210.87930999999998,,0.002126024131381699,211.116,0.7609999775886536,-0.019300587965373456
211.344828,,0.0028977451007599093,211.579,0.7860000133514404,0.03491397766895571
211.810345,,0.006507434800224428,212.045,0.7649999856948853,-0.011211044658002003
212.27586200000002,,0.0069486403492879665,212.51,0.7799999713897705,0.020985350174636982
212.741379,,0.004600789209925462,212.976,0.7730000019073486,0.005156698008013259
213.206897,,0.0007963350723037602,213.435,0.7129999995231628,-0.12621833539082353
213.672414,,0.0032950084425233295,213.901,0.7839999794960022,0.02775123996142967
214.137931,,0.0065476656474272145,214.366,0.7799999713897705,0.018287642157329045
214.60344800000001,,0.007769069608336672,214.831,0.7590000033378601,-0.028223077804606842
215.068966,,0.006585978001074497,215.294,0.777999997138977,0.012425284893412599
215.534483,,0.004050458774942608,215.764,0.8840000033378601,0.2426551218849416
216.0,,0.0016958653262578022,216.227,0.8569999933242798,0.1831895400510805
216.465517,,0.00034306943650997215,216.69,0.7689999938011169,-0.009089335224899677
216.93103399999998,,0.00030949939871598663,217.156,0.777999997138977,0.010058649739353547
217.39655199999999,,0.0018228031401488376,217.621,0.7889999747276306,0.0336747683438124
217.862069,,0.004062571983595804,218.087,0.7630000114440918,-0.023197367615718997
218.327586,,0.004740713944647382,218.554,0.7620000243186951,-0.025475605019090374
218.793103,,0.0024263758392764605,219.02,0.7760000228881836,0.005056238965650575
219.25862099999998,,0.0010776978200057867,219.48,0.7680000066757202,-0.012212606564375382
219.724138,,0.002474457089700201,219.945,0.7870000004768372,0.02946693891375867
220.18965500000002,,0.0011324747595202304,220.413,0.7879999876022339,0.032047239969694954
220.65517200000002,,0.00020931606151144316,220.878,0.7789999842643738,0.012945175632365826
221.12069,,0.0006360784572940252,221.342,0.7820000052452087,0.020074993143238705
221.586207,,0.0023046561341603018,221.805,0.7570000290870667,-0.033728376859497367
222.051724,,0.0019516361177568731,222.272,0.7620000243186951,-0.02212477562875405
222.517241,,0.0006645566642327549,222.735,0.7820000052452087,0.0221841131113637
222.98275900000002,,0.0026247464794101182,223.205,0.7620000243186951,-0.02064965284809297
223.448276,,0.001362823926470968,223.668,0.7789999842643738,0.017106768334228358
223.913793,,0.002253011188821469,224.133,0.6299999952316284,-0.30683693298695913
224.37931,,0.0048117208606871815,224.596,0.7630000114440918,-0.016469509994578125
224.844828,,0.00389642801507593,225.062,0.7699999809265137,-0.0006961144328163471
225.31034499999998,,0.00026186188414424865,225.53,0.7519999742507935,-0.03948636550106767
225.775862,,0.003223326155575666,225.989,0.7630000114440918,-0.015206210514828926
226.241379,,0.00415124348732539,226.46,0.7710000276565552,0.0024183794401634344
226.706897,,0.0021436259739986674,226.919,0.7739999890327454,0.009025008565304117
227.172414,,0.0013572016421318322,227.384,0.7820000052452087,0.026399054665545804
227.63793099999998,,0.004322055397586107,227.849,0.7590000033378601,-0.023889016428839383
228.103448,,0.005321926359423102,228.32,0.7559999823570251,-0.03072302315867869
228.56896600000002,,0.003993967094686861,228.783,0.7850000262260437,0.032050467514196136
229.03448300000002,,0.0008934074945483936,229.246,0.7429999709129333,-0.05995674865548899
229.5,,0.0027239539600670075,229.709,0.7829999923706055,0.026604455221498197
229.965517,,0.005151017443045826,230.179,0.7649999856948853,-0.013258543182411302
230.431034,,0.004934883010116086,230.642,0.7860000133514404,0.031803813643543684
230.896552,,0.0018316508489285843,231.108,0.7599999904632568,-0.02555134348090055
231.362069,,0.0029250446220003075,231.573,0.7599999904632568,-0.026261290792309367
231.827586,,0.007392020822280058,232.038,0.800000011920929,0.060196996456914266
232.293103,,0.0099108336038914,232.505,0.7609999775886536,-0.025414214371759343
232.758621,,0.009621268502560513,232.97,0.7850000262260437,0.0262928102462809
233.224138,,0.0068094369418468265,233.436,0.777999997138977,0.010542225689281922
233.689655,,0.003152246881033514,233.894,0.777999997138977,0.01013808595398416
234.155172,,0.0008551095897614987,234.366,0.7580000162124634,-0.03373169080161968
234.62069,,0.0007218224334778569,234.824,0.7630000114440918,-0.023019976163392856
235.086207,,0.001389818213963975,235.294,0.7599999904632568,-0.029617287526961356
235.55172399999998,,0.0010029971660197345,235.757,0.7699999809265137,-0.007770284253622016
236.01724099999998,,0.0007862822458153415,236.22,0.7680000066757202,-0.011947084855588746
236.482759,,0.002893980243920806,236.69,0.781000018119812,0.016670231293751094
236.94827600000002,,0.004158810745525321,237.156,0.7680000066757202,-0.011252091419533558
237.413793,,0.003950413174894324,237.614,0.7609999775886536,-0.02601014868552159
237.87931,,0.0021858631077883097,238.08,0.777999997138977,0.011596420686039713
238.344828,,0.00022081813352593956,238.547,0.7620000243186951,-0.02263284528446325
238.810345,,0.0013782711961010236,239.012,0.7739999890327454,0.004180117943501026
239.27586200000002,,9.063930972543417e-05,239.479,0.7839999794960022,0.026655868301928932
239.741379,,0.00245075939526143,239.945,0.7749999761581421,0.007736706045484271
240.206897,,0.0035769889533054326,240.409,0.777999997138977,0.01493971445177367
240.672414,,0.00193499796054848,240.875,0.7580000162124634,-0.02800860084996852
241.137931,,0.001296155514788875,241.338,0.7860000133514404,0.033556706105341554
241.603448,,0.004058718983331216,241.801,0.7590000033378601,-0.02478204421001302
242.068966,,0.0054756604782916106,242.264,0.7889999747276306,0.040969337477958986
242.534483,,0.005890410278276037,242.734,0.7820000052452087,0.02600676789216257
243.0,,0.005580052835943879,243.198,0.7620000243186951,-0.017390923246454235
243.465517,,0.004349330860633405,243.66,0.7789999842643738,0.01970298072559775
243.93103399999998,,0.002491572845777709,244.126,0.7749999761581421,0.010925749409587876
244.39655199999999,,0.0013046290526998,244.59,0.7720000147819519,0.004209997652809126
244.862069,,0.001738389169067888,245.055,0.7580000162124634,-0.026582943141147668
245.327586,,0.002762251630297214,245.52,0.7609999775886536,-0.020442261107540268
245.793103,,0.002254919452153785,245.985,0.7620000243186951,-0.018749833774114825
246.258621,,0.00022426983804542532,246.45,0.7820000052452087,0.02426120338788683
246.724138,,0.002691492286465217,246.916,0.6499999761581421,-0.26394236821554795
247.18965500000002,,0.0032722100869380945,247.383,0.7789999842643738,0.01643877092622205
247.655172,,0.002463332139836061,247.849,0.7559999823570251,-0.034355084201450815
248.12069,,0.002177173118471422,248.309,0.777999997138977,0.012893225539706097
248.586207,,0.0032640124673328774,248.779,0.7760000228881836,0.007878340941876068
249.051724,,0.004710341744098609,249.242,0.7599999904632568,-0.02759308345474826
249.517241,,0.004945352930918708,249.705,0.7820000052452087,0.01978754646700434
249.982759,,0.0034765745230727904,250.176,0.7799999713897705,0.014961070160721257
250.44827600000002,,0.0014439227755371604,250.638,0.7770000100135803,0.00805122467334775
250.913793,,0.0006832485786661939,251.104,0.7639999985694885,-0.020539235906517506
251.37931000000003,,0.001833459987829528,251.569,0.7950000166893005,0.046844894114222595
251.844828,,0.003386959902434315,252.035,0.7820000052452087,0.018487403924453916
252.31034499999998,,0.003375822256385038,252.494,0.7620000243186951,-0.025001174695567296
252.77586200000002,,0.002105183196433682,252.96,0.7870000004768372,0.02966518407139916
253.241379,,0.0020859186139313137,253.425,0.7789999842643738,0.012545735945699237
253.706897,,0.004639225761046629,253.89,0.7570000290870667,-0.034975312296848866
254.172414,,0.007689448033930856,254.364,0.7649999856948853,-0.0170515843349694
254.63793099999998,,0.008135030797511187,254.823,0.753000020980835,-0.04263113541416409
255.10344800000001,,0.005758857089690657,255.29,0.7519999742507935,-0.04419419122162917
255.56896600000002,,0.0033014923094833773,255.753,0.7879999876022339,0.03488567247151729
256.03448299999997,,0.002710263940770206,256.217,0.7730000019073486,0.002868142914991917
256.5,,0.002820448309185373,256.679,0.7749999761581421,0.00788097163180906
256.965517,,0.001359426235636531,257.145,0.7490000128746033,-0.04813571923714176
257.431034,,0.001902126044837641,257.615,0.7789999842643738,0.01780468366708562
257.896552,,0.005016667722835119,258.081,0.7620000243186951,-0.01871581566703222
258.362069,,0.006303221112477003,258.546,0.7549999952316284,-0.03353039022824798
258.827586,,0.005959739999365103,259.004,0.8209999799728394,0.11060356777289213
259.29310300000003,,0.00540100523498403,259.476,0.7990000247955322,0.06291532595410175
259.758621,,0.005694475150694622,259.934,0.7789999842643738,0.019475897676150895
260.224138,,0.006672474146577925,260.399,0.7820000052452087,0.026032293884659538
260.689655,,0.007202536626591389,260.865,0.7609999775886536,-0.019813262463329283
261.155172,,0.006359475901339424,261.335,0.7739999890327454,0.00830373669341532
261.62068999999997,,0.0045362822162944225,261.797,0.7630000114440918,-0.015971950301283788
262.086207,,0.003196257456818884,262.265,0.75,-0.04470072302217246
262.551724,,0.003194673802484258,262.727,0.7879999876022339,0.03759869610474488
263.017241,,0.003556145774407846,263.195,0.7749999761581421,0.008720349122645491
263.482759,,0.002554000900435823,263.657,0.7739999890327454,0.005936735555813284
263.94827599999996,,0.00012176984998171102,264.122,0.7549999952316284,-0.03609352076558112
264.413793,,0.0016127160031937414,264.589,0.7870000004768372,0.0329759778025409
264.87931,,0.0009072758367463054,265.055,0.7580000162124634,-0.030843128533174176
265.34482799999995,,0.0009684848608473909,265.516,0.7580000162124634,-0.03145324281843361
265.810345,,0.0008253339345936249,265.981,0.777999997138977,0.01155642196184171
266.27586199999996,,0.0024938884603903787,266.446,0.7889999747276306,0.03502335725084239
266.741379,,0.006269952228649788,266.912,0.7789999842643738,0.012819717810591283
267.206897,,0.006843370265242925,267.376,0.777999997138977,0.010317437780373615
267.672414,,0.0038727744531983996,267.842,0.7599999904632568,-0.029119207878125858
268.137931,,0.0006171479822476554,268.305,0.7639999985694885,-0.020516876335741608
268.603448,,2.3520309281531773e-05,268.776,0.7749999761581421,0.003447818721217062
269.06896600000005,,0.0016390340937937327,269.239,0.7620000243186951,-0.024763031561799955
269.53448299999997,,0.0028360447273413194,269.701,0.781000018119812,0.01685103797057206
270.0,,0.0021081242393973416,270.165,0.7620000243186951,-0.024222188920352175
270.465517,,0.00024911103521640753,270.635,0.7710000276565552,-0.0042022242579122316
270.931034,,0.0012149585003753721,271.1,0.7609999775886536,-0.025498823337866666
271.396552,,0.0017519842384932285,271.564,0.7580000162124634,-0.03148234985804822
271.86206899999996,,0.0019113197551667049,272.03,0.7730000019073486,0.0017948442861493155
272.327586,,0.002261175291640806,272.495,0.781000018119812,0.01984885624847194
272.793103,,0.0025450569498549616,272.96,0.7699999809265137,-0.003483228378415099
273.258621,,0.0019293828834168717,273.421,0.7730000019073486,0.0036745057965625965
273.724138,,1.5407571264068612e-05,273.886,0.7570000290870667,-0.030593036758604593
274.18965499999996,,0.002674501373741594,274.354,0.7739999890327454,0.0069853503320474325
274.655172,,0.00530321316650327,274.816,0.7620000243186951,-0.018682765809654233
275.12069,,0.0073574186730382225,275.279,0.8080000281333923,0.08193105950552615
275.586207,,0.008410865545807882,275.749,0.7820000052452087,0.02559137743661727
276.051724,,0.007807251330931899,276.213,0.7730000019073486,0.006188499910645081
276.517241,,0.005205111329382894,276.675,0.7789999842643738,0.019358128263588986
276.98275900000004,,0.0012540568064055065,277.141,0.75,-0.04383549302248295
277.448276,,0.002724918934957513,277.61,0.7870000004768372,0.03665133216465991
277.913793,,0.005666520974539318,278.069,0.781000018119812,0.023350562926774985
278.37931,,0.0072104790832655235,278.535,0.7620000243186951,-0.018371095782090858
278.844828,,0.007526567990732705,279.001,0.7770000100135803,0.013892506522873016
279.31034500000004,,0.007017645032463013,279.468,0.7860000133514404,0.033008787290203824
279.77586199999996,,0.006153157457633937,279.934,0.7770000100135803,0.012849591175086985
280.241379,,0.005432014791734196,280.399,0.7599999904632568,-0.02478204320967321
280.706897,,0.005267274400669164,280.864,0.7710000276565552,-0.0014368155882661347
281.172414,,0.0055440461918961365,281.327,0.8140000104904175,0.09161967265108732
281.637931,,0.005383293649786514,281.79,0.7630000114440918,-0.020102080185195083
282.10344799999996,,0.004013149376053925,282.261,0.765999972820282,-0.014144378691638372
282.568966,,0.001975109900545556,282.723,0.8199999928474426,0.10297496749802447
283.034483,,0.0006459024707383385,283.187,0.9390000104904175,0.3617773819948693
283.5,,0.0003734176247199442,283.649,0.7760000228881836,0.006287822198428496
283.965517,,7.149551756084171e-05,284.115,0.7519999742507935,-0.0462758684829216
284.431034,,0.0010396899437843947,284.579,0.7770000100135803,0.008012709728762491
284.89655200000004,,0.0023919721084040904,285.045,0.7879999876022339,0.03190403838528809
285.362069,,0.0032012696913478254,285.512,0.753000020980835,-0.044316340920291714
285.827586,,0.0035483297617098074,285.978,0.7829999923706055,0.021179468553457446
286.293103,,0.003763497230999121,286.443,0.7820000052452087,0.01923731177712968
286.758621,,0.003697233059606981,286.909,0.7450000047683716,-0.06104385519826362
287.22413800000004,,0.0032543062327519703,287.369,0.777999997138977,0.011261745725349995
287.689655,,0.00292472441838047,287.835,0.7599999904632568,-0.02747488473036816
288.155172,,0.0031622780245391694,288.305,0.7570000290870667,-0.03347759106095398
288.62069,,0.0037073901859617816,288.768,0.7940000295639038,0.04770368074553712
289.086207,,0.003966969695399734,289.231,0.7620000243186951,-0.021420355484868023
289.55172400000004,,0.0037114602867450728,289.694,0.7739999890327454,0.00531941464237713
290.01724099999996,,0.0031603056161693755,290.165,0.7850000262260437,0.02986609599601544
290.482759,,0.002760256430737441,290.627,0.7910000085830688,0.04348809612814136
290.948276,,0.0029586258034583145,291.093,0.7609999775886536,-0.021369242437379973
291.413793,,0.003699781349117921,291.557,0.7620000243186951,-0.01875222711590667
291.87931,,0.00414960367036373,292.022,0.7879999876022339,0.03825382462569084
292.344828,,0.0035085779221592883,292.488,0.777999997138977,0.016741731985475242
292.81034500000004,,0.002065267749914419,292.953,0.7599999904632568,-0.02229471098296263
293.275862,,0.0008942950180434272,293.42,0.7739999890327454,0.008284774873315921
293.74137900000005,,0.0006416789338577807,293.879,0.7739999890327454,0.00826042954313384
294.206897,,0.0010909805799081333,294.347,0.7310000061988831,-0.08554804514255875
294.672414,,0.0017243144338846726,294.809,0.7630000114440918,-0.0160569713476329
295.13793100000004,,0.0023033155905618123,295.279,0.7599999904632568,-0.02291029398243053
295.603448,,0.0029565394894710633,295.742,0.781000018119812,0.022443279357667507
296.068966,,0.0036610957645426736,296.205,0.7730000019073486,0.00454807966461289
296.534483,,0.003504412437077453,296.675,0.6330000162124634,-0.3009847577839161
297.0,,0.001074906141873176,297.141,0.7620000243186951,-0.020503861972703822
297.46551700000003,,0.0036643673650641824,297.603,0.781000018119812,0.02030271044160356
297.931034,,0.008396392573315264,298.069,0.7580000162124634,-0.030395998500486077
298.396552,,0.010338472472193567,298.531,0.7599999904632568,-0.02661287324320421
298.862069,,0.008907066023456037,298.996,0.7820000052452087,0.020776626230314284
299.327586,,0.005780879753067336,299.461,0.7710000276565552,-0.003678834564867264
299.79310300000003,,0.0027637199219768824,299.926,0.777999997138977,0.011146710110584858
300.258621,,0.0005192863895467789,300.391,0.746999979019165,-0.05673871636207189
300.724138,,0.0009116203901343373,300.857,0.781000018119812,0.01707577774533543
301.189655,,0.0014754697584125522,301.32,1.0410000085830688,0.5833656118867402
301.65517200000005,,0.0012460731516044708,301.791,0.777999997138977,0.010332331367727772
302.12069,,0.0006300154560052067,302.254,0.7630000114440918,-0.022290117818840556
302.586207,,0.00016190159382686655,302.716,0.777999997138977,0.010544589000501103
303.05172400000004,,0.0002000936683276197,303.184,0.7820000052452087,0.019506493679579056
303.517241,,0.0007726332004376407,303.646,0.7820000052452087,0.019837922805438245
303.982759,,0.0015399357565737289,304.111,0.7609999775886536,-0.02550960890529316
304.448276,,0.0018557578566261678,304.575,0.7620000243186951,-0.022867935765281296
304.913793,,0.0010803732347338516,305.041,0.8019999861717224,0.06478517011475614
305.37931000000003,,0.0007121756531238391,305.505,0.7609999775886536,-0.02400325132661814
305.844828,,0.002253440061060914,305.97,0.7839999794960022,0.02665376501874204
306.310345,,0.002043621279717301,306.435,0.777999997138977,0.014124868276610534
306.775862,,0.0003231467669955168,306.901,0.7570000290870667,-0.03110566669227346
307.241379,,0.0007257463598288496,307.365,0.781000018119812,0.021664776927665913
307.70689699999997,,0.0003019822853423012,307.831,0.7620000243186951,-0.019299055682232294
308.172414,,0.001850314986091134,308.298,0.7620000243186951,-0.01893384272165098
308.637931,,0.0012914908093869053,308.761,0.7710000276565552,0.0009633063227689944
309.103448,,0.0014850485529567979,309.224,0.7590000033378601,-0.024975016691710015
309.568966,,0.0039807868219256075,309.694,0.7760000228881836,0.012178553849576012
310.034483,,0.0043794511477507556,310.165,0.7820000052452087,0.025275918955488003
310.5,,0.0031319192913400818,310.62,0.7099999785423279,-0.13165281094738607
310.96551700000003,,0.001120694302446101,311.085,0.765999972820282,-0.00980417830570496
311.431034,,0.0017349783801038003,311.55,0.7630000114440918,-0.016578882961275587
311.896552,,0.0050991613143713446,312.016,0.7829999923706055,0.026681889369489686
312.362069,,0.007028176264662509,312.483,0.7929999828338623,0.04809438163928181
312.827586,,0.005791697040274515,312.949,0.8119999766349792,0.0890663989136195
313.29310300000003,,0.0024475740432137534,313.409,0.7870000004768372,0.034143664765089815
313.758621,,0.00023324655915877977,313.874,0.7760000228881836,0.009701426939079157
314.224138,,0.0011448338545767926,314.342,0.7599999904632568,-0.02564110808296425
314.689655,,0.003943666864656798,314.805,0.753000020980835,-0.041368692812588294
315.155172,,0.005846142666278783,315.273,0.7990000247955322,0.05839377988771451
315.62068999999997,,0.005463801354974565,315.734,0.7820000052452087,0.020937860557220852
316.086207,,0.003637416270918892,316.206,0.7839999794960022,0.024925339271000626
316.551724,,0.0020174952941500244,316.668,0.7739999890327454,0.002828299311250425
317.017241,,0.0015157829386888292,317.134,0.7680000066757202,-0.010486808734316469
317.482759,,0.0018935675860446556,317.597,0.7789999842643738,0.013308530383095903
317.94827599999996,,0.0023074864055044712,318.062,0.7549999952316284,-0.03907138187140009
318.413793,,0.0022499013083351537,318.53,0.800000011920929,0.05895470147483167
318.87931000000003,,0.0020744777314511825,318.989,0.765999972820282,-0.015053642913330893
319.344828,,0.0023684988507820474,319.461,0.7699999809265137,-0.006197794017481782
319.810345,,0.0028332019479299503,319.919,0.781000018119812,0.017978338237437316
320.275862,,0.0024061439870634764,320.384,0.7720000147819519,-0.0013561098327780595
320.741379,,0.0008732784872033112,320.849,0.7570000290870667,-0.03370962481190464
321.20689699999997,,0.00013614764302604008,321.317,0.7599999904632568,-0.026806197613592268
321.672414,,0.001418853483538083,321.779,0.7870000004768372,0.032414814389137334
322.137931,,0.005323377834391601,322.25,0.765999972820282,-0.012921364621083363
322.603448,,0.008409562480814866,322.712,0.7820000052452087,0.022357816322165786
323.068966,,0.007235096057087361,323.176,0.7789999842643738,0.01623508070239385
323.53448299999997,,0.0016553760472532543,323.645,0.7599999904632568,-0.024766011264620424
324.0,,0.004595703274451586,324.104,0.7699999809265137,-0.0026185033095952512
324.465517,,0.007241682251673346,324.569,0.8619999885559082,0.19813741470678128
324.931034,,0.005438711803363965,325.035,0.777999997138977,0.015403224923161348
325.396552,,0.0022745789823283495,325.502,0.7770000100135803,0.013440123195157586
325.86206899999996,,0.0013710200951424657,325.967,0.7870000004768372,0.035378155752660075
326.327586,,0.0034634271949530054,326.432,0.6230000257492065,-0.32183906796136363
326.793103,,0.006563298752375455,326.898,0.7599999904632568,-0.02335816445609141
327.258621,,0.008707844194907803,327.364,0.753000020980835,-0.038674772632181185
327.724138,,0.009478134494572518,327.83,0.8199999928474426,0.1071632974955198
328.189655,,0.009057547775046507,328.291,0.7580000162124634,-0.028102966109812798
328.655172,,0.0073174099294629836,328.76,0.7820000052452087,0.0239422201277334
329.12068999999997,,0.004647491584639686,329.221,0.7860000133514404,0.03237042217743925
329.586207,,0.002716882817923613,329.69,0.7599999904632568,-0.024595217874246917
330.051724,,0.0030547793130450782,330.157,0.7760000228881836,0.009918116722174257
330.517241,,0.004922951425141784,330.615,0.777999997138977,0.013916994908932421
330.982759,,0.005696723023571455,331.08,0.7739999890327454,0.0048422821670142365
331.44827599999996,,0.003778818833619731,331.546,0.7879999876022339,0.03499270897902572
331.913793,,0.0004676419980843466,332.012,0.781000018119812,0.019411819765229082
332.37931,,0.0015171508099608654,332.48,0.777999997138977,0.012575236767140842
332.844828,,0.0008955571717512471,332.945,0.7559999823570251,-0.03561800991448085
333.310345,,0.001274441308210022,333.405,0.7739999890327454,0.0033790294275976664
333.77586199999996,,0.003193064329623727,333.871,0.7580000162124634,-0.03164807117338797
334.241379,,0.003999467232755846,334.34,0.7770000100135803,0.009631484639490925
334.706897,,0.003701646846203993,334.803,0.7450000047683716,-0.06014395332250799
335.17241399999995,,0.0024076945213576863,335.265,0.7609999775886536,-0.025288153685701243
335.637931,,0.0006926801052269586,335.734,0.7829999923706055,0.022695018675193496
336.103448,,0.00022857449377385435,336.194,0.7509999871253967,-0.046915795764941565
336.56896600000005,,0.002238248543092642,336.664,0.7549999952316284,-0.038047149926220276
337.034483,,0.004828379685967816,337.13,0.7749999761581421,0.005722114041442605
337.5,,0.003934810695163768,337.593,0.7549999952316284,-0.03761860296379369
337.965517,,0.0013584282301591986,338.059,0.7720000147819519,-0.00032120941906500344
338.431034,,0.00613117923883911,338.524,0.7760000228881836,0.008673711275329917
338.89655200000004,,0.004946814606853659,338.99,0.746999979019165,-0.05421583749072169
339.36206899999996,,0.0009629794785451064,339.454,0.7730000019073486,0.0027220304469834297
339.827586,,0.004952774157033566,339.92,0.7170000076293945,-0.11899723763464218
340.293103,,0.003530624573309907,340.38,0.7599999904632568,-0.025047276453886533
340.758621,,0.0004583398643052746,340.846,0.7829999923706055,0.025306169914065958
341.224138,,0.0009376683932746131,341.309,0.7739999890327454,0.005914103940277412
341.68965499999996,,0.0043206196170391745,341.779,0.7860000133514404,0.032239683683861035
342.155172,,0.0051598265337903845,342.242,0.7630000114440918,-0.017726226654812126
342.62069,,0.0005161859406896964,342.705,0.7770000100135803,0.012875534232883946
343.086207,,0.00630320359990134,343.169,0.7870000004768372,0.034718670903600674
343.551724,,0.00969321705574809,343.638,0.7620000243186951,-0.019735284188936546
344.01724099999996,,0.00784094697418856,344.104,1.0299999713897705,0.5641153411336569
344.48275900000004,,0.004003988987407137,344.569,0.7910000085830688,0.043358298003207556
344.948276,,0.0025114640403227266,345.034,0.7730000019073486,0.004048000560657092
345.413793,,0.004538345581900733,345.495,0.7789999842643738,0.0169886977495725
345.87931,,0.007784288388372681,345.96,0.6190000176429749,-0.3317618457963055
346.344828,,0.009333661976162103,346.424,0.7770000100135803,0.012264622381891292
346.81034500000004,,0.008159899246215338,346.89,0.7730000019073486,0.003325592090420964
347.275862,,0.005332553385978552,347.364,0.765999972820282,-0.012164179058795938
347.741379,,0.0028125842000469186,347.823,0.7639999985694885,-0.016768467351972197
348.206897,,0.0021920993374749754,348.291,0.800000011920929,0.061415842957654065
348.672414,,0.003629031206592924,348.753,0.7770000100135803,0.011067902863274677
349.13793100000004,,0.005331978919455595,349.217,0.7860000133514404,0.030451695610061058
349.60344799999996,,0.004745402095600822,349.679,0.7820000052452087,0.021534101921283216
350.068966,,0.001178635581100036,350.145,0.7699999809265137,-0.0047862881148732755
350.534483,,0.0030244586942146908,350.616,0.7480000257492065,-0.052862838171767436
351.0,,0.0047999934611542405,351.074,0.7630000114440918,-0.02029633891742499
351.465517,,0.003624610121434068,351.539,0.7850000262260437,0.027557236377817512
351.93103399999995,,0.0015725157977909171,352.005,0.7409999966621399,-0.06834171760314045
352.396552,,0.00046047284912228894,352.472,0.7820000052452087,0.02098308676521264
352.862069,,0.00031874604097917856,352.938,0.7580000162124634,-0.03126611258454195
353.32758600000005,,0.0007598994549059455,353.402,0.734000027179718,-0.08347933824211917
353.793103,,0.002105582822384004,353.867,0.765999972820282,-0.013655741268029693
354.258621,,0.004195356576498806,354.335,0.7689999938011169,-0.006982863033813936
354.72413800000004,,0.005446763106222308,354.798,0.7749999761581421,0.006252398468215883
355.189655,,0.0045093682976708295,355.261,0.7609999775886536,-0.024063690565409926
355.655172,,0.0020825739201267416,355.731,0.7850000262260437,0.02842512672306998
356.12069,,0.00013565712021348757,356.191,0.777999997138977,0.013386395495736296
356.586207,,0.001620477602184996,356.661,0.7639999985694885,-0.01689828012324849
357.05172400000004,,0.002936727872251788,357.119,0.7649999856948853,-0.014505555856814425
357.517241,,0.004106962035452574,357.59,0.7609999775886536,-0.023014733423839313
357.982759,,0.0043972583797934174,358.055,0.7739999890327454,0.0054988898151617505
358.448276,,0.0035887794314133376,358.515,0.7699999809265137,-0.003043748093707923
358.913793,,0.0025019529174446615,358.98,0.8050000071525574,0.07335794200622803
359.37931000000003,,0.00210089420783457,359.446,0.7829999923706055,0.025550341540429164
359.844828,,0.002422913037498645,359.912,0.7580000162124634,-0.028823164020910088
360.310345,,0.0025090651846747833,360.377,0.7620000243186951,-0.020049542912428803
360.775862,,0.001485061536487449,360.842,0.7789999842643738,0.017011379078839244
361.241379,,0.00035983513503871065,361.305,0.7590000033378601,-0.026572639272742497
361.706897,,0.0020030319352721455,361.775,0.777999997138977,0.014776133866201668
362.172414,,0.0031256273051024357,362.239,0.777999997138977,0.014698067166561756
362.63793100000004,,0.00431984227399799,362.701,0.777999997138977,0.014590352132641945
363.103448,,0.005750406640325416,363.165,0.7850000262260437,0.02970703503662346
363.568966,,0.006559067630572178,363.635,0.7649999856948853,-0.014022294378187304
364.034483,,0.005986398972482008,364.1,0.7799999713897705,0.01848305175076504
364.5,,0.004363674285331935,364.565,0.7770000100135803,0.011759873497022155
364.96551700000003,,0.0025819788556084924,365.024,0.781000018119812,0.020279790662393493
365.431034,,0.0010598461071226087,365.49,0.777999997138977,0.01354722467723292
365.896552,,0.00033859993926120834,365.956,0.7789999842643738,0.01553283746981619
366.362069,,0.001565735676417421,366.421,0.6499999761581421,-0.26569950246092405
366.827586,,0.0020995505239561696,366.886,0.7570000290870667,-0.032761706056335355
367.29310300000003,,0.0017023605910363887,367.354,0.6489999890327454,-0.26822032505398913
367.758621,,0.0011951221918230777,367.816,0.7699999809265137,-0.004749820658515621
368.224138,,0.0019345045010768654,368.283,0.777999997138977,0.012558790502458278
368.689655,,0.004390213206701375,368.746,0.7739999890327454,0.003755163048573779
369.155172,,0.007442282866817565,369.209,0.781000018119812,0.018951252219530087
369.62068999999997,,0.009143887630602721,369.679,0.7620000243186951,-0.022461547539259583
370.086207,,0.008206792560149296,370.145,0.777999997138977,0.012414692758953533
370.55172400000004,,0.004915860955158998,370.607,0.7749999761581421,0.005932724038727124
371.017241,,0.0007017385749080138,371.073,0.765999972820282,-0.013586523734351468
371.482759,,0.0030959549074184253,371.539,0.777999997138977,0.01267773167262037
371.948276,,0.005919032108174817,372.004,0.7649999856948853,-0.015496037876444203
372.413793,,0.007691235744138054,372.469,0.7599999904632568,-0.026217069113427062
372.87931000000003,,0.008354639375965957,372.935,0.7850000262260437,0.028439864653790857
373.344828,,0.007834922733899819,373.394,0.7549999952316284,-0.03671603656483502
373.810345,,0.006256616208538988,373.86,0.8399999737739563,0.14868061079914693
374.275862,,0.004130533981618626,374.324,0.7549999952316284,-0.03629049242777547
374.741379,,0.002200388174984736,374.794,0.777999997138977,0.014027334236450119
375.20689699999997,,0.0007957637044966606,375.254,0.7739999890327454,0.005509265193149371
375.672414,,0.0005713193641653531,375.724,0.7570000290870667,-0.03134955560997068
376.137931,,0.0025409762108761368,376.187,0.7730000019073486,0.0036625906676477785
376.603448,,0.004881839904839975,376.65,0.7620000243186951,-0.02017766155684269
377.068966,,0.006552060383163855,377.116,0.7879999876022339,0.03655951995670017
377.53448299999997,,0.006784916870808297,377.579,0.7630000114440918,-0.017849312103894933
378.0,,0.005769367353331229,378.044,0.7820000052452087,0.023565408237410226
378.465517,,0.004223897950283139,378.51,0.7749999761581421,0.00829765666611795
378.931034,,0.0025957472877682413,378.975,0.7329999804496765,-0.08326054918797465
379.396552,,0.0008667564015660083,379.442,0.5540000200271606,-0.4733348674058912
379.862069,,0.0008967441697613326,379.909,0.7839999794960022,0.027616786866829727
380.327586,,0.002044580286560307,380.369,0.7549999952316284,-0.03573373220703447
380.79310300000003,,0.0018193453418580115,380.834,0.7789999842643738,0.016361250683196667
381.258621,,0.000547353153581168,381.302,0.7599999904632568,-0.025242175803539043
381.724138,,0.00010225499898937419,381.764,0.7820000052452087,0.022469447916006902
382.189655,,0.001286056723594986,382.235,0.777999997138977,0.01353398339363956
382.655172,,0.004099995780118119,382.697,0.7730000019073486,0.0024249393483452507
383.12068999999997,,0.006236579628126297,383.168,0.7570000290870667,-0.03263792213219643
383.586207,,0.00660752422491556,383.631,0.7400000095367432,-0.06986289130097346
384.051724,,0.006406854316050601,384.089,0.7990000247955322,0.05851218832670933
384.517241,,0.00731060539881314,384.554,0.7820000052452087,0.021339121423806926
384.982759,,0.008838896369747096,385.02,0.7699999809265137,-0.004907118497511177
385.44827599999996,,0.00844712311076097,385.487,0.7739999890327454,0.003740944965289177
385.913793,,0.004618732933033769,385.953,0.7620000243186951,-0.022432005718492812
386.37931,,0.0007271301327515685,386.421,0.7630000114440918,-0.020245096395971534
386.84482799999995,,0.0038155794830011546,386.879,0.765999972820282,-0.013664174237129083
387.310345,,0.0031279428427659363,387.35,0.7730000019073486,0.001666749957456702
387.775862,,0.0011375873783361647,387.813,0.7099999785423279,-0.13547636017242892
388.241379,,0.001432009793435507,388.276,0.7789999842643738,0.014989067143954735
388.70689699999997,,0.004749602448080559,388.746,0.7609999775886536,-0.024064758694808508
389.172414,,0.00862990155867459,389.209,0.7760000228881836,0.008795851194431263
389.637931,,0.010447381827252005,389.672,0.7620000243186951,-0.021511416584545928
390.103448,,0.009673222894540605,390.137,0.7770000100135803,0.011369006562272506
390.56896600000005,,0.007290443368922047,390.6,0.7889999747276306,0.03771449328645256
391.03448299999997,,0.004276779342032116,391.066,0.7870000004768372,0.0335544007910996
391.5,,0.0012779920860619542,391.532,0.777999997138977,0.014132840178369618
391.965517,,0.0009147679002189529,391.997,0.7590000033378601,-0.027092649729422016
392.431034,,0.0014768291905167643,392.464,0.777999997138977,0.01444723144466107
392.896552,,0.0004015984091859791,392.93,0.7689999938011169,-0.005042664493420494
393.36206899999996,,0.0010493541147517304,393.394,0.7639999985694885,-0.015849239549544595
393.827586,,0.0011837965208852906,393.86,0.7789999842643738,0.016883164757099098
394.293103,,0.0005744316883211166,394.321,0.7649999856948853,-0.013600477745781886
394.75862099999995,,0.003017309163930836,394.79,0.7599999904632568,-0.024512222478076832
395.224138,,0.004261970076249187,395.254,0.777999997138977,0.014649698071555096
395.68965499999996,,0.0036684160273251823,395.716,0.7649999856948853,-0.01375955718303509
396.155172,,0.0024417773212116745,396.18,0.7789999842643738,0.01662481104654614
396.62069,,0.0020428534467351136,396.65,0.8939999938011169,0.26702917938791615
397.086207,,0.002348726410367194,397.116,0.7820000052452087,0.022863605026290895
397.551724,,0.0021499399735903403,397.579,0.7720000147819519,0.0009063859961570596
398.017241,,0.0012905508922570145,398.044,0.8100000023841858,0.08351393439283103
398.48275900000004,,0.0010329616032572937,398.509,0.6909999847412109,-0.17593224161681362
398.94827599999996,,0.0018692306649493802,398.975,0.7630000114440918,-0.01925875479326112
399.413793,,0.0023285762832945586,399.435,0.7620000243186951,-0.02162280428057791
399.87931,,0.0010170688230527539,399.901,0.7879999876022339,0.03484806262571607
400.344828,,0.0011532561628246228,400.368,0.7749999761581421,0.006369331258164133
400.810345,,0.00212436616266592,400.834,0.7739999890327454,0.004056986926175682
401.27586199999996,,0.0015142481282105118,401.295,0.7950000166893005,0.04970178743048109
401.741379,,0.0008260129867572756,401.764,0.7649999856948853,-0.015734299706912796
402.206897,,0.000996048784849856,402.228,0.765999972820282,-0.013600234313803385
402.672414,,0.0012186978595315054,402.69,0.9399999976158142,0.3654762822920073
403.137931,,0.0005644255121985272,403.156,0.5860000252723694,-0.4057379004093543
403.60344799999996,,0.00042521971283244635,403.621,0.7770000100135803,0.010440286393121546
404.068966,,0.0004391888246979147,404.087,0.6710000038146973,-0.22041499610242338
404.534483,,0.0008974212037861539,404.553,0.7870000004768372,0.03241450214847271
405.0,,0.002490409282784677,405.019,0.7409999966621399,-0.06767415982237883
405.465517,,0.0027198239836709916,405.48,0.7739999890327454,0.00437076514219124
405.931034,,0.000881092440048636,405.946,0.7620000243186951,-0.021607363804123644
406.39655200000004,,0.00197832474691553,406.413,0.7609999775886536,-0.023609191632392265
406.862069,,0.0037521512699111464,406.878,0.8220000267028809,0.10947241850747326
407.327586,,0.0033255795281449925,407.339,0.7620000243186951,-0.021060023450962563
407.793103,,0.0020001862188835707,407.808,0.7739999890327454,0.005266290193653044
408.258621,,0.002318036718149411,408.272,0.7739999890327454,0.005438703030904718
408.72413800000004,,0.005144607884681654,408.734,0.7649999856948853,-0.014012189160384913
409.18965499999996,,0.008347829708971874,409.206,0.765999972820282,-0.0116972700193919
409.655172,,0.00893603079817801,409.668,0.7609999775886536,-0.022479374058565215
410.12069,,0.006332957480537806,410.133,0.7839999794960022,0.027712261457639286
410.586207,,0.0028377092832324556,410.596,0.777999997138977,0.014692645608331984
411.05172400000004,,0.000784284311268044,411.062,0.7599999904632568,-0.024503183100277024
411.51724099999996,,0.00013121547990972373,411.531,0.7760000228881836,0.010341477614824776
411.982759,,0.0006597155710747754,411.989,0.7879999876022339,0.036438418360331966
412.448276,,0.0022680757830209775,412.454,0.8019999861717224,0.06686196830035201
412.913793,,0.004061200801985776,412.919,0.7599999904632568,-0.02474751666585758
413.37931,,0.0054277951430078885,413.391,0.765999972820282,-0.011808808593274494
413.844828,,0.006215184549502803,413.849,0.7789999842643738,0.01635707064379097
414.31034500000004,,0.00585449537819782,414.317,0.8190000057220459,0.1033289627143135
414.775862,,0.0034754283564953437,414.779,0.777999997138977,0.013818727570778448
415.241379,,0.0003220227090369106,415.249,0.7789999842643738,0.015804939830646708
415.706897,,0.0026950092077089177,415.713,0.7620000243186951,-0.02142662741752028
416.172414,,0.0009177775408518458,416.176,0.7820000052452087,0.021955012968323025
416.63793100000004,,0.0042626009947051,416.646,0.7919999957084656,0.043559840608457495
417.103448,,0.008585743613631047,417.111,0.781000018119812,0.019428786753281677
417.568966,,0.008299787202002541,417.575,0.7770000100135803,0.010568635045541546
418.034483,,0.0039037430298233203,418.034,0.777999997138977,0.012626268323681685
418.5,,0.0005084723583698665,418.505,0.6909999847412109,-0.17701057396340586
418.96551700000003,,0.00123845874126081,418.971,0.7620000243186951,-0.022392912181423898
419.43103399999995,,0.001998836646711878,419.436,0.7889999747276306,0.03639569364821677
419.896552,,0.006376681442177581,419.894,0.7799999713897705,0.016788391772681696
420.362069,,0.008489967414080517,420.361,0.7620000243186951,-0.02239099730082282
420.827586,,0.0069041143803579485,420.827,0.7910000085830688,0.04086067345401553
421.293103,,0.0031230375735548715,421.29,0.8379999995231628,0.14336266886744095
421.758621,,0.0002193762287950549,421.76,0.7609999775886536,-0.02425519705001833
422.22413800000004,,5.02858285345797e-05,422.22,0.7789999842643738,0.015125785117628401
422.689655,,0.0012133149205428677,422.69,1.0190000534057617,0.5381930627225909
423.15517200000005,,0.0018773214442747458,423.149,0.7870000004768372,0.03296285822914479
423.62069,,0.0016212323060180943,423.62,0.7870000004768372,0.03319357168253123
424.086207,,0.001712192249473916,424.085,0.7710000276565552,-0.0014319871128412407
424.55172400000004,,0.0022494104036620373,424.549,0.7739999890327454,0.005330557243175275
425.017241,,0.0015074816513963344,425.015,0.7590000033378601,-0.027136453270510015
425.482759,,0.0013518505104277423,425.475,0.7820000052452087,0.023164139622160764
425.948276,,0.004417036327348068,425.941,0.7590000033378601,-0.026780334985751674
426.413793,,0.0050596804167267724,426.406,0.7639999985694885,-0.015755593442183254
426.87931000000003,,0.003158517790018154,426.871,0.7739999890327454,0.006125020227018425
427.344828,,0.001165118549869501,427.339,0.7820000052452087,0.023608513043874447
427.810345,,0.0010452748689729673,427.801,0.7770000100135803,0.012728210945838451
428.275862,,0.002173503290238902,428.264,0.7919999957084656,0.04537924659235063
428.741379,,0.0026876068034339114,428.734,0.7739999890327454,0.0060942108788102824
429.20689699999997,,0.0020810616420090856,429.198,0.7770000100135803,0.012521981430691274
429.672414,,0.0015320190538394727,429.66,0.7730000019073486,0.003663323763217357
430.137931,,0.0020536190400459904,430.126,0.777999997138977,0.01438123146200446
430.603448,,0.003329465716244621,430.59,0.7580000162124634,-0.029393024177324104
431.068966,,0.004408791698303096,431.056,0.7760000228881836,0.009601491131611753
431.534483,,0.0047684602244661345,431.52,0.7770000100135803,0.011546480058205601
432.0,,0.004471183216338019,431.986,0.753000020980835,-0.04097968799399724
432.46551700000003,,0.003792990878839518,432.451,0.7609999775886536,-0.023787164771613308
432.931034,,0.0029456855712892216,432.916,0.777999997138977,0.013023270094632463
433.396552,,0.001868261151464336,433.383,0.765999972820282,-0.013329269680137406
433.862069,,0.00021774512752389561,433.849,0.7820000052452087,0.021345517866879497
434.327586,,0.001996577026218226,434.309,0.7950000166893005,0.04951607334695558
434.79310300000003,,0.0037043053169103944,434.779,0.7639999985694885,-0.01813694213172902
435.258621,,0.003455890306725007,435.239,0.7739999890327454,0.0035748965300239225
435.724138,,0.0013013752396338577,435.709,0.753000020980835,-0.04220909189950283
436.189655,,0.0006701840783785889,436.172,0.7739999890327454,0.0035532939777336236
436.655172,,0.0004705603499507177,436.635,0.7639999985694885,-0.018179043886326924
437.12068999999997,,0.0014506194171485182,437.1,0.7900000214576721,0.03856230271371756
437.586207,,0.0028619878467326418,437.564,0.777999997138977,0.01255480252337113
438.051724,,0.002595354114453821,438.03,0.7490000128746033,-0.05045446727792315
438.517241,,0.0017521420516600189,438.498,0.7829999923706055,0.0238201856227855
438.982759,,0.001818506251200325,438.963,0.7649999856948853,-0.015171764155095226
439.448276,,0.002483735677402858,439.427,0.7599999904632568,-0.02582539235487761
439.913793,,0.002114748093125248,439.894,0.777999997138977,0.013637904173084383
440.37931000000003,,3.091673180672531e-05,440.362,0.7739999890327454,0.005171410189619173
440.844828,,0.0025866405040310607,440.82,0.777999997138977,0.01412690494700793
441.310345,,0.0041391731914041914,441.29,0.7789999842643738,0.01653141545325486
441.775862,,0.004191049025303219,441.753,0.7540000081062317,-0.03773163137737468
442.241379,,0.0033338977080735513,442.221,0.7490000128746033,-0.04845221579884654
442.70689699999997,,0.0022224536335792786,442.683,0.7620000243186951,-0.01999372954211396
443.172414,,0.001300399200935433,443.148,0.7789999842643738,0.017138772894901358
443.637931,,0.0009611136130029058,443.611,0.7630000114440918,-0.017667140764662772
444.103448,,0.001219447329075071,444.077,0.7839999794960022,0.02809193907987873
444.568966,,0.0013233593142295197,444.542,0.781000018119812,0.021518678897736263
445.03448299999997,,0.0004373497403457013,445.008,0.7599999904632568,-0.02431445138161241
445.5,,0.000967456117906221,445.473,0.7620000243186951,-0.020080964102376885
445.965517,,0.0009878819733492939,445.938,0.7820000052452087,0.023329480025086162
446.431034,,0.0017320658898104851,446.405,0.8100000023841858,0.08413689126998847
446.896552,,0.006015077338026481,446.864,0.7390000224113464,-0.07076801242751811
447.36206899999996,,0.008830725771666059,447.331,0.6579999923706055,-0.24748232808836412
447.827586,,0.008221104570151676,447.794,0.7739999890327454,0.004980080908347874
448.29310300000003,,0.00522581599294472,448.264,0.7820000052452087,0.022142634716703496
448.758621,,0.0026244463284426306,448.727,0.7739999890327454,0.0044520244051278
449.224138,,0.0019189248104401748,449.191,0.7760000228881836,0.00856180626336229
449.689655,,0.001996247623875531,449.661,0.777999997138977,0.012693390226493182
450.155172,,0.0009598187385882761,450.119,0.7739999890327454,0.0037825689965226596
450.62068999999997,,0.0012750900249057107,450.59,0.777999997138977,0.012336929253929638
451.086207,,0.002932897443467296,451.055,0.7739999890327454,0.0035033915124809047
451.551724,,0.0026809033945634927,451.52,0.7850000262260437,0.02739519382544257
452.017241,,0.001064924759844678,451.986,0.7739999890327454,0.0034047434263509953
452.482759,,0.0005179142685418719,452.451,0.7760000228881836,0.007785894298098917
452.94827599999996,,0.0014070288861502446,452.909,0.777999997138977,0.012215206237306457
453.413793,,0.001631940898764296,453.377,0.777999997138977,0.012333473954368903
453.87931,,0.0009085016426687431,453.842,0.7749999761581421,0.005958201274544476
454.344828,,0.0012042529936351117,454.305,0.828000009059906,0.12162560247869027
454.810345,,0.004121277279080556,454.776,0.7590000033378601,-0.028469878387147384
455.27586199999996,,0.006381753674648896,455.239,0.7739999890327454,0.004464712016063645
455.741379,,0.007545148156997642,455.701,0.7630000114440918,-0.01923122663020472
456.206897,,0.00889686122185433,456.165,0.777999997138977,0.013723233173934628
456.672414,,0.011281013818091584,456.635,0.7789999842643738,0.016173563244649226
457.137931,,0.013083102049587937,457.1,0.7789999842643738,0.016433609624660034
457.603448,,0.011872788725179556,457.559,0.7570000290870667,-0.031257167843359225
458.06896600000005,,0.007830875232557186,458.024,0.902999997138977,0.2870382955513845
458.53448299999997,,0.004012960985887987,458.49,0.7789999842643738,0.01706743874535167
459.0,,0.0028825391770331706,458.956,0.7590000033378601,-0.026363424183660732
459.465517,,0.003730424376369664,459.42,0.7590000033378601,-0.026269028742944688
459.931034,,0.003957184584233512,459.886,0.7699999809265137,-0.0022608383281101183
460.39655200000004,,0.0020198765074341198,460.359,0.7620000243186951,-0.01969960336199605
460.86206899999996,,0.0013950578102751607,460.817,0.7620000243186951,-0.01976208395126312
461.327586,,0.004541082233394438,461.28,0.7820000052452087,0.023697609377319018
461.793103,,0.006349471582657657,461.749,0.7599999904632568,-0.024392854003523746
462.258621,,0.0069931055716326235,462.213,0.7820000052452087,0.023335496607213325
462.724138,,0.007002633018170799,462.675,0.7580000162124634,-0.0291893396879357
463.18965499999996,,0.0062876538672759445,463.141,0.7850000262260437,0.02936939173526343
463.655172,,0.004527962508846023,463.611,0.7620000243186951,-0.021023061909952838
464.12069,,0.0024279080935599544,464.069,0.7559999823570251,-0.03438834873371487
464.58620699999994,,0.0017311698463973236,464.535,0.7730000019073486,0.0023550796123493695
465.051724,,0.003330664856717229,465.0,0.7599999904632568,-0.026251256662632918
465.517241,,0.005700897494655839,465.465,0.7570000290870667,-0.033051843941339434
465.98275900000004,,0.0060318219071335815,465.931,0.7820000052452087,0.02117789411090252
466.448276,,0.003194109220422773,466.398,0.7630000114440918,-0.0204159196907237
466.913793,,0.0008133142324581306,466.864,0.7879999876022339,0.033894896743177125
467.37931,,0.00275274177097776,467.327,0.7860000133514404,0.029432477374541167
467.844828,,0.0014814625215452573,467.79,0.7820000052452087,0.020667038021102
468.31034500000004,,0.0008888661872569353,468.261,0.7820000052452087,0.020672406322279263
468.77586199999996,,0.0014179952823838906,468.723,0.7620000243186951,-0.02283928335155806
469.241379,,0.00030668013494141865,469.184,0.7739999890327454,0.003419313174358719
469.706897,,0.0017863028289230925,469.653,0.7979999780654907,0.05587237724775206
470.172414,,0.0005568541473894579,470.119,0.777999997138977,0.012511065487701747
470.63793100000004,,0.0031111667645984126,470.582,0.777999997138977,0.012761682716507647
471.10344799999996,,0.006589223963196122,471.048,0.7739999890327454,0.004328024414700469
471.568966,,0.007395836555519971,471.515,0.7870000004768372,0.03295261496645868
472.034483,,0.005154284465520914,471.98,0.9779999852180481,0.44939182263972155
472.5,,0.0016216878597039405,472.446,0.7590000033378601,-0.02740740018425758
472.965517,,0.0009105746909003943,472.905,0.7789999842643738,0.01648268610086348
473.43103399999995,,0.001636211515861502,473.372,0.7620000243186951,-0.020259661499854233
473.89655200000004,,0.0018658005438435283,473.837,0.7789999842643738,0.017039023787652176
474.362069,,0.003217730906726142,474.305,0.7789999842643738,0.017258911812146116
474.827586,,0.005191063712010196,474.768,0.7630000114440918,-0.017429266932848714
475.293103,,0.005465668592007942,475.231,0.7820000052452087,0.024078980489499892
475.758621,,0.0029449860387557266,475.694,0.7570000290870667,-0.030333894165957005
476.22413800000004,,0.0006045503801065865,476.161,0.7599999904632568,-0.023808144391549334
476.689655,,0.0026742665977333513,476.631,0.7879999876022339,0.037120575900293246
477.155172,,0.0027745506614574355,477.09,0.7789999842643738,0.017378970888016283
477.62069,,0.0021493234388137903,477.557,0.7739999890327454,0.006295949632469343
478.086207,,0.0016217501377451286,478.022,0.7699999809265137,-0.0026587930645838617
478.55172400000004,,0.0009326191438629355,478.487,0.7599999904632568,-0.024728278774717376
479.01724099999996,,0.00019360266942646632,478.953,0.7789999842643738,0.016349472358802162
479.482759,,0.0014497020201583372,479.42,0.7649999856948853,-0.014490826707374421
479.948276,,0.002499669626639783,479.885,0.777999997138977,0.013481371658216258
480.413793,,0.0034759168953583963,480.346,0.7620000243186951,-0.021726369963912973
480.87931000000003,,0.004658851301891908,480.816,0.7580000162124634,-0.030777923061523466
481.344828,,0.005862286743609511,481.279,0.7799999713897705,0.016839494838058133
481.810345,,0.006412049675872792,481.742,0.7599999904632568,-0.027010655233305803
482.275862,,0.005957547614483782,482.21,0.7620000243186951,-0.022885330861566588
482.74137900000005,,0.005187208564911382,482.672,0.7820000052452087,0.020509246081314457
483.206897,,0.005160510473156309,483.138,0.7760000228881836,0.007320070761787997
483.672414,,0.005679461012023864,483.601,0.7739999890327454,0.002911198330455495
484.13793100000004,,0.005017505536056545,484.067,0.777999997138977,0.011642458336718058
484.603448,,0.0019807767947158084,484.531,0.7739999890327454,0.003012797924204426
485.068966,,0.0021593141846064927,484.997,0.7620000243186951,-0.02298016450748477
485.534483,,0.004630231288093489,485.464,0.7580000162124634,-0.03148330502890667
486.0,,0.004017626229885449,485.93,0.7789999842643738,0.014533900653130156
486.46551700000003,,0.001602790578449012,486.394,0.8370000123977661,0.14120874910062636
486.931034,,8.78129705512554e-05,486.859,0.7789999842643738,0.015198926028727987
487.396552,,0.00034520492848764175,487.32,0.7789999842643738,0.01557680822738279
487.862069,,0.0020914750462813284,487.79,0.7630000114440918,-0.01889176330623784
488.327586,,0.003064938065258999,488.254,0.7789999842643738,0.016354634420618866
488.79310300000003,,0.0020872447079432295,488.716,0.7590000033378601,-0.026845332199825364
489.258621,,0.0002770835926656558,489.179,0.7789999842643738,0.017072481656256428
489.724138,,0.00014921656713709128,489.649,0.7760000228881836,0.010841599408595491
490.189655,,0.0014418841700019284,490.115,0.777999997138977,0.01545336824874546
490.655172,,0.0033348018797934417,490.579,0.7749999761581421,0.009112142918579287
491.12069,,0.0036599836220743117,491.045,0.7649999856948853,-0.012546917531449032
491.586207,,0.0024526016257246258,491.509,0.7630000114440918,-0.016849697883813682
492.05172400000004,,0.0009391358882019805,491.975,0.7820000052452087,0.024523538713944085
492.517241,,0.0002889418207434242,492.44,0.777999997138977,0.015712739056874248
492.982759,,0.0014211971962756161,492.905,0.777999997138977,0.015544045877302615
493.448276,,0.0023447508737767775,493.364,0.7559999823570251,-0.0326231022765389
493.913793,,0.0024862845516595965,493.83,0.777999997138977,0.01500904181025438
494.37931000000003,,0.0017513625529498862,494.298,0.7760000228881836,0.010302037014891232
494.844828,,0.0010333313884740671,494.761,0.7609999775886536,-0.02276787661288238
495.310345,,0.001488617020439995,495.224,0.781000018119812,0.020387287685457053
495.775862,,0.003242585182229073,495.694,0.7699999809265137,-0.004009624081453778
496.241379,,0.004915700820506152,496.161,0.7620000243186951,-0.021869971073798802
496.70689699999997,,0.004787352929380782,496.623,0.7739999890327454,0.0038572167507640535
497.172414,,0.0026084541470921484,497.089,0.9049999713897705,0.2888754051049248
497.637931,,5.3801046030918005e-05,497.553,0.7789999842643738,0.014028540452871052
498.103448,,0.0015354371239665824,498.019,0.7599999904632568,-0.027646062493417077
498.568966,,0.0018348561760378034,498.483,0.753000020980835,-0.04311334698721269
499.03448299999997,,0.00228693980143267,498.948,1.065999984741211,0.6386635543720879
499.5,,0.003764158779040322,499.413,0.781000018119812,0.01769647262895098
499.96551700000003,,0.005781233251638943,499.879,0.7549999952316284,-0.03891558731351955
500.431034,,0.0073171840917555,500.342,0.7789999842643738,0.013483247144488078
500.89655200000004,,0.007802064122762128,500.805,0.7860000133514404,0.028920793191207016
501.362069,,0.006996934702699208,501.276,0.7789999842643738,0.013927604857951432
501.827586,,0.004645943055444449,501.738,0.7599999904632568,-0.02714738813903684
502.293103,,0.0010835025374660021,502.202,0.7480000257492065,-0.052921060713817636
502.758621,,0.0021696596827276335,502.665,0.7450000047683716,-0.05904895265048027
503.224138,,0.0034403954604659294,503.131,0.7739999890327454,0.004565180078978629
503.68965499999996,,0.0025880195138968443,503.594,0.781000018119812,0.020261662682166275
504.15517200000005,,0.0008934761254187488,504.06,0.7850000262260437,0.029421246054266537
504.62068999999997,,0.0005965510352509168,504.525,0.7490000128746033,-0.04858085636174468
505.08620699999994,,0.0016504959413798006,504.99,0.7760000228881836,0.010641619803105434
505.55172400000004,,0.0019514054146252259,505.457,0.7580000162124634,-0.028218541140565198
506.017241,,0.0010449618082418529,505.923,0.777999997138977,0.015655103278187574
506.48275899999993,,0.0003837804645774362,506.388,0.777999997138977,0.015891437245117834
506.948276,,0.0004605046279005415,506.853,0.7609999775886536,-0.020981537207676287
507.413793,,0.001774307965034581,507.316,0.781000018119812,0.02267751477542178
507.87931,,0.004961448053206849,507.779,0.7490000128746033,-0.04703473555607053
508.344828,,0.006886816474061202,508.25,0.781000018119812,0.022604384764114156
508.810345,,0.00684207007688107,508.712,0.7620000243186951,-0.018947449264044514
509.27586199999996,,0.0059495313778762885,509.176,0.7620000243186951,-0.019180220998773947
509.74137900000005,,0.005539629229040312,509.645,0.777999997138977,0.01537716643553085
510.20689699999997,,0.005697182386961505,510.104,0.777999997138977,0.01501803168185091
510.67241399999995,,0.0053213003140609215,510.576,0.7609999775886536,-0.022425111189554706
511.13793100000004,,0.003481349360384739,511.034,0.7630000114440918,-0.018508491805751592
511.603448,,0.0006769211270601555,511.505,0.7590000033378601,-0.0276848470484795
512.0689659999999,,0.001450756993048452,511.971,0.7910000085830688,0.041564472876072414
512.534483,,0.0017489268233511312,512.435,0.777999997138977,0.012784723571813882
513.0,,0.0007183131098890258,512.894,0.7820000052452087,0.021067176980361573
513.465517,,1.8015727068126594e-05,513.361,0.7689999938011169,-0.007648673023934282
513.931034,,0.0009994250034457155,513.827,0.777999997138977,0.011617119248715708
514.396552,,0.003764682254065898,514.294,0.781000018119812,0.017873728331472
514.862069,,0.007309582336088043,514.756,0.7590000033378601,-0.03026419944379795
515.327586,,0.010107885734164872,515.22,0.7760000228881836,0.00664355696471962
515.793103,,0.01076665270003516,515.69,0.7789999842643738,0.013133162166037618
516.258621,,0.009124838545436657,516.156,0.7789999842643738,0.01317225388542455
516.724138,,0.00699987887055901,516.614,0.7739999890327454,0.0024025427507081937
517.189655,,0.006658270328778389,517.08,0.7739999890327454,0.002606717191415976
517.655172,,0.007881828306835705,517.547,0.7609999775886536,-0.02543745707323177
518.1206900000001,,0.007793947514286331,518.013,0.781000018119812,0.018479320639639786
518.5862070000001,,0.004531480974179745,518.48,0.7609999775886536,-0.024695214809136893
519.051724,,0.0001398500870034497,518.946,0.7789999842643738,0.014961312300019207
519.517241,,0.003071594582397385,519.41,0.7739999890327454,0.00453748823265373
519.982759,,0.0035648672075376344,519.876,0.7590000033378601,-0.027659236669775437
520.448276,,0.003536692215948043,520.338,0.7820000052452087,0.0229306484381854
520.9137929999999,,0.004464968753439157,520.801,0.781000018119812,0.021216125476323094
521.37931,,0.00568306282217585,521.268,0.7839999794960022,0.02818477037423045
521.844828,,0.0057142539993928375,521.731,0.7620000243186951,-0.01935826984939308
522.310345,,0.004064630017889183,522.199,0.765999972820282,-0.010315584950544033
522.7758620000001,,0.0013572904348163337,522.662,0.7760000228881836,0.011729412037381495
523.241379,,0.0014143248264541337,523.127,0.765999972820282,-0.00987693061727272
523.7068969999999,,0.003296677678659581,523.59,0.7749999761581421,0.009826889650162469
524.172414,,0.0036154206153936907,524.056,0.7440000176429749,-0.05770336053105784
524.637931,,0.002371455406745331,524.52,0.7210000157356262,-0.10789476269784108
525.103448,,0.00040275206616562125,524.986,0.7820000052452087,0.024832087687381054
525.568966,,0.0010276204962251644,525.454,0.7950000166893005,0.052902821831175846
526.034483,,0.001049068828482157,525.92,0.777999997138977,0.01554209813811789
526.5,,8.554869289886105e-05,526.38,0.7820000052452087,0.023870906973184926
526.9655170000001,,0.0011010607090934594,526.845,0.777999997138977,0.014720143401740689
527.4310340000001,,0.0010095843744142908,527.313,0.777999997138977,0.014247268407556284
527.8965519999999,,0.0005229751838150167,527.775,0.7590000033378601,-0.027642185391511153
528.362069,,0.0015685872469339984,528.239,0.777999997138977,0.013250055864325531
528.827586,,0.004829481360823519,528.709,0.7940000295639038,0.047616090394334364
529.293103,,0.00826217116682965,529.169,0.753000020980835,-0.04217542893383701
529.7586210000001,,0.008944662919143519,529.638,0.7829999923706055,0.022756908331143192
530.224138,,0.006219209135730432,530.104,0.7799999713897705,0.015847672949547878
530.689655,,0.0021660062881680535,530.569,0.7630000114440918,-0.021496478858574558
531.155172,,0.0009172433874754465,531.035,0.7860000133514404,0.028381052263708878
531.62069,,0.0025348441800227685,531.494,0.7620000243186951,-0.024054369160045948
532.086207,,0.003355442564890776,531.96,0.7620000243186951,-0.02411412752114302
532.5517239999999,,0.003618970226974257,532.427,0.7710000276565552,-0.004475943802396729
533.017241,,0.002961416744896524,532.893,0.7749999761581421,0.0043588131172009725
533.482759,,0.0013254747915587165,533.354,0.7829999923706055,0.021995308256840186
533.9482760000001,,0.0007538337697934127,533.823,0.746999979019165,-0.05614832400076372
534.413793,,0.0025311143617100496,534.291,0.7620000243186951,-0.023109897306010027
534.87931,,0.0031153767240919604,534.753,0.765999972820282,-0.013977065174319448
535.344828,,0.0016834614804640408,535.214,0.7509999871253967,-0.046191456969852177
535.810345,,0.0014104540165431275,535.683,0.7829999923706055,0.02402326343590359
536.275862,,0.004147446131939503,536.148,0.7839999794960022,0.026717824204681665
536.7413789999999,,0.004629264423894817,536.612,0.7749999761581421,0.007628187915121997
537.206897,,0.003258916869864231,537.077,0.7789999842643738,0.016846676212747283
537.672414,,0.0021570173140284823,537.542,0.7739999890327454,0.006426845479508176
538.137931,,0.0025003521556182344,538.008,0.7620000243186951,-0.019289412789436022
538.6034480000001,,0.003453088109822331,538.475,0.7559999823570251,-0.03199431593010679
539.0689659999999,,0.0037841825353522327,538.934,0.7649999856948853,-0.0120919463695994
539.5344829999999,,0.0035160051147199766,539.405,0.7770000100135803,0.01426464607193068
540.0,,0.003557016821434916,539.864,0.7639999985694885,-0.013933574534555565
540.465517,,0.004284202896333206,540.332,0.7789999842643738,0.01877754484331316
540.931034,,0.004887219856629733,540.794,0.7609999775886536,-0.020501033799213975
541.396552,,0.00405459694619796,541.265,0.6340000033378601,-0.2973478281902058
541.862069,,0.0014587774975416638,541.727,0.7620000243186951,-0.01873264918038259
542.327586,,0.0013370997720289573,542.195,0.7559999823570251,-0.03214011904637883
542.7931030000001,,0.0019937465041327076,542.657,0.7829999923706055,0.026277618841897506
543.258621,,0.00010274208136824652,543.122,0.7760000228881836,0.010564539124848553
543.7241379999999,,0.0028897941776597157,543.589,0.7889999747276306,0.038382558388851906
544.189655,,0.003773947956169197,544.055,0.7689999938011169,-0.005720522253085548
544.655172,,0.002393572195950695,544.52,0.7720000147819519,0.0002757985264467632
545.12069,,0.0005270978515989539,544.986,0.7820000052452087,0.0215300439948213
545.5862070000001,,0.0005553213827051464,545.45,0.7490000128746033,-0.05087348493809206
546.051724,,0.0015700845214637142,545.916,0.777999997138977,0.011838903698774569
546.517241,,0.003480433527217352,546.38,0.7820000052452087,0.020140272669874407
546.982759,,0.00516027795669533,546.845,0.7760000228881836,0.00672409324210072
547.448276,,0.0043069149814076646,547.306,0.7799999713897705,0.015174117967866494
547.9137929999999,,0.0009400018330464766,547.775,0.7900000214576721,0.0367848403003112
548.3793099999999,,0.0014841499308517203,548.239,0.7689999938011169,-0.00904840622933159
548.844828,,0.0003283239425272642,548.702,0.7820000052452087,0.019289177503398557
549.310345,,0.005467398307631591,549.165,0.7570000290870667,-0.03506594487639621
549.775862,,0.009628862485328115,549.635,0.7760000228881836,0.006531647952960344
550.241379,,0.009723916437579172,550.1,0.7570000290870667,-0.03457359303797027
550.706897,,0.006467248663663122,550.564,0.7580000162124634,-0.03202941096233407
551.172414,,0.0023159733248021043,551.03,0.8019999861717224,0.06426223687429566
551.637931,,0.0016557974449753052,551.495,0.781000018119812,0.01899519714930702
552.103448,,0.005621347999367281,551.954,0.7739999890327454,0.004267186880586507
552.568966,,0.008460659868174337,552.421,0.7770000100135803,0.011346789932789583
553.034483,,0.007407132394031428,552.886,0.7870000004768372,0.03368088738224206
553.5,,0.0015388689068213965,553.35,0.46399998664855957,-0.6694941283818016
553.965517,,0.005281541514592092,553.82,0.765999972820282,-0.011055113505328371
554.4310340000001,,0.007128904197627394,554.283,0.7860000133514404,0.032953820648169485
554.896552,,0.002420212455405393,554.746,0.7609999775886536,-0.021135072449407082
555.3620689999999,,0.003894782804061832,555.213,0.7630000114440918,-0.016470711570695303
555.827586,,0.005675169583135579,555.675,0.7820000052452087,0.02515083524870504
556.293103,,0.0020837830951373777,556.141,0.9599999785423279,0.41309501074106897
556.758621,,0.002346635325807673,556.604,0.7730000019073486,0.005748818313123008
557.224138,,0.003147057508703927,557.07,0.7749999761581421,0.010077971114827302
557.689655,,2.6440728087377685e-06,557.534,0.777999997138977,0.016493751958873492
558.155172,,0.004110609226535852,558.0,0.7490000128746033,-0.046896461829555265
558.6206900000001,,0.00622009794314052,558.465,0.7360000014305115,-0.07551276024379457
559.0862070000001,,0.005495951348831355,558.93,0.781000018119812,0.022156779208023506
559.5517239999999,,0.002986795973014436,559.394,0.781000018119812,0.021723754907461142
560.017241,,0.0004598938997953676,559.86,0.7770000100135803,0.012526689517822676
560.482759,,0.0004070863111104906,560.324,0.7770000100135803,0.012009328890310252
560.948276,,0.0012204241088103157,560.794,0.7590000033378601,-0.027743278021028914
561.413793,,0.004258434239427102,561.257,0.7369999885559082,-0.07621469820762257
561.87931,,0.00578669971228012,561.72,0.7609999775886536,-0.024456506361678388
562.344828,,0.0036322259111273795,562.187,0.7649999856948853,-0.01624256398766622
562.8103450000001,,0.0008584617162783832,562.65,0.7820000052452087,0.020339054507897875
563.275862,,0.003775578059583772,563.115,0.753000020980835,-0.043237550938473444
563.7413789999999,,0.002864976651083854,563.579,0.7739999890327454,0.0021899581866700268
564.206897,,4.646416555678781e-05,564.045,0.7570000290870667,-0.0350890449187964
564.672414,,0.001394788300524229,564.51,0.7599999904632568,-0.028705582797103456
565.137931,,6.536769513048774e-05,564.975,0.7860000133514404,0.02788198884190693
565.603448,,0.0015264653289703797,565.442,0.7570000290870667,-0.03525843599312672
566.068966,,0.0005411239740142536,565.908,0.7839999794960022,0.02370216476845444
566.534483,,0.0027702725768391652,566.372,0.7829999923706055,0.021754153051517764
567.0,,0.0052257519724942985,566.838,0.753000020980835,-0.04328806982003042
567.465517,,0.004198903891876195,567.305,0.7519999742507935,-0.04507368032778415
567.931034,,0.0003393474498348047,567.768,0.7620000243186951,-0.022830247862847455
568.396552,,0.003228398832367624,568.231,0.7509999871253967,-0.04628863618652864
568.862069,,0.0038375147068130636,568.694,0.843999981880188,0.1568686638639122
569.327586,,0.0012893613539189273,569.16,0.7599999904632568,-0.025573745110947205
569.793103,,0.002359129688446558,569.631,0.7689999938011169,-0.005399258931134726
570.2586210000001,,0.004566471613598567,570.089,0.7310000061988831,-0.08763828311832299
570.724138,,0.0042907182531317645,570.554,0.7580000162124634,-0.02829999969928349
571.189655,,0.0026239610470528123,571.02,0.7879999876022339,0.037524048575865325
571.655172,,0.0013088877628527206,571.487,0.6790000200271606,-0.19954908587939468
572.12069,,0.0007242512158400973,571.953,0.7739999890327454,0.007742704374370272
572.586207,,7.898518282238609e-05,572.421,0.781000018119812,0.023225663660061863
573.051724,,0.001484607371767077,572.879,0.7519999742507935,-0.039816629170014814
573.517241,,0.0025784380134729625,573.35,0.7630000114440918,-0.015811777791699264
573.982759,,0.0026885309246268115,573.813,0.7490000128746033,-0.04637412338427068
574.4482760000001,,0.002561726333013214,574.276,0.777999997138977,0.01664637096144812
574.913793,,0.003247541018112831,574.746,0.7730000019073486,0.0054992112112930945
575.37931,,0.004590634023645184,575.206,0.7630000114440918,-0.016627070738431275
575.844828,,0.0055910284822094595,575.675,0.7879999876022339,0.03742362883484582
576.310345,,0.0056798446827284665,576.134,0.7820000052452087,0.023873814604651666
576.775862,,0.004995470794227922,576.604,0.7749999761581421,0.008097362951617237
577.241379,,0.003914353005488782,577.069,0.7609999775886536,-0.02296213025322327
577.706897,,0.0029313682482019795,577.535,0.7710000276565552,-0.0017499758427222322
578.172414,,0.002646933507575037,578.0,0.781000018119812,0.019463841204985365
578.6379310000001,,0.0033010575113026903,578.466,0.7760000228881836,0.008017735661092176
579.1034480000001,,0.004380286088096866,578.924,0.777999997138977,0.011858884225603446
579.5689659999999,,0.004971766758133965,579.391,0.7699999809265137,-0.006033970831114423
580.034483,,0.004605355764210581,579.856,0.7730000019073486,0.00010494892801721787
580.5,,0.0037838652290011045,580.325,0.7620000243186951,-0.024178616319031482
580.965517,,0.003579465524105645,580.787,0.7829999923706055,0.021343042417536904
581.431034,,0.004495276600249448,581.25,0.746999979019165,-0.057222537375432286
581.896552,,0.005848245498145774,581.72,0.7730000019073486,-0.0006121673442034939
582.362069,,0.006584788570581137,582.183,0.7699999809265137,-0.007081513054783882
582.827586,,0.006513944604454085,582.646,0.777999997138977,0.010514366328466602
583.2931030000001,,0.006238287184478778,583.111,0.7559999823570251,-0.037154254859047324
583.758621,,0.006002359132391313,583.576,0.7649999856948853,-0.017197876208138865
584.2241379999999,,0.005421306805931583,584.041,0.7649999856948853,-0.016772954261410164
584.689655,,0.004643786943320862,584.506,0.7680000066757202,-0.009748134006558386
585.155172,,0.00483102963173364,584.972,0.7820000052452087,0.02129136332012781
585.6206900000001,,0.006515292839645132,585.438,0.781000018119812,0.01968504048987104
586.0862070000001,,0.008155918727878433,585.904,0.7879999876022339,0.03552469507095606
586.551724,,0.007739108319839165,586.369,0.7490000128746033,-0.048854966455613734
587.017241,,0.005605892705824586,586.835,0.7680000066757202,-0.006893574701743038
587.482759,,0.004187113070036734,587.298,0.7820000052452087,0.024136881906659715
587.948276,,0.004693299961028376,587.76,0.7620000243186951,-0.01896019169514252
588.4137929999999,,0.005411749774636334,588.224,0.7570000290870667,-0.0294463676847888
588.87931,,0.00399358007612614,588.694,0.7749999761581421,0.010094563196531518
589.344828,,0.0006044565361654902,589.165,0.7620000243186951,-0.017993970723691702
589.810345,,0.0021994892187015788,589.62,0.777999997138977,0.016999325624816024
590.2758620000001,,0.0026732868455708004,590.085,0.765999972820282,-0.009112680882480151
590.741379,,0.002028310214254942,590.55,0.7490000128746033,-0.04622268429638663
591.2068969999999,,0.002760716798118286,591.016,0.777999997138977,0.01678176434765414
591.672414,,0.005411202899203668,591.483,0.7649999856948853,-0.011814716674055455
592.137931,,0.007973176138208136,591.949,0.7789999842643738,0.018323100765112246
592.603448,,0.008424126786249982,592.413,0.7820000052452087,0.02441775428609658
593.068966,,0.0068863888622494925,592.879,0.7599999904632568,-0.024018762454477812
593.534483,,0.005011568558900069,593.342,0.7770000100135803,0.012462060327088527
594.0,,0.003959366656809264,593.805,0.753000020980835,-0.04041520547591308
594.4655170000001,,0.0036082117722844274,594.276,0.7599999904632568,-0.02577042559921077
594.9310340000001,,0.003718620678281505,594.738,0.7839999794960022,0.02591417731812742
595.3965519999999,,0.005593590037061993,595.202,0.7620000243186951,-0.022597146100862067
595.862069,,0.012181548554666391,595.664,0.777999997138977,0.011719629072092688
596.327586,,0.025635505913699612,596.13,0.8080000281333923,0.07659463328589652
596.793103,,0.043874144271181324,596.601,0.796999990940094,0.052218059522824205
597.2586210000001,,0.059904457693873495,597.059,0.9150000214576721,0.3089756334062901
597.724138,,0.06605894699370715,597.524,0.7609999775886536,-0.02676005583501789
598.189655,,0.06003776833706468,597.989,0.7739999890327454,0.0014417331885333644
598.655172,,0.046808097157858254,598.461,0.7829999923706055,0.021033190751704234
599.12069,,0.03423147013025883,598.919,0.777999997138977,0.010228750740787244
599.586207,,0.026686463505592287,599.391,0.7950000166893005,0.04745734811550165
600.0517239999999,,0.022700506573690323,599.849,0.777999997138977,0.010708848865608663
600.517241,,0.01810094115658881,600.318,0.7609999775886536,-0.025952055886982055
600.982759,,0.010674867228687487,600.78,0.777999997138977,0.011536682746425036
601.448276,,0.0016263558652161387,601.25,0.7599999904632568,-0.027165623721587547
601.913793,,0.006630931532278282,601.712,0.7799999713897705,0.016966902112656314
602.37931,,0.012958619513151226,602.176,0.7630000114440918,-0.01948111460627645
602.844828,,0.01765239862350689,602.646,0.7419999837875366,-0.06463296844517258
603.310345,,0.02118774945944249,603.104,0.7609999775886536,-0.022646717758785163
603.775862,,0.02379723254336897,603.569,0.7590000033378601,-0.026437430224295167
604.2413789999999,,0.02607417799002454,604.035,0.7889999747276306,0.0394470098377072
604.706897,,0.028895816793234764,604.502,0.7649999856948853,-0.01237206200649094
605.172414,,0.0321078483980669,604.967,0.777999997138977,0.016348291974713373
605.637931,,0.033846300091095245,605.431,0.7720000147819519,0.0035918130046769968
606.1034480000001,,0.03215302770736213,605.897,0.7820000052452087,0.025601998550056522
606.5689659999999,,0.02743984664417604,606.361,0.777999997138977,0.017013007670910563
607.0344829999999,,0.022695305111489556,606.827,0.7609999775886536,-0.020000501536949482
607.5,,0.0208085144663729,607.295,0.7620000243186951,-0.017901552683222813
607.965517,,0.021959492840434237,607.757,0.8130000233650208,0.09302953575766545
608.431034,,0.024005394254704673,608.224,0.7879999876022339,0.03828991937043346
608.896552,,0.025159341476431635,608.687,0.7630000114440918,-0.016535085558540042
609.362069,,0.025697614268892506,609.153,0.7820000052452087,0.024424583558358692
609.827586,,0.027084616170150122,609.616,0.777999997138977,0.015212655217595189
610.293103,,0.030114726696809403,610.082,0.7630000114440918,-0.01801223830263115
610.758621,,0.03405912294729708,610.547,0.777999997138977,0.014090345300316606
611.2241379999999,,0.03686565941076246,611.012,0.777999997138977,0.013498814301419268
611.689655,,0.03591065955267713,611.48,0.777999997138977,0.012910836651616887
612.155172,,0.029632370063069832,611.945,0.7739999890327454,0.0036292895484372244
612.62069,,0.019445960096379635,612.409,0.781000018119812,0.01835092421160058
613.0862070000001,,0.009507933304503797,612.875,0.7609999775886536,-0.025697554255263558
613.551724,,0.003409568976644063,613.335,0.7699999809265137,-0.006497790084348776
614.017241,,0.0010123865088558772,613.805,0.7889999747276306,0.034568288009219836
614.4827590000001,,0.0007236262063533483,614.268,0.7559999823570251,-0.03756543082659907
614.948276,,0.003848614079243747,614.731,0.7839999794960022,0.02329515391855498
615.4137929999999,,0.007390952579048524,615.199,0.7739999890327454,0.0014683256335556233
615.8793099999999,,0.009511893008188572,615.66,0.7760000228881836,0.005888002911890835
616.344828,,0.010392804622643487,616.126,0.7580000162124634,-0.033165005332129016
616.810345,,0.011759357831858362,616.59,0.777999997138977,0.010665939902302518
617.275862,,0.01426730810926813,617.055,0.7609999775886536,-0.026025384089480543
617.741379,,0.016898759937446165,617.52,0.7540000081062317,-0.04085300507466091
618.206897,,0.018733423343522335,617.985,0.8069999814033508,0.07510317092639453
618.672414,,0.01974772158950898,618.45,0.7990000247955322,0.058214078029785836
619.137931,,0.019774525543749515,618.916,0.7789999842643738,0.015217415381578631
619.603448,,0.018347047990670273,619.38,0.777999997138977,0.013633446557183683
620.068966,,0.016142122156541268,619.845,0.7609999775886536,-0.0228092967113024
620.534483,,0.01511012702367557,620.313,0.7599999904632568,-0.024412403586443223
621.0,,0.01622049218408591,620.775,0.8100000023841858,0.08506009095651434
621.465517,,0.0180326145748457,621.239,0.75,-0.04516985288571075
621.9310340000001,,0.018388723273648277,621.708,0.7739999890327454,0.007540155505252371
622.396552,,0.016835690845020738,622.169,0.800000011920929,0.06452850464824483
622.862069,,0.014595634454386943,622.639,0.7580000162124634,-0.026720104199100245
623.327586,,0.012798265246837089,623.105,0.7749999761581421,0.0104742197065545
623.793103,,0.011716522481451599,623.564,0.44699999690055847,-0.7040736804337367
624.258621,,0.011384656495550366,624.03,0.7620000243186951,-0.017865901684668967
624.724138,,0.011856459965927503,624.495,0.7620000243186951,-0.018040389677034422
625.189655,,0.012630466514475093,624.96,0.777999997138977,0.01654781241237383
625.655172,,0.012551734347702856,625.427,0.7630000114440918,-0.016488610683705794
626.1206900000001,,0.010795924795631904,625.893,0.7590000033378601,-0.025635590041763214
626.5862070000001,,0.007851972256513634,626.354,0.7739999890327454,0.006549438297051594
627.0517239999999,,0.005297973194351522,626.823,0.7620000243186951,-0.020135726828541034
627.5172409999999,,0.0044668260136810235,627.291,0.7620000243186951,-0.02070752680579817
627.982759,,0.005237156450248045,627.753,0.7829999923706055,0.0244594598934528
628.448276,,0.006169186644686847,628.221,0.781000018119812,0.01952328408270209
628.913793,,0.0058880548167885155,628.682,0.777999997138977,0.012431632149880504
629.37931,,0.004157978817252846,629.148,0.7599999904632568,-0.027300410126509637
629.844828,,0.0015345529148445428,629.611,0.7860000133514404,0.028882476410817544
630.3103450000001,,0.0014749734390252485,630.077,0.7490000128746033,-0.052121860838338696
630.7758620000001,,0.004393547977143563,630.542,0.7620000243186951,-0.02411527147841756
631.2413789999999,,0.006409935538503127,631.008,0.7820000052452087,0.01922935432880771
631.706897,,0.0067896451218263645,631.475,0.7820000052452087,0.01909586265374904
632.172414,,0.005553030951515619,631.934,0.7820000052452087,0.01906094585753031
632.637931,,0.0034469600210381528,632.405,0.7680000066757202,-0.011376374257672683
633.103448,,0.0016164603338342937,632.864,0.746999979019165,-0.0569691449776361
633.568966,,0.0014582572295372654,633.335,0.7590000033378601,-0.03057747714181383
634.034483,,0.003922952913846695,633.797,0.7940000295639038,0.04600470902256361
634.5,,0.008201348388702154,634.265,0.777999997138977,0.011548066294549825
634.9655170000001,,0.011648409825950232,634.727,0.7739999890327454,0.0032951341081403534
635.431034,,0.011980759591220596,635.191,0.7620000243186951,-0.022341958026223498
635.8965519999999,,0.009493508213709225,635.66,0.7329999804496765,-0.0849878896162319
636.362069,,0.006465257428318304,636.119,0.7570000290870667,-0.032153915628208386
636.827586,,0.004596651669965185,636.59,0.7770000100135803,0.01196094972077595
637.293103,,0.0038684712021958252,637.055,0.7820000052452087,0.02337692252558106
637.7586210000001,,0.003817607452591201,637.52,0.781000018119812,0.02168696360915225
638.224138,,0.004784531378416096,637.979,0.7889999747276306,0.03955652341552962
638.689655,,0.0072367984114313135,638.446,0.7889999747276306,0.039936233864398964
639.155172,,0.010429776641725973,638.911,0.777999997138977,0.016279077037207337
639.62069,,0.012567959757426465,639.376,0.7820000052452087,0.025220726839552496
640.086207,,0.012375169000441654,639.842,0.5379999876022339,-0.5062345386904891
640.551724,,0.01014324528578044,640.305,0.781000018119812,0.023212700956154905
641.017241,,0.0072301499748616185,640.775,0.7820000052452087,0.025331309783989273
641.482759,,0.004886838585525261,641.239,0.7590000033378601,-0.02492612986887328
641.9482760000001,,0.00364606083419362,641.701,0.7789999842643738,0.018414740333174195
642.413793,,0.0033817491788302595,642.165,0.5839999914169312,-0.40673298674743724
642.87931,,0.0034272792135070914,642.635,0.7620000243186951,-0.019316944244182635
643.344828,,0.0027044041591273776,643.1,0.8019999861717224,0.06738910208629652
643.810345,,0.00046215834980511635,643.564,0.7620000243186951,-0.0202347186985152
644.275862,,0.0026363053711342655,644.03,0.7789999842643738,0.016300792253868816
644.7413789999999,,0.004663388746571882,644.495,0.777999997138977,0.013612601397978515
645.206897,,0.004339975465234552,644.961,0.7639999985694885,-0.017390648023935727
645.672414,,0.002633189782627889,645.42,0.7760000228881836,0.008273182196110087
646.1379310000001,,0.0019979203961413136,645.886,0.7649999856948853,-0.01613575305723731
646.6034480000001,,0.0040446764219978296,646.354,0.7609999775886536,-0.025245176214156437
647.0689659999999,,0.007940199857449244,646.815,0.7609999775886536,-0.025580231992994466
647.534483,,0.010846268817559715,647.283,0.7620000243186951,-0.023667591713105077
648.0,,0.010116583511187561,647.746,0.7820000052452087,0.01971564103767017
648.465517,,0.005640473971424823,648.209,0.7580000162124634,-0.03268027443102701
648.931034,,0.00018109931335679737,648.679,0.777999997138977,0.010867615588613006
649.396552,,0.002894441450938239,649.145,0.7620000243186951,-0.023932913129513057
649.862069,,0.0024216279782754433,649.607,0.777999997138977,0.011063190572434552
650.327586,,0.00011405637443577024,650.073,0.7590000033378601,-0.030118768083942024
650.7931030000001,,0.0013128961896158979,650.538,0.7559999823570251,-0.03637578500897901
651.258621,,0.0006219007656597312,651.004,0.777999997138977,0.011890666463311045
651.7241379999999,,0.0010940588058309692,651.468,0.777999997138977,0.01227375729395669
652.189655,,0.001842920028848233,651.934,0.7820000052452087,0.02140667116297799
652.655172,,0.000917437509397832,652.399,0.7599999904632568,-0.02608353081541492
653.12069,,0.0006133831686099269,652.865,0.7870000004768372,0.03318809798680985
653.5862070000001,,0.001554114454134363,653.327,0.7730000019073486,0.0031297419633820535
654.051724,,0.001972710862734832,653.79,0.7580000162124634,-0.029126172760176133
654.517241,,0.0025618914473483304,654.257,0.7599999904632568,-0.02437737811838654
654.982759,,0.0034763489359863568,654.719,0.7870000004768372,0.03479445213779195
655.448276,,0.0045690064078181825,655.191,0.7829999923706055,0.02637597839794719
655.9137929999999,,0.00607179866388865,655.653,0.6970000267028809,-0.1607531493159264
656.37931,,0.007948240196213142,656.119,0.8029999732971191,0.07034925815532171
656.844828,,0.00880803705890311,656.583,0.7630000114440918,-0.016702118510924714
657.310345,,0.006693447566802432,657.049,0.7789999842643738,0.01817866234665948
657.7758620000001,,0.00153143116191361,657.512,0.7630000114440918,-0.016729175153241054
658.241379,,0.003811458389540911,657.979,0.781000018119812,0.02236779853574233
658.7068969999999,,0.005745336335569046,658.446,0.7739999890327454,0.006934233496861935
659.172414,,0.003371760342291129,658.904,0.7739999890327454,0.006693713201031706
659.637931,,0.0005487014165145602,659.369,0.7639999985694885,-0.015382957562120554
660.103448,,0.0021282857966887555,659.835,0.7710000276565552,-0.00046291644094986154
660.568966,,5.3743717750941645e-05,660.305,0.7599999904632568,-0.02478859652882382
661.034483,,0.003722406453717589,660.768,0.7760000228881836,0.009690863116473538
661.5,,0.005352553494118007,661.231,0.7429999709129333,-0.06259074217158854
661.965517,,0.003903143305426565,661.694,0.7850000262260437,0.02853107743292296
662.4310340000001,,0.0017093016853848525,662.165,0.7789999842643738,0.015094248145008947
662.8965519999999,,0.001457493872610836,662.627,0.7509999871253967,-0.046245331237503295
663.362069,,0.003033775753851828,663.093,0.8019999861717224,0.06456524226015231
663.827586,,0.004176867791593808,663.558,0.7929999828338623,0.04470328871996311
664.293103,,0.00372926564370834,664.023,0.777999997138977,0.011823000183432731
664.7586210000001,,0.002882961583602077,664.49,0.7799999713897705,0.016037456938602698
665.224138,,0.0028971162873446376,664.949,0.7820000052452087,0.020312770686974232
665.689655,,0.002974262101666951,665.414,0.7739999890327454,0.002863363088984644
666.155172,,0.00171455982529847,665.879,0.7620000243186951,-0.023239846063300523
