Trial: ,15
Threshold: ,0.0
Maximum EMG: ,0.06576349269292729
Success: ,True

EMG Time,Raw EMG,Filtered EMG,Force Time,Raw Force (V),Filtered Force (N)
0.0,samples,1.11872394889448e-05,0.468,0.7739999890327454,0.015025117191410548
0.46551699999999996,time,1.1284655490207947e-05,0.934,0.7590000033378601,-0.01755323800688404
0.9310339999999999,value,1.1346078278361218e-05,1.397,0.7739999890327454,0.015144158220692231
1.396552,,1.1369734631654353e-05,1.86,0.7549999952316284,-0.026317205497189737
1.862069,,1.1353909288508457e-05,2.327,0.7570000290870667,-0.022110362202346436
2.327586,,1.1296953555902487e-05,2.79,0.800000011920929,0.07134227252482332
2.793103,,1.1197294051576333e-05,3.261,0.7860000133514404,0.04054131709176549
3.258621,,1.1053441554624055e-05,3.723,0.7710000276565552,0.007500011697849102
3.724138,,1.0863999937563766e-05,4.189,0.7590000033378601,-0.01905738786004122
4.189654999999999,,1.0627675151515273e-05,4.649,0.7689999938011169,0.0022755055171641467
4.655172,,1.0343284234699334e-05,5.115,0.7620000243186951,-0.01345476062934742
5.12069,,1.000976431309995e-05,5.58,0.7620000243186951,-0.01394614069262213
5.586207,,9.626181560810386e-06,6.045,0.7739999890327454,0.011709839855451928
6.051723999999999,,9.191740086321444e-06,6.512,0.7739999890327454,0.011241327256340724
6.517241,,8.705790709814069e-06,6.978,0.7599999904632568,-0.01969447601876844
6.982759,,8.167839595394575e-06,7.446,0.7630000114440918,-0.013546225817447001
7.448276,,7.577556701166938e-06,7.908,0.765999972820282,-0.00733894709069572
7.913793000000001,,6.934784009079763e-06,8.375,0.7599999904632568,-0.02066964575915406
8.379309999999998,,6.239543495622974e-06,8.838,0.7749999761581421,0.011829515033315731
8.844828000000001,,5.4920448036880475e-06,9.301,0.753000020980835,-0.03619681435728345
9.310345,,4.692692575252888e-06,9.764,0.8299999833106995,0.1315517447291219
9.775862,,3.84209340401519e-06,10.229,0.7730000019073486,0.007452363273768045
10.241379,,2.9410623666832538e-06,10.7,0.7739999890327454,0.009802697724298114
10.706897,,1.990629091347537e-06,11.166,0.7519999742507935,-0.037874130399280254
11.172414,,9.920433212062499e-07,11.631,0.7580000162124634,-0.02447504736779421
11.637931,,5.322006808944757e-08,12.089,0.7549999952316284,-0.030620347484781704
12.103447999999998,,1.1434566390645321e-06,12.56,0.8119999766349792,0.09400621420534364
12.568966000000001,,2.276728592322545e-06,13.019,0.7739999890327454,0.01170197183883343
13.034483,,3.45086163656571e-06,13.486,0.47600001096725464,-0.6370309879013236
13.5,,4.66344256895721e-06,13.952,0.777999997138977,0.021423999377433108
13.965517,,5.911817605260096e-06,14.42,0.765999972820282,-0.004228035718898604
14.431034,,7.193091498222612e-06,14.882,0.7599999904632568,-0.01682884826434426
14.896552,,8.504127481536285e-06,15.349,0.7490000128746033,-0.04035847617237623
15.362069,,9.841548075367205e-06,15.813,0.777999997138977,0.023209056851920644
15.827586000000002,,1.120173678794942e-05,16.275,0.7580000162124634,-0.020037139036945963
16.293103,,1.2580840746029482e-05,16.745,0.7820000052452087,0.032507367739080535
16.758621,,1.397477428506098e-05,17.211,0.7979999780654907,0.0675456338468003
17.224138,,1.5379223527965776e-05,17.674,0.777999997138977,0.024070470137385017
17.689655,,1.6789651979003766e-05,18.14,0.9319999814033508,0.3595970074736391
18.155172,,1.820130715682497e-05,18.605,0.7599999904632568,-0.0151982034308339
18.62069,,1.9609228288117117e-05,19.064,0.7599999904632568,-0.015350325472511086
19.086207,,2.1008255080409722e-05,19.53,0.7620000243186951,-0.011229204982385464
19.551724,,2.2393037589553788e-05,19.997,0.777999997138977,0.023315298878726298
20.017241000000002,,2.3758047194167426e-05,20.461,0.777999997138977,0.02293312348424296
20.482758999999998,,2.509758868592494e-05,20.927,0.765999972820282,-0.003650448891497635
20.948276,,2.6405813480974685e-05,21.39,0.8849999904632568,0.25512589312953693
21.413793000000002,,2.7676733954004327e-05,21.86,0.7580000162124634,-0.02207291877975806
21.87931,,2.8904238892536503e-05,22.323,0.777999997138977,0.0209747839291694
22.344828,,3.0082110064940368e-05,22.786,0.753000020980835,-0.034018210898317316
22.810344999999998,,3.1204039891392064e-05,23.257,0.7580000162124634,-0.023638251280455394
23.275862,,3.226365020261879e-05,23.719,0.7789999842643738,0.021629081374144037
23.741379,,3.325451206672571e-05,24.185,0.7739999890327454,0.01029617840773339
24.206897,,3.4170166659742796e-05,24.649,0.7739999890327454,0.009914866173873242
24.672414,,3.500414715075064e-05,25.114,0.953000009059906,0.3995854112409838
25.137931,,3.575000156756227e-05,25.579,0.7509999871253967,-0.04072314481514237
25.603448,,3.640131660396496e-05,26.045,0.8180000185966492,0.10511565366245178
26.068966,,3.695174232447565e-05,26.508,0.7570000290870667,-0.027820022783848777
26.534483,,3.739501771744995e-05,26.974,0.7570000290870667,-0.02776469459928963
27.0,,3.7724997042223577e-05,27.435,0.7509999871253967,-0.04069012084004506
27.465517,,3.793567691077236e-05,27.904,0.781000018119812,0.024903973463214775
27.931034,,3.802122403916958e-05,28.365,0.777999997138977,0.01868531505879054
28.396552,,3.797600359891559e-05,28.834,0.7580000162124634,-0.024496064914564734
28.862069,,3.779460809303176e-05,29.297,0.7730000019073486,0.008638028870896226
29.327586,,3.747188667666948e-05,29.76,0.753000020980835,-0.03443069478806231
29.793103000000002,,3.700297483690363e-05,30.226,0.7879999876022339,0.04236183960867558
30.258620999999998,,3.638332434137979e-05,30.689,0.7570000290870667,-0.024615806887116072
30.724138,,3.560873336058647e-05,31.154,0.7620000243186951,-0.013158334989848936
31.189655000000002,,3.467537666374936e-05,31.619,0.777999997138977,0.02225149209219246
31.655172000000004,,3.35798357837157e-05,32.085,0.7739999890327454,0.014060006374162378
32.12069,,3.231912904173632e-05,32.552,0.7739999890327454,0.014539350874002226
32.586207,,3.08907413187828e-05,33.018,0.753000020980835,-0.030791547236539728
33.051724,,2.929265345598133e-05,33.483,0.7289999723434448,-0.08273130666368554
33.517241000000006,,2.7523371162926227e-05,33.949,0.7590000033378601,-0.017108063590222794
33.982759,,2.558195330907758e-05,34.412,0.7509999871253967,-0.03436562495012907
34.448276,,2.3468039470173315e-05,34.874,0.777999997138977,0.024532677357000553
34.913793,,2.1181876598619084e-05,35.342,0.7889999747276306,0.04847382670856061
35.37931,,1.872434468418335e-05,35.804,0.7760000228881836,0.020029533229852257
35.844828,,1.6096981269042753e-05,36.275,0.7739999890327454,0.015454709120296603
36.310345,,1.3302004679317164e-05,36.737,0.7459999918937683,-0.04585561939446384
36.775862,,1.0342335833727323e-05,37.203,0.7089999914169312,-0.12685794417426385
37.241378999999995,,7.2216184889222975e-06,37.668,0.4959999918937683,-0.5913816320967638
37.706897000000005,,3.944237780380742e-06,38.133,0.7760000228881836,0.01809987787624579
38.172414,,5.153369176095646e-07,38.598,0.7760000228881836,0.017513098856437093
38.637931,,3.0591681073339532e-06,39.064,0.7639999985694885,-0.009241325347013024
39.103448,,6.772575938166407e-06,39.53,0.7739999890327454,0.01192890369663788
39.568965999999996,,1.0617389538394945e-05,39.989,0.777999997138977,0.020040462289957876
40.034483,,1.4585308278012254e-05,40.46,0.7580000162124634,-0.024104113649254362
40.5,,1.866722255744357e-05,40.919,0.7519999742507935,-0.03769972062397871
40.965517,,2.2853211100341115e-05,41.388,0.7739999890327454,0.0097707922168354
41.431034,,2.7132541043264075e-05,41.85,0.7570000290870667,-0.027647617092653662
41.896552,,3.149367094613492e-05,42.32,0.7850000262260437,0.03306355579633771
42.362069000000005,,3.5924256842615735e-05,42.782,0.7739999890327454,0.008907434880302099
42.827586000000004,,4.041116144419384e-05,43.248,0.7649999856948853,-0.010785166022187265
43.293103,,4.494046660579838e-05,43.713,0.777999997138977,0.0175612925011984
43.758621,,4.949748915418494e-05,44.179,0.7749999761581421,0.011157904637309
44.224138,,5.40668001731217e-05,44.639,0.7580000162124634,-0.025641708819804956
44.689655,,5.8632247831588805e-05,45.104,0.7770000100135803,0.016087461064901963
45.155172,,6.317698383276509e-05,45.571,0.7490000128746033,-0.044492335489793415
45.620689999999996,,6.768349355252801e-05,46.037,0.7739999890327454,0.010470998166131538
46.086206999999995,,7.213362992654187e-05,46.502,0.7730000019073486,0.008849888309446784
46.551724,,7.650865113476524e-05,46.968,0.7609999775886536,-0.016692567767743895
47.017241,,8.078926212138469e-05,47.431,0.7739999890327454,0.0122568665732298
47.482759,,8.495565997679269e-05,47.901,0.7770000100135803,0.01942682665769131
47.948276,,8.898758319629221e-05,48.364,0.7559999823570251,-0.02570312248061525
48.413793,,9.286436481774968e-05,48.826,0.7739999890327454,0.014102830172701877
48.879310000000004,,9.656498942745511e-05,49.29,0.7599999904632568,-0.01585746102627934
49.344828,,0.00010006815401000984,49.76,0.7630000114440918,-0.00884679803968436
49.810345,,0.00010335233260417937,50.225,0.7329999804496765,-0.0738130878138505
50.275862,,0.00010639584471235238,50.688,0.777999997138977,0.024525648030055126
50.741379,,0.00010917692739657352,51.154,0.7590000033378601,-0.016671493830831857
51.206897,,0.00011167381097910378,51.619,0.7580000162124634,-0.018761346429782836
51.672414,,0.00011386479825015267,52.085,0.7770000100135803,0.02261034167686514
52.137931,,0.00011572834706986247,52.55,0.7739999890327454,0.015941358028119884
52.603448,,0.00011724315623585508,53.009,0.5879999995231628,-0.3895302133882045
53.068966,,0.00011838825447172588,53.475,0.7760000228881836,0.019706878957597884
53.534483,,0.00011914309237583924,53.941,0.7519999742507935,-0.03302233438807487
54.0,,0.00011948763715370246,54.408,0.7739999890327454,0.014390450287835518
54.465517,,0.0001194024699411281,54.871,0.7590000033378601,-0.018866899790664082
54.931034,,0.00011886888550939746,55.334,0.7770000100135803,0.01972885970942939
55.396552,,0.00011786899412777353,55.804,0.7739999890327454,0.012549866987378285
55.862069,,0.00011638582534304783,56.268,0.7590000033378601,-0.020776366724793383
56.327586,,0.00011440343342040575,56.73,0.7699999809265137,0.002557938781128927
56.793102999999995,,0.00011190700417483196,57.196,0.753000020980835,-0.03507505311214225
57.258621000000005,,0.00010888296290761938,57.661,0.7580000162124634,-0.024725312715521017
57.724138,,0.00010531908314836615,58.127,0.777999997138977,0.01837347519124762
58.189655,,0.00010120459588921905,58.594,0.8330000042915344,0.13781069451563385
58.655172,,9.653029898512301e-05,59.06,0.7770000100135803,0.015516664009852868
59.120689999999996,,9.128866638154243e-05,59.52,0.781000018119812,0.02404811133728951
59.586207,,8.547395681960665e-05,59.986,0.7950000166893005,0.054477302728315136
60.051724,,7.9082321657975e-05,60.453,0.7739999890327454,0.008767160162245342
60.517241,,7.211191144099378e-05,60.919,0.7580000162124634,-0.02593850609508803
60.982758999999994,,6.456298083400768e-05,61.379,0.7860000133514404,0.035322077310673966
61.448276,,5.6437991539071134e-05,61.85,0.7749999761581421,0.011713463829760207
61.913793,,4.7741712797850654e-05,62.312,0.7590000033378601,-0.022701310308795346
62.379310000000004,,3.848131908328464e-05,62.775,0.746999979019165,-0.04832936708900834
62.84482800000001,,2.866648457765011e-05,63.24,0.7770000100135803,0.017602187366227574
63.310345000000005,,1.8309474032164897e-05,63.711,0.7749999761581421,0.013856442068719796
63.775862000000004,,7.425229602205011e-06,64.169,0.7699999809265137,0.0035962188309505093
64.241379,,3.968546747327608e-06,64.634,0.7739999890327454,0.012945841985665495
64.706897,,1.585131566996702e-05,65.1,0.7519999742507935,-0.03436708788640112
65.172414,,2.8199628098845567e-05,65.565,0.7590000033378601,-0.018536016053729707
65.637931,,4.098705853552787e-05,66.03,0.7699999809265137,0.005955174714128459
66.103448,,5.418414435373586e-05,66.497,0.9240000247955322,0.341926603446029
66.56896599999999,,6.775833149624759e-05,66.963,0.7749999761581421,0.01768971113398337
67.03448300000001,,8.167392693278697e-05,67.431,0.7609999775886536,-0.012521401803946942
67.5,,9.589205823440576e-05,67.893,0.7649999856948853,-0.003620920482134168
67.965517,,0.00011037064060503281,68.356,0.781000018119812,0.03131377700684369
68.431034,,0.00012506435169358979,68.819,0.7649999856948853,-0.0035800438582803493
68.896552,,0.0001399246144916968,69.29,0.7480000257492065,-0.04076350920227868
69.362069,,0.0001548995886034242,69.752,0.75,-0.03666035086462613
69.827586,,0.00016993417015271617,70.217,0.7789999842643738,0.026166902119591218
70.293103,,0.0001849700005674822,70.681,0.753000020980835,-0.030919372025111032
70.75862099999999,,0.00019994548444838718,71.147,0.7739999890327454,0.014316339035565097
71.22413800000001,,0.0002147958167035276,71.612,0.7730000019073486,0.01156364222915954
71.689655,,0.00022945301911126025,72.078,0.777999997138977,0.021842685803802765
72.15517200000001,,0.00024384598644815818,72.545,0.7519999742507935,-0.03543800087108356
72.62069,,0.00025790054226829736,73.011,0.7829999923706055,0.03146206598097398
73.086207,,0.0002715395043580887,73.475,0.777999997138977,0.019948557915378168
73.551724,,0.000284682759868487,73.941,0.7749999761581421,0.012829480203918608
74.017241,,0.00029724735015501766,74.401,0.7979999780654907,0.06241060090839899
74.482759,,0.00030914756534044434,74.871,0.7580000162124634,-0.02519164938188373
74.94827599999999,,0.00032029504845591437,75.334,0.7770000100135803,0.015830955414672346
75.41379300000001,,0.0003305989088310425,75.797,0.75,-0.043268908080512654
75.87931,,0.00033996584448907704,76.265,0.7549999952316284,-0.03254875401407983
76.344828,,0.0003483002736571042,76.727,0.7710000276565552,0.0022450856416518943
76.810345,,0.0003555044755095668,77.193,0.777999997138977,0.01754218751180277
77.275862,,0.0003614787394431319,77.657,0.7789999842643738,0.019877810612937363
77.741379,,0.00036612152140898686,78.123,0.7549999952316284,-0.032147481230891756
78.206897,,0.00036932960679818494,78.59,0.7739999890327454,0.009605787765064515
78.67241399999999,,0.00037099828163483615,79.055,0.7609999775886536,-0.018272038614453822
79.137931,,0.00037102151353914445,79.52,0.7609999775886536,-0.01775545772708004
79.603448,,0.0003692921389428505,79.985,0.777999997138977,0.019854414482071803
80.068966,,0.0003657020495706175,80.446,0.7580000162124634,-0.023106776348333795
80.53448300000001,,0.0003601423785757265,80.915,0.777999997138977,0.02109812122855725
81.0,,0.0003525036996402428,81.375,0.7490000128746033,-0.04145000003218889
81.465517,,0.00034267624740211944,81.839,0.7300000190734863,-0.08223132497284934
81.931034,,0.0003305501369679622,82.309,0.7699999809265137,0.005488690043633795
82.396552,,0.0003160155459500414,82.771,0.7609999775886536,-0.01360037974094654
82.86206899999999,,0.00029896287389641406,83.237,0.7710000276565552,0.008634512972259258
83.327586,,0.00027928296438521145,83.699,0.7720000147819519,0.011177573065971887
83.79310299999999,,0.00025686742539820086,84.164,0.7590000033378601,-0.01687536201530512
84.258621,,0.00023160889916116386,84.631,0.7720000147819519,0.011613346031305295
84.72413800000001,,0.00020340108758454771,85.097,0.753000020980835,-0.02972314212899242
85.189655,,0.0001721386826955672,85.564,0.9629999995231628,0.4277443154239679
85.65517200000001,,0.00013771771788754637,86.03,0.7580000162124634,-0.01902916201867055
86.12069,,0.00010003644228052224,86.495,0.7580000162124634,-0.01928059007809637
86.586207,,5.89957371406561e-05,86.961,0.7789999842643738,0.026122393620992293
87.051724,,1.4498079478135394e-05,87.423,0.7549999952316284,-0.026600295560867536
87.517241,,3.355372541632547e-05,87.885,0.7620000243186951,-0.011858817102422791
87.98275899999999,,8.525502405714971e-05,88.353,0.753000020980835,-0.03203492535468857
88.448276,,0.00014069511373908166,88.816,0.7739999890327454,0.013106529624115563
88.913793,,0.00019995665354740364,89.279,0.7749999761581421,0.014652255505826415
89.37931,,0.00026312349045643434,89.749,0.75,-0.04045046356042384
89.844828,,0.00033028779301713527,90.214,0.7599999904632568,-0.019285556933755752
90.310345,,0.000401539352674913,90.68,0.7760000228881836,0.014985489412312347
90.775862,,0.00047694210876771955,91.139,0.7480000257492065,-0.04655167375375581
91.241379,,0.0005565371753290647,91.604,0.7570000290870667,-0.02741049582439586
91.706897,,0.0006403933055715573,92.07,0.7739999890327454,0.009242701090467865
92.17241399999999,,0.0007286407290065539,92.535,0.7739999890327454,0.008954680145807909
92.63793100000001,,0.0008213942077919645,93.001,0.7450000047683716,-0.054409500255280865
93.103448,,0.0009186219407318447,93.468,1.0410000085830688,0.590402332743955
93.568966,,0.0010201990893443293,93.934,0.7580000162124634,-0.026101136645173394
94.03448300000001,,0.00112621995045957,94.394,0.7480000257492065,-0.047717666179881046
94.5,,0.0012371368418927263,94.864,0.7760000228881836,0.013559679038724742
94.965517,,0.0013532289373685755,95.327,0.7580000162124634,-0.02528360318592978
95.431034,,0.001473892949018056,95.789,0.7739999890327454,0.010033092392843345
95.896552,,0.0015981695083012884,96.261,0.7799999713897705,0.023635593742718255
96.36206899999999,,0.0017266215886121243,96.723,0.7739999890327454,0.011150834310430688
96.827586,,0.0018617505366986054,97.188,0.7609999775886536,-0.016546387958869244
97.293103,,0.0020044654328151223,97.654,0.7739999890327454,0.01242000766836918
97.758621,,0.0021504112736756616,98.119,0.7760000228881836,0.017420630249391156
98.224138,,0.0022942998814404715,98.579,0.843999981880188,0.16619323297181698
98.689655,,0.002440914781675101,99.045,0.7749999761581421,0.016454473051822748
99.155172,,0.002604984185358846,99.512,0.7739999890327454,0.01480805016733456
99.62069,,0.0027884507717963036,99.978,0.7490000128746033,-0.039199932358716896
100.086207,,0.0029626010736417004,100.442,0.7590000033378601,-0.017044105267411493
100.551724,,0.003100549132796267,100.905,0.7820000052452087,0.03333437117805775
101.017241,,0.0032398945864980278,101.376,0.7620000243186951,-0.01007639706565504
101.482759,,0.0034659094682992454,101.838,0.7789999842643738,0.027010441591890373
101.948276,,0.0037692856440598582,102.301,0.7599999904632568,-0.01444784373104232
102.413793,,0.003967234463176781,102.764,0.7739999890327454,0.015877320896379
102.87931,,0.003933055748469137,103.229,0.7739999890327454,0.01559507467367331
103.344828,,0.003941483263864052,103.699,0.7739999890327454,0.015215492138232867
103.810345,,0.004472021811140805,104.165,0.5540000200271606,-0.4645565893282016
104.275862,,0.005341782302720163,104.63,0.7590000033378601,-0.018482393135075846
104.741379,,0.005418573671544271,105.089,0.7739999890327454,0.013589985494839734
105.206897,,0.0041795245945820455,105.554,0.796999990940094,0.06305709873285742
105.672414,,0.003558725585665862,106.019,0.7739999890327454,0.012292725271160468
106.13793100000001,,0.006222580890584048,106.486,0.7789999842643738,0.02253708072623387
106.603448,,0.01022546012073011,106.952,0.7739999890327454,0.011021403791165407
107.068966,,0.007414603312645964,107.42,0.7990000247955322,0.0649114059878404
107.534483,,0.008598669491947873,107.882,0.7559999823570251,-0.029282933952025025
108.0,,0.03269614342755377,108.35,0.7480000257492065,-0.04714593840777766
108.46551699999999,,0.050757963041248036,108.812,0.7749999761581421,0.011334668293901414
108.931034,,0.0536307710220261,109.275,0.7490000128746033,-0.04555106304144484
109.396552,,0.0459897954578396,109.745,0.7749999761581421,0.010961947638681389
109.862069,,0.04002808018833694,110.204,0.7699999809265137,5.029587403709043e-05
110.32758600000001,,0.04199776374855511,110.671,0.7730000019073486,0.00668190689080294
110.793103,,0.046000569286676965,111.137,0.7590000033378601,-0.023613022398372555
111.258621,,0.04057509232673201,111.602,0.7609999775886536,-0.018946197824521928
111.724138,,0.020840846535674563,112.067,0.7770000100135803,0.01631550356114341
112.189655,,0.0061956103034727,112.535,0.781000018119812,0.02551497021395467
112.655172,,0.02801930012129984,113.001,0.7049999833106995,-0.13951224008393828
113.12069,,0.037051875527959105,113.461,0.765999972820282,-0.006017985977864836
113.586207,,0.034648522781354066,113.926,0.7739999890327454,0.012036778497898346
114.051724,,0.027115663912149184,114.394,0.7570000290870667,-0.024364091524496548
114.51724100000001,,0.02020533913596676,114.857,0.7570000290870667,-0.02373767831690482
114.982759,,0.016780450796688894,115.32,0.7739999890327454,0.013896641997107204
115.448276,,0.016957143423375537,115.79,0.7739999890327454,0.01444717645132257
115.913793,,0.01909505101842584,116.249,0.777999997138977,0.023648931424350025
116.37931,,0.021469436852192582,116.714,0.7559999823570251,-0.023872873230382553
116.84482799999999,,0.02363485212560168,117.18,0.7839999794960022,0.03744643295455797
117.310345,,0.025767149466055957,117.645,0.7760000228881836,0.02023389936842523
117.77586199999999,,0.026899025748134065,118.111,0.7519999742507935,-0.03194457673852556
118.241379,,0.024990182113786386,118.576,0.7559999823570251,-0.02323231121149155
118.70689700000001,,0.01911753822251362,119.041,0.7760000228881836,0.020227170354270994
119.172414,,0.010857633898899047,119.508,0.7599999904632568,-0.014851892947019368
119.63793100000001,,0.0032746959012183766,119.974,0.777999997138977,0.024043319451126786
120.103448,,0.0009531811174534864,120.434,0.7609999775886536,-0.013403977004664634
120.568966,,0.0006676116999651202,120.904,0.777999997138977,0.023146035399343318
121.034483,,0.0033397176711458323,121.364,0.7739999890327454,0.013882961336711571
121.5,,0.008609209918901847,121.834,0.7609999775886536,-0.015032347199173027
121.96551699999999,,0.012543703738632629,122.297,0.7699999809265137,0.003956306964725368
122.431034,,0.01434050772059179,122.76,0.753000020980835,-0.03370720034428377
122.896552,,0.015279287310651002,123.226,0.777999997138977,0.020144485446895212
123.362069,,0.01707674789116254,123.696,0.7730000019073486,0.008668377296832733
123.827586,,0.02026412101232243,124.154,0.7789999842643738,0.021207396751359967
124.293103,,0.023824595885306755,124.623,0.7710000276565552,0.003311905802609181
124.758621,,0.02563558503899616,125.088,0.7409999966621399,-0.062433997999456425
125.22413800000001,,0.023549246868604018,125.553,0.7580000162124634,-0.025692355421748785
125.68965500000002,,0.017138337288230242,126.019,0.7820000052452087,0.026400253957707967
126.15517200000001,,0.008486111496536407,126.483,0.7789999842643738,0.01977689661196459
126.62069000000001,,0.0004916839559145101,126.949,0.7739999890327454,0.008906707596646924
127.086207,,0.005509301716541082,127.412,0.7739999890327454,0.009039059278517947
127.55172400000001,,0.009811055065714315,127.874,0.7739999890327454,0.009276358010879084
128.017241,,0.012640750180806997,128.346,0.7760000228881836,0.013968490196834635
128.48275900000002,,0.013711687638637518,128.808,0.7689999938011169,-0.0008604984453268042
128.948276,,0.01344986988583191,129.271,0.7720000147819519,0.0061705725302228145
129.413793,,0.013418318723813797,129.734,0.7559999823570251,-0.028135163217489354
129.87931,,0.014895520663713106,130.2,0.777999997138977,0.020388134636761635
130.344828,,0.017510202572904008,130.671,0.781000018119812,0.027539480341315172
130.81034499999998,,0.019678000060949472,131.129,0.781000018119812,0.028158582770348314
131.275862,,0.020018207498320156,131.601,0.777999997138977,0.02222618897446651
131.741379,,0.01810844559516267,132.06,0.753000020980835,-0.03167123731733797
132.206897,,0.01482913625232922,132.524,0.7559999823570251,-0.024620061344479676
132.67241399999997,,0.01326934843396692,132.99,0.7789999842643738,0.025934870623137707
133.13793099999998,,0.018651146603478448,133.457,0.7369999885559082,-0.06520533197138359
133.60344800000001,,0.03465896601161996,133.922,0.7749999761581421,0.017851861409167648
134.06896600000002,,0.05811825621459282,134.39,0.7749999761581421,0.018018381201928474
134.53448300000002,,0.07863256316118085,134.852,0.7739999890327454,0.015899973612929164
135.0,,0.0858991147724347,135.316,0.7680000066757202,0.002780204360512133
135.465517,,0.07795907428323484,135.779,0.7689999938011169,0.004804243916861781
135.931034,,0.06127867927205607,136.244,0.7760000228881836,0.019798643588475898
136.396552,,0.04266301751512689,136.716,0.8149999976158142,0.10441720980663365
136.862069,,0.022880275994775007,137.174,0.796999990940094,0.06477252134033938
137.327586,,0.0002879717196921203,137.641,0.7609999775886536,-0.01415541551915405
137.793103,,0.019653235947003328,138.107,0.7730000019073486,0.011438273496146659
138.258621,,0.022564615078500085,138.572,0.753000020980835,-0.032722019506740814
138.724138,,0.0021933193667376563,139.038,0.7429999709129333,-0.05511570328044197
139.189655,,0.04608644265356339,139.505,0.7599999904632568,-0.018687064649636913
139.655172,,0.08234691432407606,139.964,0.753000020980835,-0.03452814662917856
140.12069,,0.08594377515640823,140.434,0.7739999890327454,0.01066944934164794
140.586207,,0.05325177486478917,140.897,0.7760000228881836,0.014527403956468026
141.05172399999998,,0.0023465300396193632,141.365,0.7739999890327454,0.009741116846989157
141.51724099999998,,0.043668854765370614,141.827,0.5929999947547913,-0.3849428937425078
141.982759,,0.07223156859192188,142.29,0.7739999890327454,0.009131985669618786
142.44827600000002,,0.08373139052606861,142.76,0.7490000128746033,-0.045495660492232436
142.913793,,0.08459053162316887,143.226,0.777999997138977,0.017631165060408162
143.37931,,0.0811672446607495,143.688,0.8679999709129333,0.21376737629001707
143.844828,,0.07812135756729655,144.154,0.7900000214576721,0.0440033789805021
144.310345,,0.07774445117899503,144.62,0.7739999890327454,0.009421396782459113
144.77586200000002,,0.07828289524273396,145.079,0.7730000019073486,0.007614481848859889
145.241379,,0.07451650068091666,145.545,0.7739999890327454,0.010248055852775825
145.706897,,0.06290399136158104,146.011,0.6119999885559082,-0.3421722276804401
146.172414,,0.04688019197364771,146.476,0.7699999809265137,0.0026217861731383583
146.637931,,0.035530141833035045,146.941,0.7730000019073486,0.00975710050501009
147.103448,,0.03567136373069103,147.405,0.7739999890327454,0.012551435544935038
147.568966,,0.0452937479067516,147.874,0.7820000052452087,0.030593906658138572
148.034483,,0.055333692732106025,148.335,0.7580000162124634,-0.021102095947147972
148.5,,0.057954818406267275,148.805,0.7710000276565552,0.0077712741940503816
148.965517,,0.05278592455156145,149.268,0.7839999794960022,0.0365869143503474
149.43103399999998,,0.045064022506963064,149.73,0.7739999890327454,0.015221209879444423
149.89655199999999,,0.038546997157909185,150.195,0.7630000114440918,-0.008409264493706837
150.362069,,0.03143120749077224,150.66,0.765999972820282,-0.0016361053760321244
150.82758600000003,,0.019274425595914697,151.126,0.7770000100135803,0.022461580413550584
151.293103,,0.0007346443405607788,151.593,0.7730000019073486,0.013770615955110067
151.758621,,0.020331209454441702,152.059,0.777999997138977,0.02457783473996998
152.224138,,0.03792723956592509,152.524,0.765999972820282,-0.0017594095370128348
152.68965500000002,,0.0484263601813528,152.99,0.7580000162124634,-0.019484060682792848
153.155172,,0.05237418387316136,153.457,0.7549999952316284,-0.026409398621720856
153.62069,,0.052742848042318664,153.915,0.7480000257492065,-0.042131502299918355
154.086207,,0.051936812629257874,154.379,0.7799999713897705,0.027046058500071374
154.551724,,0.050235360952857425,154.849,0.7739999890327454,0.013385278419031262
155.017241,,0.04650915458683126,155.312,0.7570000290870667,-0.024272083619386146
155.482759,,0.040191859081774604,155.775,0.7739999890327454,0.01213183553671355
155.948276,,0.03270821045457449,156.24,0.7519999742507935,-0.03642447782770288
156.413793,,0.026900099695706736,156.704,0.7839999794960022,0.03269301676611697
156.87931,,0.024762556289560447,157.17,0.7480000257492065,-0.04629193237406608
157.34482799999998,,0.025838039495770876,157.635,0.777999997138977,0.0185766539353832
157.81034499999998,,0.028007363484705266,158.101,0.7789999842643738,0.020343268536138166
158.275862,,0.029405743764916698,158.567,0.7599999904632568,-0.021370919732289592
158.741379,,0.02911746950695516,159.033,0.7760000228881836,0.013269637482431318
159.20689700000003,,0.0266095398546656,159.498,0.7739999890327454,0.008803588957586544
159.672414,,0.02167739496330258,159.964,0.7590000033378601,-0.023871972383467506
160.137931,,0.015338575684399655,160.427,0.7760000228881836,0.013281929504517622
160.60344800000001,,0.009945976580325446,160.889,0.7490000128746033,-0.04531565370664179
161.06896600000002,,0.007277340379495763,161.36,0.7490000128746033,-0.04498801923274555
161.534483,,0.006386279823769077,161.823,0.7829999923706055,0.029505489811564544
162.0,,0.004379110922557222,162.291,0.7760000228881836,0.014754653474420622
162.465517,,7.27888137027758e-05,162.753,0.7739999890327454,0.01096205390663458
162.931034,,0.004860083488310494,163.218,0.75,-0.040713715095725654
163.396552,,0.006861180071857516,163.681,0.7739999890327454,0.012213184791197118
163.862069,,0.005303221936957012,164.147,0.6340000033378601,-0.2921528206938055
164.327586,,0.0014855443368694788,164.612,0.7590000033378601,-0.019193761471091263
164.793103,,0.003989036639040747,165.078,0.7649999856948853,-0.005528191221692606
165.258621,,0.011725880831022176,165.542,0.7609999775886536,-0.013699117287548954
165.72413799999998,,0.021087943989455182,166.008,0.777999997138977,0.023815093833244014
166.189655,,0.028948302821872014,166.472,0.7799999713897705,0.028568698134049875
166.655172,,0.031886400229536725,166.937,0.7699999809265137,0.0070856402758396365
167.12069,,0.02884675881784127,167.405,0.7950000166893005,0.06175296065196014
167.58620699999997,,0.02098597896070979,167.868,0.7620000243186951,-0.010050198927513963
168.051724,,0.009932639131560788,168.331,0.7770000100135803,0.02260931260470694
168.517241,,0.0026215616208401073,168.801,0.7789999842643738,0.026834132311916857
168.98275900000002,,0.01449512522848599,169.264,0.7599999904632568,-0.014801163874708787
169.44827600000002,,0.024154467948559282,169.727,0.7730000019073486,0.01317836023880239
169.913793,,0.03218120720180623,170.192,0.656000018119812,-0.24216034857696003
170.37931,,0.038794863177993376,170.656,0.7760000228881836,0.018758222664194805
170.844828,,0.03799964533522337,171.122,0.7609999775886536,-0.014505646492240518
171.310345,,0.0171875218207636,171.589,0.7580000162124634,-0.02167063972889877
171.775862,,0.03105684320070675,172.055,0.7910000085830688,0.0495701757605225
172.241379,,0.09390208583487632,172.516,0.7390000224113464,-0.06437915978624317
172.706897,,0.13915010223567362,172.981,0.7739999890327454,0.011228643520826975
173.172414,,0.1373104939720739,173.454,0.7519999742507935,-0.037311789183308575
173.637931,,0.08534204256268232,173.912,0.7590000033378601,-0.02261757221538833
174.103448,,0.008698943202203168,174.375,0.777999997138977,0.018291719724730066
174.568966,,0.058985565053501374,174.845,0.7580000162124634,-0.025679158333706004
175.034483,,0.09800595427055751,175.309,0.9599999785423279,0.41411303819284717
175.5,,0.1086805256216738,175.771,0.7580000162124634,-0.026153109964951883
175.96551699999998,,0.10219720444948041,176.237,0.781000018119812,0.023894733613486967
176.43103399999998,,0.08914889709357249,176.7,0.734000027179718,-0.07844684636148569
176.896552,,0.07526542239560133,177.166,0.7820000052452087,0.026296998012668774
177.36206900000002,,0.06332221700413469,177.631,0.7760000228881836,0.013503239198768014
177.827586,,0.05499404852636633,178.096,0.75,-0.04276265171545621
178.293103,,0.049946908183946155,178.562,0.7760000228881836,0.014349933727409094
178.758621,,0.04514838449105921,179.028,0.746999979019165,-0.048289216277861965
179.224138,,0.0374427655292698,179.494,0.7630000114440918,-0.012831872105438966
179.68965500000002,,0.027190881594441444,179.96,0.7730000019073486,0.00959240009101696
180.155172,,0.01809833668825901,180.423,0.800000011920929,0.0690742214797793
180.62069,,0.01282257613954371,180.886,0.7739999890327454,0.013088470568434615
181.086207,,0.00977666159374582,181.349,0.7609999775886536,-0.014594953051837792
181.551724,,0.005345291234364138,181.819,0.7580000162124634,-0.02053267556227955
182.01724099999998,,0.0013395795328785946,182.279,0.7789999842643738,0.025757702360430356
182.482759,,0.00725119149425291,182.749,0.7739999890327454,0.015327961883704333
182.948276,,0.009109392343127746,183.215,0.7839999794960022,0.03748869090858591
183.413793,,0.006761510051452334,183.674,0.765999972820282,-0.0014536267464768863
183.87931,,0.002515659592240104,184.139,0.7590000033378601,-0.01654069958207435
184.34482799999998,,0.0013707452491009426,184.608,0.781000018119812,0.03143776164349613
184.81034499999998,,0.003455522564145416,185.073,0.7599999904632568,-0.014382280176319085
185.27586200000002,,0.002611146424159697,185.538,0.7760000228881836,0.020293324176014624
185.74137900000002,,0.0014528145244480548,186.003,0.7599999904632568,-0.014856990616188497
186.206897,,0.007196509924837762,186.468,0.7599999904632568,-0.015249179438306951
186.672414,,0.011960968351845236,186.934,0.7739999890327454,0.014771429899337007
187.137931,,0.014150267328593182,187.394,0.7599999904632568,-0.0162833343686943
187.60344800000001,,0.014385181980397593,187.864,0.7519999742507935,-0.03432275590523028
188.06896600000002,,0.014297078021614902,188.327,0.8579999804496765,0.19596765303417799
188.534483,,0.014476605995030471,188.789,0.7760000228881836,0.016658092575005043
189.0,,0.014180589301304253,189.257,0.7760000228881836,0.016002913373180862
189.465517,,0.013177890946968652,189.719,0.7580000162124634,-0.02384449912803207
189.931034,,0.012917949838346697,190.185,0.7760000228881836,0.014782002505483352
190.39655199999999,,0.014757693256947355,190.649,0.7620000243186951,-0.016247603523590233
190.862069,,0.01748491860524868,191.114,0.7870000004768372,0.03776725919083351
191.327586,,0.018251975045396142,191.579,0.7739999890327454,0.00908499108413875
191.793103,,0.016418684211925102,192.045,0.7620000243186951,-0.017316190679139247
192.25862099999998,,0.014918181827325898,192.512,0.7409999966621399,-0.0632161756151806
192.72413799999998,,0.016523157234775467,192.978,0.7599999904632568,-0.021857015231686535
193.189655,,0.019732368091179984,193.446,0.7860000133514404,0.03486786698269058
193.655172,,0.020138117994770825,193.908,0.7799999713897705,0.021989830953318384
194.12069000000002,,0.01572887950098179,194.371,0.7599999904632568,-0.021281118489372027
194.586207,,0.009196289640206615,194.834,0.7770000100135803,0.01615627906414945
195.051724,,0.0047210513757736,195.302,0.7749999761581421,0.01228557195816544
195.517241,,0.003965031168969897,195.764,0.7760000228881836,0.015022730813687067
195.98275900000002,,0.0057215663615706285,196.23,0.777999997138977,0.019993068146747183
196.448276,,0.007976144487017634,196.7,0.753000020980835,-0.03382450137488095
196.913793,,0.009243054907521338,197.159,0.7580000162124634,-0.022267851228819927
197.37931,,0.008871235449065568,197.63,0.7760000228881836,0.017605768036607676
197.844828,,0.007295665286655153,198.089,0.777999997138977,0.022596049711062823
198.310345,,0.005821163676669112,198.56,0.777999997138977,0.023185176349373518
198.775862,,0.005483216169549712,199.026,0.7540000081062317,-0.028575708649824814
199.241379,,0.006054627629043425,199.49,0.7480000257492065,-0.04120058922176131
199.706897,,0.006238324361037588,199.956,0.7570000290870667,-0.02123974110242855
200.172414,,0.004676153175315139,200.416,0.753000020980835,-0.029706054438418016
200.63793099999998,,0.0009891538809659365,200.886,0.7760000228881836,0.02053930468092122
201.103448,,0.0036575209958731544,201.349,0.7609999775886536,-0.012119671420155943
201.568966,,0.007155254555794488,201.812,0.7760000228881836,0.020464970088857583
202.034483,,0.008219209864589242,202.275,0.7609999775886536,-0.012423212527335947
202.5,,0.007482236756756291,202.745,0.7739999890327454,0.015584090783693149
202.965517,,0.006391734929546608,203.21,0.7590000033378601,-0.01750802768609572
203.431034,,0.005496424493024273,203.674,0.7590000033378601,-0.018005382535370894
203.896552,,0.004595103997775994,204.14,0.8180000185966492,0.10996871433793036
204.36206900000002,,0.004053437733869521,204.604,0.7820000052452087,0.030921048272946977
204.827586,,0.004808762125371487,205.07,0.7820000052452087,0.0302733272113364
205.293103,,0.007001088842545712,205.535,0.765999972820282,-0.005245554158926582
205.758621,,0.009364842373161299,206.001,0.7549999952316284,-0.02986447419736278
206.224138,,0.010313805536110736,206.461,0.7820000052452087,0.028331552805487343
206.689655,,0.009420720962836726,206.926,0.753000020980835,-0.035431068444215424
207.155172,,0.0076243189255719435,207.394,0.7549999952316284,-0.03159274369266111
207.62069,,0.006096158082760081,207.856,0.7739999890327454,0.00936132646705628
208.086207,,0.005263001595263027,208.319,0.7570000290870667,-0.028023277234223577
208.551724,,0.004967921233504098,208.789,0.7789999842643738,0.01966268192884785
209.01724099999998,,0.005020553619549261,209.257,0.7879999876022339,0.039137962468719
209.482759,,0.005200581969764608,209.72,0.7480000257492065,-0.048024695358197686
209.948276,,0.005077340024856712,210.186,0.7760000228881836,0.013076299101460557
210.413793,,0.004276762472276204,210.645,0.7519999742507935,-0.039000042369797705
210.87930999999998,,0.0028667630205700388,211.111,0.7080000042915344,-0.13454420791750982
211.344828,,0.0012720657733967665,211.576,0.777999997138977,0.018372264691140144
211.810345,,9.672169559018915e-05,212.042,0.7749999761581421,0.01233142697651268
212.27586200000002,,0.0008655511468838573,212.508,0.7789999842643738,0.021611690446316664
212.741379,,0.0003931465594280999,212.973,0.7770000100135803,0.017873563527185613
213.206897,,0.0019478430411293446,213.434,0.7900000214576721,0.04685008832446054
213.672414,,0.005635039165307923,213.904,0.7570000290870667,-0.024376377224632807
214.137931,,0.008603913829228921,214.364,0.7789999842643738,0.024216647958387887
214.60344800000001,,0.008993251761435332,214.834,0.7990000247955322,0.06842677038982191
215.068966,,0.0072196558733742516,215.294,0.7590000033378601,-0.018127115311135325
215.534483,,0.005227008053348143,215.765,0.7699999809265137,0.006366036796573323
216.0,,0.003530537578185755,216.23,0.8759999871253967,0.23775217612766308
216.465517,,0.00023818281501116346,216.693,0.7739999890327454,0.01588876599771787
216.93103399999998,,0.006434306577380109,217.158,0.7590000033378601,-0.016536122915451833
217.39655199999999,,0.015597814941982601,217.623,0.7580000162124634,-0.01857467136344369
217.862069,,0.02421898308677273,218.089,0.7879999876022339,0.04680556314912194
218.327586,,0.029574528103595288,218.554,0.777999997138977,0.0249204939890381
218.793103,,0.030796974964470324,219.019,1.027999997138977,0.5693722199919701
219.25862099999998,,0.028663050679884932,219.479,0.7590000033378601,-0.016996977071146863
219.724138,,0.024493870635077297,219.944,0.7820000052452087,0.032701238617999284
220.18965500000002,,0.019156744800442646,220.412,0.8029999732971191,0.07795187180854507
220.65517200000002,,0.01291001082918831,220.875,0.7480000257492065,-0.04245012318326752
221.12069,,0.006183063312523873,221.345,0.7450000047683716,-0.04962273817474004
221.586207,,0.00025295147120164586,221.808,0.7870000004768372,0.04120230741292508
222.051724,,0.003228100940596525,222.272,0.753000020980835,-0.03357019196869942
222.517241,,0.003441769464754186,222.734,0.7940000295639038,0.055057261787846014
222.98275900000002,,0.0011755234921048208,223.2,0.7599999904632568,-0.019691128732432863
223.448276,,0.0013066993802688235,223.665,0.7870000004768372,0.03850201782569068
223.913793,,0.0012245566381599731,224.13,0.7599999904632568,-0.020888544285796475
224.37931,,0.0031414524724088073,224.597,0.9020000100135803,0.2879961313070071
224.844828,,0.011302433199248774,225.063,0.7739999890327454,0.008746716267283731
225.31034499999998,,0.02093419146342767,225.53,0.765999972820282,-0.008953446406641577
225.775862,,0.028679251945156744,225.989,0.7599999904632568,-0.02217875836977703
226.241379,,0.0296278118993139,226.461,0.7820000052452087,0.025721062724401614
226.706897,,0.01746371697858191,226.919,0.7749999761581421,0.010565255578203493
227.172414,,0.01099085979630127,227.39,0.7739999890327454,0.008604814894395154
227.63793099999998,,0.0493185777939541,227.853,0.7710000276565552,0.0024044670305324416
228.103448,,0.08169377149762258,228.316,0.7739999890327454,0.009383676834910974
228.56896600000002,,0.09282357656839962,228.779,0.7480000257492065,-0.04672314778415932
229.03448300000002,,0.07906139706957002,229.244,0.503000020980835,-0.5798808197022456
229.5,,0.04982921291463629,229.715,0.7739999890327454,0.011195436214765694
229.965517,,0.018803430544047962,230.174,0.7760000228881836,0.016252512172593884
230.431034,,0.005808866633808473,230.645,0.7730000019073486,0.010438240889385319
230.896552,,0.02389668218067597,231.111,0.7519999742507935,-0.03459141404787782
231.362069,,0.03940361275300792,231.575,0.7549999952316284,-0.027355292368202243
231.827586,,0.05516917838842337,232.04,0.7580000162124634,-0.020162277200158688
232.293103,,0.07069514663394319,232.505,0.7599999904632568,-0.015210772000009759
232.758621,,0.08296006813930383,232.97,0.781000018119812,0.031054791664952917
233.224138,,0.08837977665971249,233.431,0.7609999775886536,-0.012100291340788369
233.689655,,0.08464758979777183,233.9,0.7749999761581421,0.018709567998901562
234.155172,,0.07234277009922346,234.36,0.7839999794960022,0.0385071607967644
234.62069,,0.055683382111746046,234.83,0.7599999904632568,-0.01371624213561151
235.086207,,0.04088455428743622,235.291,0.7820000052452087,0.03414926623527115
235.55172399999998,,0.03225310292963297,235.76,0.8119999766349792,0.09931658168794502
236.01724099999998,,0.029238043898044908,236.226,0.7789999842643738,0.027107186569228253
236.482759,,0.02751781030419048,236.688,0.7620000243186951,-0.010358531282470218
236.94827600000002,,0.02324487198679863,237.154,0.7739999890327454,0.015252165624834241
237.413793,,0.01654385874656496,237.619,0.7739999890327454,0.014629808539430487
237.87931,,0.011247109746585464,238.085,0.7509999871253967,-0.03617344323369293
238.344828,,0.010985732813951035,238.55,0.7559999823570251,-0.026027329444883455
238.810345,,0.014843123339600639,239.009,0.6949999928474426,-0.15970449512509777
239.27586200000002,,0.01694259481400657,239.476,0.7580000162124634,-0.02323961006508194
239.741379,,0.011276366007635256,239.941,0.7850000262260437,0.03480874220752941
240.206897,,0.0025541156918237684,240.405,0.7580000162124634,-0.0247499863154859
240.672414,,0.01853230258449687,240.874,0.7730000019073486,0.007256842317997405
241.137931,,0.02909763262003184,241.335,0.7839999794960022,0.03063246780961683
241.603448,,0.03091240005158917,241.804,0.753000020980835,-0.03739297026884893
242.068966,,0.02664023143191146,242.268,0.7749999761581421,0.010166980430492531
242.534483,,0.02186138430938366,242.73,0.7509999871253967,-0.042361574070910755
243.0,,0.020209857418302737,243.196,0.9739999771118164,0.44337761550181326
243.465517,,0.021073609457216,243.661,0.7799999713897705,0.020769998761473618
243.93103399999998,,0.021602810975053965,244.127,0.9660000205039978,0.4261990505859366
244.39655199999999,,0.020238260747920088,244.594,0.7749999761581421,0.010421514113628582
244.862069,,0.017761267002249607,245.059,0.7559999823570251,-0.030497695445857197
245.327586,,0.01586785627987661,245.523,0.7770000100135803,0.015841880606188664
245.793103,,0.01646254683323347,245.989,0.7609999775886536,-0.018333133097599617
246.258621,,0.021991712983758148,246.454,0.7630000114440918,-0.013217191935913239
246.724138,,0.03357537384691,246.92,0.7739999890327454,0.011558980406507302
247.18965500000002,,0.047259475761110385,247.383,0.7639999985694885,-0.009387886168934621
247.655172,,0.05449692685949604,247.845,0.796999990940094,0.06335090995330113
248.12069,,0.0494010706465296,248.316,0.7739999890327454,0.01406435247516084
248.586207,,0.03502855540119595,248.778,0.7820000052452087,0.032269961609111344
249.051724,,0.020042800653053593,249.244,0.7990000247955322,0.0700139791407407
249.517241,,0.009509675527796514,249.707,0.7770000100135803,0.022699878120497004
249.982759,,0.0020604300101107714,250.173,0.7519999742507935,-0.031260948951368224
250.44827600000002,,0.0030919952173287624,250.638,0.7760000228881836,0.021404814995314745
250.913793,,0.00030521709744980906,251.104,0.7720000147819519,0.01292925579404444
251.37931000000003,,0.01676013623185406,251.568,0.7749999761581421,0.01955770346631939
251.844828,,0.04372348839685079,252.033,0.6439999938011169,-0.26590500794064303
252.31034499999998,,0.06418050564605297,252.498,0.753000020980835,-0.028645703005646398
252.77586200000002,,0.06294519723338961,252.964,0.7620000243186951,-0.009397329709659036
253.241379,,0.03991304933207064,253.427,0.7609999775886536,-0.012068553369372664
253.706897,,0.009572552656865905,253.889,0.7580000162124634,-0.019215119785075323
254.172414,,0.012082958195550105,254.357,0.7559999823570251,-0.02428326500328098
254.63793099999998,,0.019150477621737338,254.819,0.7870000004768372,0.04246593137454268
255.10344800000001,,0.016706473306998867,255.29,0.7870000004768372,0.04162373616701559
255.56896600000002,,0.013719986613750764,255.753,0.7639999985694885,-0.00935498286379956
256.03448299999997,,0.01567043128288865,256.218,0.7480000257492065,-0.045085489829365465
256.5,,0.021752834254263873,256.682,0.7570000290870667,-0.02632659270094128
256.965517,,0.02726043728825763,257.148,0.7760000228881836,0.014268252558560573
257.431034,,0.028449667114760123,257.613,0.7739999890327454,0.009186149492237786
257.896552,,0.025579734775521223,258.079,0.765999972820282,-0.008870730316802987
258.362069,,0.021796956853284446,258.545,0.7839999794960022,0.029833689806678793
258.827586,,0.019785973217820923,259.011,0.7739999890327454,0.007668426241809356
259.29310300000003,,0.01977140082773132,259.475,0.7839999794960022,0.02922051336078668
259.758621,,0.020140371752326712,259.934,0.8690000176429749,0.21432495718077071
260.224138,,0.019214861543091127,260.401,0.7580000162124634,-0.027428436845527714
260.689655,,0.01634157980284551,260.864,0.7490000128746033,-0.04680707744409535
261.155172,,0.011880984275252004,261.335,0.7609999775886536,-0.020290703322726242
261.62068999999997,,0.006808179528894221,261.797,0.7789999842643738,0.019430498719612603
262.086207,,0.0024037666022166193,262.26,0.7549999952316284,-0.0322335145259837
262.551724,,0.0001870819165066944,262.73,0.781000018119812,0.02513409461179332
263.017241,,0.0006090129646356647,263.189,0.7570000290870667,-0.026353425652243728
263.482759,,0.0003721276750859705,263.661,0.7730000019073486,0.009357975148683783
263.94827599999996,,0.0014026659592004437,264.119,0.7850000262260437,0.036382464143758245
264.413793,,0.0017070344853752487,264.586,0.7580000162124634,-0.02155932539693011
264.87931,,0.0017242735846994893,265.052,0.7739999890327454,0.014154627243015139
265.34482799999995,,0.002227239397249288,265.517,0.7749999761581421,0.01713684796179837
265.810345,,0.0028602932945618184,265.983,0.7519999742507935,-0.03224505273103322
266.27586199999996,,0.0023492501384215977,266.445,0.7649999856948853,-0.0032948564532782913
266.741379,,0.0005878250057636209,266.915,0.7609999775886536,-0.011500195971590134
267.206897,,0.0002747304337277275,267.379,0.7739999890327454,0.017197885951358585
267.672414,,0.0021680032507369554,267.841,0.7480000257492065,-0.03921651949135684
268.137931,,0.007519517315721841,268.309,0.7580000162124634,-0.017352501548538037
268.603448,,0.012247613226460938,268.771,0.7850000262260437,0.04139370814209292
269.06896600000005,,0.012814453064952252,269.237,0.7739999890327454,0.017199519834072228
269.53448299999997,,0.009005247997680148,269.699,0.7580000162124634,-0.01803274857592739
270.0,,0.003947852242822792,270.165,0.7870000004768372,0.04464011209689479
270.465517,,0.0009536020327672221,270.631,0.7649999856948853,-0.003916448890954445
270.931034,,0.0007397754546992726,271.096,0.7519999742507935,-0.03296510434214506
271.396552,,0.0018766603316857841,271.56,0.7549999952316284,-0.027234150184423746
271.86206899999996,,0.0032208044074090282,272.026,0.7760000228881836,0.01765828695529774
272.327586,,0.004892165151648325,272.491,0.765999972820282,-0.005015084629607165
272.793103,,0.006922617618067793,272.956,0.7739999890327454,0.011526934950801059
273.258621,,0.008148759235078693,273.419,0.7789999842643738,0.02155966017974558
273.724138,,0.007296545326628163,273.889,0.753000020980835,-0.03589296852566655
274.18965499999996,,0.004791531630645472,274.35,0.7739999890327454,0.009127511962221868
274.655172,,0.002647856981087043,274.819,0.7739999890327454,0.008495718162665977
275.12069,,0.002337893988946769,275.283,0.753000020980835,-0.03776909727654576
275.586207,,0.0033021310683435698,275.745,0.7910000085830688,0.04464043596087134
276.051724,,0.003968361906401318,276.211,0.777999997138977,0.016085401533573122
276.517241,,0.0037630563137174052,276.675,0.777999997138977,0.016006757636021565
276.98275900000004,,0.003415177434913856,277.14,0.7730000019073486,0.005190936691595389
277.448276,,0.003597246037857414,277.605,0.7699999809265137,-0.001114105098106197
277.913793,,0.004190256517128385,278.07,0.7689999938011169,-0.0029154078236573342
278.37931,,0.0047987386996024275,278.535,0.7599999904632568,-0.022011224461797346
278.844828,,0.0050082398360382155,279.001,0.7699999809265137,0.00040635300324549776
279.31034500000004,,0.0040949964805481395,279.468,0.8100000023841858,0.08828441497521242
279.77586199999996,,0.0015984935040618917,279.933,0.781000018119812,0.025915571434739635
280.241379,,0.0014964975232557235,280.394,0.7760000228881836,0.015889099777683477
280.706897,,0.003215597366560673,280.864,0.7580000162124634,-0.02243246130244671
281.172414,,0.0028029523349783845,281.327,0.7710000276565552,0.006783773691102594
281.637931,,0.0016856446317963963,281.789,0.7480000257492065,-0.0424592533061352
282.10344799999996,,0.001711951690566286,282.26,0.7580000162124634,-0.019861515112979514
282.568966,,0.003074068199998951,282.723,0.7739999890327454,0.015729009967173108
283.034483,,0.004475510169795439,283.189,0.7739999890327454,0.016360668749951505
283.5,,0.004894903512148144,283.654,0.7480000257492065,-0.039772401240449944
283.965517,,0.004674924577869295,284.119,0.7919999957084656,0.05646418847483639
284.431034,,0.004902843709123337,284.579,0.777999997138977,0.026193003196347785
284.89655200000004,,0.005907169287749598,285.045,0.8510000109672546,0.18531277412542368
285.362069,,0.006602858331447951,285.512,0.7590000033378601,-0.015197932566324568
285.827586,,0.00567415418849549,285.978,0.7850000262260437,0.04121920967487025
286.293103,,0.0034422342578048315,286.439,0.7739999890327454,0.016879087470034537
286.758621,,0.002109595179081807,286.909,0.7599999904632568,-0.014133063065975086
287.22413800000004,,0.0037777751687863236,287.372,0.7739999890327454,0.015735609888591295
287.689655,,0.008244475601572297,287.841,0.753000020980835,-0.03075084428615744
288.155172,,0.012824299002915299,288.302,0.7739999890327454,0.014185385096464186
288.62069,,0.014308541355876243,288.764,0.7570000290870667,-0.02372260888075986
289.086207,,0.011385828750098675,289.229,0.7820000052452087,0.02984345197115786
289.55172400000004,,0.005738509265245094,289.7,0.7609999775886536,-0.016809862500501115
290.01724099999996,,0.0009190038339205193,290.165,0.777999997138977,0.019351535921868435
290.482759,,0.0003477447509159752,290.624,0.7770000100135803,0.01635009615346851
290.948276,,0.0018842973684772928,291.089,0.7519999742507935,-0.038861223246175275
291.413793,,0.0054396602530449225,291.557,0.7570000290870667,-0.028613109172713955
291.87931,,0.008148719761466213,292.022,0.7760000228881836,0.012255635032193749
292.344828,,0.00884164403036384,292.487,0.7599999904632568,-0.022991966015084346
292.81034500000004,,0.006942983274643308,292.953,0.7739999890327454,0.0072685740983428025
293.275862,,0.0023802252882097474,293.416,0.7590000033378601,-0.02549549108960812
293.74137900000005,,0.00396092684341746,293.886,0.7739999890327454,0.007258941762622641
294.206897,,0.01039130903000734,294.349,0.7870000004768372,0.03581381874754691
294.672414,,0.015101922906848092,294.811,0.7820000052452087,0.025304616767813953
295.13793100000004,,0.016678270532084347,295.279,0.7739999890327454,0.008399550271652699
295.603448,,0.014927397945910574,295.742,0.777999997138977,0.017762419194144452
296.068966,,0.011913940487321074,296.208,0.7749999761581421,0.011979164790661563
296.534483,,0.011110632114667562,296.671,0.7599999904632568,-0.019866425079446606
297.0,,0.014084221396259226,297.137,0.7739999890327454,0.011524483830030414
297.46551700000003,,0.01828723867209304,297.604,0.7749999761581421,0.014621834213936058
297.931034,,0.019307281381744295,298.07,0.8769999742507935,0.23776589335262818
298.396552,,0.015355119713493919,298.534,0.6330000162124634,-0.2929284153474686
298.862069,,0.008681485075110476,299.0,0.7599999904632568,-0.015402182684686247
299.327586,,0.0025155447303881946,299.465,0.7559999823570251,-0.023362720529191264
299.79310300000003,,0.0024913210641491763,299.93,0.7739999890327454,0.016502770102118217
300.258621,,0.008255326369487701,300.393,0.7519999742507935,-0.030901778743280536
300.724138,,0.01605020900628879,300.856,0.7829999923706055,0.037022059003895935
301.189655,,0.023890465847439236,301.324,0.777999997138977,0.02636313698945204
301.65517200000005,,0.02750456647718402,301.786,0.7080000042915344,-0.12606759132127043
302.12069,,0.02408976331132949,302.257,0.7739999890327454,0.0176343666833857
302.586207,,0.015134610541882802,302.719,0.7580000162124634,-0.017472967215314765
303.05172400000004,,0.005614615964507386,303.185,0.777999997138977,0.02569929552701396
303.517241,,0.0006316087135260448,303.649,0.7789999842643738,0.027338115384942345
303.982759,,0.0027674695888508442,304.115,0.7739999890327454,0.015782592844829236
304.448276,,0.011770819010701511,304.58,0.7289999723434448,-0.08302240120401759
304.913793,,0.02546672318293862,305.039,0.7559999823570251,-0.025046103374624783
305.37931000000003,,0.04074047664214651,305.506,0.7580000162124634,-0.021591529506742556
305.844828,,0.054699306406915456,305.972,0.7570000290870667,-0.024700418463640777
306.310345,,0.06532444130761084,306.434,0.7739999890327454,0.011407510279963545
306.775862,,0.070416256418278,306.904,0.9210000038146973,0.33077295832055337
307.241379,,0.06647485461400743,307.365,0.7580000162124634,-0.025179783394023124
307.70689699999997,,0.05065305622419426,307.834,0.7739999890327454,0.008930886656846892
308.172414,,0.024658851380789132,308.297,0.7620000243186951,-0.017855277676324253
308.637931,,0.004501391238355256,308.76,0.777999997138977,0.01648537490666466
309.103448,,0.028549608830536612,309.226,0.7549999952316284,-0.03400086981792623
309.568966,,0.0417001874917621,309.696,0.7260000109672546,-0.09740829061391328
310.034483,,0.03953058891310699,310.154,0.7710000276565552,0.0005612431566757953
310.5,,0.016738873829714587,310.623,0.7559999823570251,-0.032028329180073214
310.96551700000003,,0.028064689034616837,311.088,0.7990000247955322,0.06190242124486587
311.431034,,0.08212973171520126,311.553,0.7839999794960022,0.02962345797984836
311.896552,,0.11764430977385654,312.018,0.7739999890327454,0.008378019748249366
312.362069,,0.10909791938192759,312.483,0.7229999899864197,-0.10206981579883229
312.827586,,0.05485416584125695,312.949,0.7649999856948853,-0.009802361071093453
313.29310300000003,,0.02041493231003402,313.416,0.753000020980835,-0.03510359086111004
313.758621,,0.08555560403754474,313.878,0.8050000071525574,0.07908284580822601
314.224138,,0.12421316834128443,314.339,0.7599999904632568,-0.018031634120887152
314.689655,,0.13890829650057143,314.808,0.7699999809265137,0.004679218448089344
315.155172,,0.1402941136520934,315.272,0.7580000162124634,-0.020569157688864467
315.62068999999997,,0.1361172131682561,315.734,0.7820000052452087,0.032557778642352556
316.086207,,0.1283683635269937,316.2,0.7620000243186951,-0.010256882148991677
316.551724,,0.11625476750726138,316.664,0.7739999890327454,0.016540927388025838
317.017241,,0.09932956200378977,317.13,0.8119999766349792,0.09986036814976001
317.482759,,0.07859827496972226,317.597,0.7590000033378601,-0.015216050263036856
317.94827599999996,,0.056689790854290205,318.063,0.7739999890327454,0.017703653358920653
318.413793,,0.037585264093146505,318.53,0.7739999890327454,0.01778376432036355
318.87931000000003,,0.024573030116555705,318.989,0.7820000052452087,0.035130955141725824
319.344828,,0.01664522529077734,319.454,0.7760000228881836,0.021817294261036714
319.810345,,0.0074735582165250045,319.92,0.7559999823570251,-0.022150776786323295
320.275862,,0.009498797182185336,320.39,0.6449999809265137,-0.2645202992859717
320.741379,,0.0335679759497155,320.852,0.7609999775886536,-0.012467106852564374
321.20689699999997,,0.055590847284453695,321.32,0.7620000243186951,-0.011066560051053229
321.672414,,0.06586351406719312,321.782,0.7739999890327454,0.01421696262120408
322.137931,,0.06287675712984318,322.249,0.777999997138977,0.02201614356721565
322.603448,,0.05329997945429064,322.713,0.7580000162124634,-0.022499579920068354
323.068966,,0.044005211589687135,323.178,0.765999972820282,-0.006012391112706244
323.53448299999997,,0.03588878631672067,323.645,0.7580000162124634,-0.02435401700023631
324.0,,0.02590284561903406,324.111,0.8230000138282776,0.11640397393866699
324.465517,,0.013341474836460115,324.575,0.7630000114440918,-0.015083614388470104
324.931034,,0.0019783301625857226,325.041,0.7739999890327454,0.008221056517400467
325.396552,,0.0041838246749832065,325.506,0.7720000147819519,0.0033309954881823854
325.86206899999996,,0.005432372897828012,325.964,0.7710000276565552,0.0007635348983264943
326.327586,,0.005322397345534654,326.434,0.781000018119812,0.022317141897113996
326.793103,,0.006120006119007766,326.897,0.7519999742507935,-0.040933724194261605
327.258621,,0.006692266079184956,327.364,0.7369999885559082,-0.07351945004789066
327.724138,,0.004496146341708259,327.827,0.7649999856948853,-0.012262725660000631
328.189655,,0.0015799397105105773,328.29,0.7739999890327454,0.007753568154394823
328.655172,,0.01016868377648852,328.76,0.7889999747276306,0.04098447111842858
329.12068999999997,,0.01816982415986003,329.225,0.6959999799728394,-0.16095359865244468
329.586207,,0.02268742068856268,329.688,0.7620000243186951,-0.016383655869257767
330.051724,,0.02327097426256862,330.154,0.7749999761581421,0.01279783178993176
330.517241,,0.022354062570708825,330.62,0.753000020980835,-0.03421766889556526
330.982759,,0.022782959057408885,331.086,0.7739999890327454,0.012476282490402607
331.44827599999996,,0.02486907146504659,331.545,0.7459999918937683,-0.047584463383389564
331.913793,,0.02624489186581638,332.011,0.7950000166893005,0.06008161801219148
332.37931,,0.02434788416175167,332.476,0.7739999890327454,0.015186175294844596
332.844828,,0.018745267806784215,332.941,0.7739999890327454,0.015960558527364076
333.310345,,0.01153284774248201,333.405,0.777999997138977,0.025343747554759988
333.77586199999996,,0.005905458102288216,333.875,0.7549999952316284,-0.024223175456792326
334.241379,,0.0039016717000382724,334.338,0.7749999761581421,0.019748132644072516
334.706897,,0.00498484762335915,334.801,0.7480000257492065,-0.03883310431480964
335.17241399999995,,0.006809369100876963,335.269,0.7599999904632568,-0.01261141593807963
335.637931,,0.007402807425740841,335.731,0.7739999890327454,0.017801010815232783
336.103448,,0.006502946354448176,336.197,0.7599999904632568,-0.01295244718440168
336.56896600000005,,0.0050960891127700275,336.663,0.7749999761581421,0.01931860157654626
337.034483,,0.004172433753188248,337.129,0.7480000257492065,-0.04005781126461853
337.5,,0.003913313904038247,337.594,0.7580000162124634,-0.018952641684831475
337.965517,,0.0038517416232577983,338.059,0.7590000033378601,-0.017563240174290166
338.431034,,0.0037991783975463056,338.523,0.7590000033378601,-0.01843631651995944
338.89655200000004,,0.004270997692493806,338.989,0.7720000147819519,0.008955913630849497
339.36206899999996,,0.005480315176773573,339.454,0.7749999761581421,0.014533145953273954
339.827586,,0.006326897951660128,339.919,0.7699999809265137,0.002682261152546621
340.293103,,0.005352309952219762,340.382,0.7739999890327454,0.010469267451002495
340.758621,,0.002589868854721682,340.845,0.7760000228881836,0.013957395780664433
341.224138,,0.0004897898111706734,341.309,0.777999997138977,0.01753042787502317
341.68965499999996,,0.0028822532752127267,341.778,0.7599999904632568,-0.022360755547041866
342.155172,,0.0049621181599001935,342.245,0.7570000290870667,-0.02944342594295557
342.62069,,0.007323449030945176,342.708,0.7910000085830688,0.04422942927129412
343.086207,,0.009511317205098554,343.174,0.7820000052452087,0.024379459094761115
343.551724,,0.010266190285589807,343.634,0.9259999990463257,0.33803239275313673
344.01724099999996,,0.008668647829315482,344.1,0.7789999842643738,0.01787270082374461
344.48275900000004,,0.005057460461585418,344.564,0.7720000147819519,0.0028922003238175185
344.948276,,0.0013210003947398989,345.03,0.7580000162124634,-0.027182364870985878
345.413793,,0.00016899321048529089,345.494,0.8040000200271606,0.07360564603443259
345.87931,,0.0031548173384697365,345.96,0.7770000100135803,0.015479321503120515
346.344828,,0.008782670433877425,346.43,0.8420000076293945,0.15789554690607416
346.81034500000004,,0.013083766944527779,346.894,0.765999972820282,-0.006795164281334101
347.275862,,0.013011312501922345,347.357,0.7039999961853027,-0.14093195009103007
347.741379,,0.009413084042084291,347.819,0.7739999890327454,0.012534437267693106
348.206897,,0.006064211974787336,348.29,0.777999997138977,0.02220380300437485
348.672414,,0.0056936667414591415,348.753,0.7580000162124634,-0.020448518835572645
349.13793100000004,,0.007642766264006763,349.219,0.7699999809265137,0.006553315559120625
349.60344799999996,,0.00951538144426185,349.682,0.7680000066757202,0.0029657615747567152
350.068966,,0.010073380391681852,350.148,0.7889999747276306,0.049375892436753485
350.534483,,0.009789877587237617,350.612,0.7739999890327454,0.01722426995760916
351.0,,0.009337367552374987,351.078,0.7480000257492065,-0.03903943292211502
351.465517,,0.008754770226874367,351.545,0.7749999761581421,0.02000598617821266
351.93103399999995,,0.00809784330984709,352.011,0.7570000290870667,-0.019152995093558216
352.396552,,0.007848603214256632,352.476,0.7630000114440918,-0.006191457991113885
352.862069,,0.008186648290868981,352.934,0.7570000290870667,-0.019537125671043844
353.32758600000005,,0.008455532351715884,353.402,0.765999972820282,-0.00035802598085706114
353.793103,,0.00780492552647952,353.864,0.7860000133514404,0.04264554489484032
354.258621,,0.0059950981357974305,354.334,0.777999997138977,0.024524285591205917
354.72413800000004,,0.003367088015201914,354.797,0.7770000100135803,0.021552418654451032
355.189655,,0.0004677134855859324,355.26,0.7820000052452087,0.031575367738644465
355.655172,,0.0021501720731457495,355.73,0.7620000243186951,-0.012918564563152045
356.12069,,0.00417226025397018,356.189,0.7620000243186951,-0.013862885203017046
356.586207,,0.005678476557023403,356.661,0.7739999890327454,0.01134171889233097
357.05172400000004,,0.006873189873959599,357.119,0.7820000052452087,0.027866143574926464
357.517241,,0.007786959090363546,357.587,0.7760000228881836,0.01395160184235865
357.982759,,0.008295951151635056,358.052,0.7599999904632568,-0.02166233785518442
358.448276,,0.008152722286362251,358.52,0.777999997138977,0.016907476062064948
358.913793,,0.007095238611858073,358.985,0.7590000033378601,-0.025003710950446702
359.37931000000003,,0.005339876943229639,359.446,0.7680000066757202,-0.005768438036613355
359.844828,,0.0037691141127340066,359.909,0.7739999890327454,0.007086304997794575
360.310345,,0.003080942152881934,360.379,0.7590000033378601,-0.025648580647720482
360.775862,,0.0028769642848957035,360.841,0.777999997138977,0.015853850868497946
361.241379,,0.0021438504851958246,361.305,0.7570000290870667,-0.029629779695054006
361.706897,,0.0006074400469423416,361.775,0.753000020980835,-0.03792547557507183
362.172414,,0.0008844583742052321,362.24,0.7739999890327454,0.008382961840892043
362.63793100000004,,0.001389395595038947,362.703,0.7699999809265137,0.0003467863239171305
363.103448,,0.000983576460163244,363.169,0.7559999823570251,-0.029374995210645793
363.568966,,0.0010020045566867812,363.634,0.7580000162124634,-0.02416172271502287
364.034483,,0.003511955623950865,364.099,0.7760000228881836,0.01596063832400963
364.5,,0.009954587740951608,364.564,0.7739999890327454,0.012533877315071343
364.96551700000003,,0.01908306544566091,365.03,0.7620000243186951,-0.012683421900284018
365.431034,,0.02626278453928108,365.49,0.777999997138977,0.02306889929219702
365.896552,,0.026455944038556285,365.956,0.7620000243186951,-0.010954819098583642
366.362069,,0.018983434177066782,366.419,0.7739999890327454,0.015938829536145057
366.827586,,0.008552025543281475,366.889,0.7710000276565552,0.010045681544512111
367.29310300000003,,0.0007267467073819845,367.353,0.765999972820282,-0.0003315473801640736
367.758621,,0.0028962325774451163,367.816,0.7820000052452087,0.03490098710939838
368.224138,,0.004374448717319123,368.279,0.7580000162124634,-0.017165732959030313
368.689655,,0.0056360400681685265,368.749,0.9020000100135803,0.2966228350387756
369.155172,,0.006920650596105799,369.215,0.7599999904632568,-0.012839670141082855
369.62068999999997,,0.008868440105096836,369.674,0.7749999761581421,0.019588806790078732
370.086207,,0.01394352671509343,370.139,0.7739999890327454,0.017007308882539433
370.55172400000004,,0.02378720502665088,370.604,0.7570000290870667,-0.020572220663325615
371.017241,,0.035359996654341204,371.07,0.6169999837875366,-0.3262524952195668
371.482759,,0.04169524327303194,371.535,0.7749999761581421,0.017195712037660398
371.948276,,0.03789605304743791,372.0,0.7789999842643738,0.025049982072328798
372.413793,,0.02589585623359661,372.468,0.9359999895095825,0.3661879190933693
372.87931000000003,,0.012464767058829082,372.934,0.7599999904632568,-0.01818364908772089
373.344828,,0.003315932423299578,373.397,0.7739999890327454,0.011393572085222573
373.810345,,0.00044201979839727774,373.86,0.7580000162124634,-0.024358367976886237
374.275862,,0.004328030872523609,374.327,0.753000020980835,-0.03608841291263064
374.741379,,0.016029071093309907,374.789,0.7570000290870667,-0.028128918425400617
375.20689699999997,,0.03554266258560657,375.257,0.8100000023841858,0.08668992337240584
375.672414,,0.05893570809784726,375.719,0.7699999809265137,-0.0009789850303595327
376.137931,,0.07849766066344976,376.185,0.7480000257492065,-0.04929050925365684
376.603448,,0.08678337973326193,376.649,0.777999997138977,0.015839686996583814
377.068966,,0.08153197340727333,377.114,0.7490000128746033,-0.04741102921051105
377.53448299999997,,0.06700746066657057,377.579,0.7590000033378601,-0.025533301294600415
378.0,,0.04969791763774164,378.045,0.7739999890327454,0.0073963325626133815
378.465517,,0.03210470551163164,378.513,0.7829999923706055,0.02740630115932145
378.931034,,0.011475059123439569,378.978,0.781000018119812,0.023591945446639315
379.396552,,0.015033078121067784,379.446,0.7599999904632568,-0.021492680384996868
379.862069,,0.04544936184749107,379.908,0.7699999809265137,0.0010643379548977224
380.327586,,0.07434312454399776,380.375,0.7549999952316284,-0.030764851566695634
380.79310300000003,,0.09742875051489677,380.838,0.7990000247955322,0.06600108373050459
381.258621,,0.1127248257087245,381.301,0.7490000128746033,-0.04199819552858529
381.724138,,0.11829488014197373,381.764,0.7739999890327454,0.01340032430414258
382.189655,,0.1121316250680612,382.23,0.753000020980835,-0.031448349207725566
382.655172,,0.09540493887360006,382.7,0.7820000052452087,0.03257879676622494
383.12068999999997,,0.07401697233368855,383.166,0.75,-0.03637370558904964
383.586207,,0.05516293102861853,383.63,0.7570000290870667,-0.02046456620034496
384.051724,,0.04213174506278773,384.096,0.7609999775886536,-0.011217536114476494
384.517241,,0.032915466964709754,384.56,0.7580000162124634,-0.017362775525420263
384.982759,,0.0241252758791381,385.025,0.8009999990463257,0.07655670152123058
385.44827599999996,,0.01590139188493158,385.491,0.7739999890327454,0.017811496612543356
385.913793,,0.0120869757361948,385.949,0.7749999761581421,0.019906518935136643
386.37931,,0.015249116894748909,386.419,0.7739999890327454,0.01748421274747895
386.84482799999995,,0.022557578227290962,386.882,0.7229999899864197,-0.09402447672119947
387.310345,,0.0276988666951581,387.35,0.7549999952316284,-0.02484866289513666
387.775862,,0.026594103042290804,387.811,0.7580000162124634,-0.018980514487822314
388.241379,,0.020350717726834715,388.275,0.777999997138977,0.02381890827460805
388.70689699999997,,0.012718207411658142,388.745,0.7760000228881836,0.018606570697565827
389.172414,,0.005743872682840051,389.204,0.777999997138977,0.022053286215417883
389.637931,,0.0013249064276017026,389.671,0.777999997138977,0.021114845385598362
390.103448,,0.009332094936807315,390.136,0.7720000147819519,0.007104881811466946
390.56896600000005,,0.016827553829334443,390.602,0.753000020980835,-0.03519947425529241
391.03448299999997,,0.02140692138431186,391.067,0.7860000133514404,0.03584125895823514
391.5,,0.022862167513790235,391.534,0.765999972820282,-0.00850477644582082
391.965517,,0.023492028506019495,392.0,0.777999997138977,0.016971308138450734
392.431034,,0.024950567984650937,392.464,0.781000018119812,0.022965107142044604
392.896552,,0.026140787915425175,392.93,0.7749999761581421,0.009493159470416153
393.36206899999996,,0.025166668686672913,393.394,0.7630000114440918,-0.016896526205318445
393.827586,,0.022402910739232115,393.856,0.7770000100135803,0.01351978370969291
394.293103,,0.02026446742253724,394.319,0.7739999890327454,0.0070631034567715445
394.75862099999995,,0.020196852806118208,394.789,0.753000020980835,-0.03844759947239492
395.224138,,0.021156859873551693,395.257,0.7649999856948853,-0.01190925912269904
395.68965499999996,,0.021339608171534068,395.719,0.7749999761581421,0.010414059215556711
396.155172,,0.020454519295372463,396.185,0.7680000066757202,-0.004172954934764936
396.62069,,0.019617970060546903,396.65,0.7580000162124634,-0.02518950606837148
397.086207,,0.0194978384252918,397.115,0.7630000114440918,-0.013443422213838421
397.551724,,0.019520865921526846,397.575,0.777999997138977,0.02014672107913904
398.017241,,0.01904272053988523,398.04,0.7789999842643738,0.0232666682422011
398.48275900000004,,0.018482632803080767,398.505,0.7570000290870667,-0.023719732634638533
398.94827599999996,,0.018781404282497558,398.971,0.777999997138977,0.02294921511526932
399.413793,,0.020184924631716696,399.439,0.7739999890327454,0.015098200608703692
399.87931,,0.021993928899906524,399.901,0.7749999761581421,0.018060804808449023
400.344828,,0.023131626795827778,400.364,0.7570000290870667,-0.02047451113738699
400.810345,,0.02268391209333617,400.834,0.7609999775886536,-0.011204717890660985
401.27586199999996,,0.020589318127133955,401.294,0.7739999890327454,0.01753128280785661
401.741379,,0.018358240567632585,401.764,0.7910000085830688,0.054828386836984676
402.206897,,0.018293867948850254,402.23,0.7789999842643738,0.028783692098625274
402.672414,,0.021029618782731047,402.692,0.7540000081062317,-0.0257480211862164
403.137931,,0.02429827247521671,403.158,0.777999997138977,0.0263103442312423
403.60344799999996,,0.024929664390299026,403.624,0.7739999890327454,0.01720991110843259
404.068966,,0.021620137114861215,404.09,0.7580000162124634,-0.018179455732646406
404.534483,,0.015201849645724715,404.55,0.7480000257492065,-0.04062724418090952
405.0,,0.007078739490675279,405.016,0.7580000162124634,-0.019613078074202654
405.465517,,0.0015187621704349178,405.483,0.7559999823570251,-0.024830405112998794
405.931034,,0.009097151086164216,405.948,0.781000018119812,0.028714778927720546
406.39655200000004,,0.013746398092217803,406.409,0.7599999904632568,-0.017990908598621905
406.862069,,0.013900979360236545,406.879,0.777999997138977,0.02026677549346189
407.327586,,0.0095050819158053,407.342,0.753000020980835,-0.035132646459774625
407.793103,,0.002486344864467863,407.804,0.777999997138977,0.018453209487959643
408.258621,,0.0047337589798666395,408.275,0.7770000100135803,0.015474354597016026
408.72413800000004,,0.012067788235433275,408.738,0.7450000047683716,-0.05493841473219929
409.18965499999996,,0.022329480292499013,409.204,0.777999997138977,0.016385875182895256
409.655172,,0.037100077722339954,409.664,0.7580000162124634,-0.02761558180570043
410.12069,,0.05155374633717203,410.129,0.9070000052452087,0.29673306801631555
410.586207,,0.05531766400524173,410.594,0.7749999761581421,0.009050766222032186
411.05172400000004,,0.040924265584846686,411.059,0.7760000228881836,0.01129945361497138
411.51724099999996,,0.012018172010442935,411.524,0.7760000228881836,0.01153528160834156
411.982759,,0.01803957734627235,411.99,0.7630000114440918,-0.016392869689646702
412.448276,,0.03666096456529178,412.456,0.7739999890327454,0.008112771060713078
412.913793,,0.041094218816134745,412.922,0.7599999904632568,-0.021718007455189873
413.37931,,0.03777040377583604,413.39,0.7599999904632568,-0.020938546187743372
413.844828,,0.03465496874025967,413.852,0.7760000228881836,0.0147849999605047
414.31034500000004,,0.0352547716833742,414.32,0.7760000228881836,0.015710180154956607
414.775862,,0.03869301685638548,414.782,0.7760000228881836,0.01666780608657726
415.241379,,0.04318665812943942,415.248,0.7580000162124634,-0.021587093603846943
415.706897,,0.047976245781200265,415.713,0.765999972820282,-0.003223571188735707
416.172414,,0.05211664787199393,416.179,0.777999997138977,0.02380028443729704
416.63793100000004,,0.053187264885667,416.645,0.7820000052452087,0.0333146023669823
417.103448,,0.049143353083019335,417.111,0.7739999890327454,0.016580834402488823
417.568966,,0.04139181845539315,417.575,0.7739999890327454,0.017150798605488092
418.034483,,0.03410203355182202,418.041,0.7699999809265137,0.008863171014883
418.5,,0.029551819039839226,418.506,0.7820000052452087,0.03527815318198665
418.96551700000003,,0.02557266468339125,418.964,0.7580000162124634,-0.016902437814989506
419.43103399999995,,0.01890235349780537,419.434,0.7419999837875366,-0.05182236563289169
419.896552,,0.010026337876457276,419.897,0.7639999985694885,-0.004120770949281787
420.362069,,0.002779312203905698,420.364,0.7609999775886536,-0.011045352629541441
420.827586,,0.0008365335232255002,420.827,0.7739999890327454,0.01674097665943116
421.293103,,0.0033176308240039504,421.29,0.7590000033378601,-0.016606013569815413
421.758621,,0.00775094680796428,421.76,0.7760000228881836,0.019652858049069463
422.22413800000004,,0.012709903075535621,422.226,0.7620000243186951,-0.0117136875502783
422.689655,,0.01361315320217546,422.689,0.7739999890327454,0.013503554246926435
423.15517200000005,,0.009226259885090756,423.154,0.753000020980835,-0.03320763529602765
423.62069,,0.004460753066929826,423.619,0.7609999775886536,-0.016742650848269945
424.086207,,0.005670822073394802,424.085,0.7720000147819519,0.006283306326924051
424.55172400000004,,0.014435249855532432,424.55,0.7699999809265137,0.0010405296537135365
425.017241,,0.026518934396037138,425.016,0.7590000033378601,-0.023729324318360518
425.482759,,0.03571152025088601,425.475,0.7739999890327454,0.008250512321339058
425.948276,,0.0382710991496098,425.941,0.7730000019073486,0.0054984900187257735
426.413793,,0.034985754969749865,426.409,0.7739999890327454,0.007247848477004426
426.87931000000003,,0.029866709078283305,426.872,0.7739999890327454,0.006975770789853759
427.344828,,0.02640373280970036,427.335,0.753000020980835,-0.03888280683504575
427.810345,,0.02459994398856642,427.804,0.781000018119812,0.022180405182884794
428.275862,,0.021696576567805142,428.265,0.7630000114440918,-0.016807722269726474
428.741379,,0.01561635089541593,428.735,0.6970000267028809,-0.16021269673541333
429.20689699999997,,0.007249701608562446,429.2,0.7580000162124634,-0.026784307251512943
429.672414,,0.0004952564882541624,429.66,0.777999997138977,0.01744988162351948
430.137931,,0.005211627372195032,430.126,0.7490000128746033,-0.04495774704503977
430.603448,,0.006607286253301418,430.59,0.7889999747276306,0.04305000115222328
431.068966,,0.006554286754134816,431.056,0.7739999890327454,0.01129556031022845
431.534483,,0.007763733352558347,431.523,0.7609999775886536,-0.016066216389231364
432.0,,0.011437537902068244,431.988,0.7789999842643738,0.02411611999895241
432.46551700000003,,0.015811776457579082,432.454,0.7720000147819519,0.009809261742171994
432.931034,,0.01783434992588406,432.919,0.75,-0.037229395286569954
433.396552,,0.016640408539102588,433.379,0.7730000019073486,0.013691643717443068
433.862069,,0.014675859712983432,433.849,0.7570000290870667,-0.020458671104638282
434.327586,,0.015174132461760087,434.312,0.765999972820282,-0.0002685763234058616
434.79310300000003,,0.019083324291244076,434.775,0.7739999890327454,0.017599809125440177
435.258621,,0.024344212115649713,435.241,0.7699999809265137,0.009168075179497533
435.724138,,0.027399906756459903,435.704,0.7609999775886536,-0.010322083721120121
436.189655,,0.025594386727733384,436.169,0.7760000228881836,0.022306363185463706
436.655172,,0.019263346676630055,436.634,0.777999997138977,0.026444911487820487
437.12068999999997,,0.011988460595909942,437.1,0.7490000128746033,-0.03711566607697702
437.586207,,0.008136263437361995,437.565,0.7689999938011169,0.005927008137543304
438.051724,,0.009323321708645419,438.03,0.7739999890327454,0.016155647093399145
438.517241,,0.01305345798163514,438.497,0.550000011920929,-0.4726443233284444
438.982759,,0.014997452296038,438.963,0.7739999890327454,0.014492053675080645
439.448276,,0.012782516736417764,439.424,0.7749999761581421,0.015722372738307514
439.913793,,0.007604154255150197,439.894,0.7599999904632568,-0.01793991366472147
440.37931000000003,,0.002380378762815477,440.357,0.7760000228881836,0.01593157563637132
440.844828,,0.0011351415466840033,440.819,0.7580000162124634,-0.024245242395156304
441.310345,,0.003347122725645215,441.287,0.7570000290870667,-0.02733005364928136
441.775862,,0.00575328575278028,441.75,0.777999997138977,0.017598060774532274
442.241379,,0.009465333570460937,442.216,0.7570000290870667,-0.028868571381326934
442.70689699999997,,0.014279970177535033,442.681,0.7609999775886536,-0.02073914242253463
443.172414,,0.018677578876551915,443.147,0.7839999794960022,0.028932907573428902
443.637931,,0.02113473978914697,443.612,0.7739999890327454,0.0068718962157502195
444.103448,,0.02174277412854547,444.078,0.7549999952316284,-0.034626481994028964
444.568966,,0.021849782234577772,444.543,0.753000020980835,-0.03891503174846561
445.03448299999997,,0.021716743912877742,445.008,0.7739999890327454,0.007075855643615785
445.5,,0.019615382926867233,445.475,0.7860000133514404,0.033623327834760276
445.965517,,0.01437858365620323,445.934,0.7749999761581421,0.010214327601748984
446.431034,,0.0081491145923414,446.405,0.777999997138977,0.017441949390245296
446.896552,,0.005027303576317345,446.867,0.7490000128746033,-0.0449336832611876
447.36206899999996,,0.006846630549817795,447.331,0.7609999775886536,-0.017896808382430556
447.827586,,0.01147394811190668,447.801,0.7570000290870667,-0.025657714568292786
448.29310300000003,,0.01562904192852544,448.264,0.7580000162124634,-0.022494251099257578
448.758621,,0.018268522103317628,448.727,0.8500000238418579,0.1789290896315451
449.224138,,0.020449693599949914,449.192,0.777999997138977,0.023028428662235485
449.689655,,0.022687712808917345,449.657,0.7739999890327454,0.015219828922589823
450.155172,,0.023711180200894993,450.123,0.7580000162124634,-0.01881837878923877
450.62068999999997,,0.022188523917825685,450.59,0.7739999890327454,0.016748454291911394
451.086207,,0.019347749782325768,451.055,0.7599999904632568,-0.013177623087737523
451.551724,,0.01950264543623315,451.519,0.7590000033378601,-0.01493278217023688
452.017241,,0.027447931006539625,451.985,0.7789999842643738,0.028899015925236533
452.482759,,0.044311183759225894,452.446,0.7760000228881836,0.022450012133512463
452.94827599999996,,0.06495780419893622,452.909,0.777999997138977,0.02671964379946673
453.413793,,0.07966053097573729,453.379,0.7839999794960022,0.03953213188856591
453.87931,,0.07998019028953846,453.841,0.7739999890327454,0.017322461133002627
454.344828,,0.06472890152258365,454.305,0.7739999890327454,0.01674805359848027
454.810345,,0.040588428626008075,454.775,0.7480000257492065,-0.04060549689697062
455.27586199999996,,0.016344112721745865,455.24,0.7739999890327454,0.015217422472298112
455.741379,,0.003920871543168709,455.703,0.7580000162124634,-0.02055050747647462
456.206897,,0.02209206671648072,456.169,0.7839999794960022,0.03512530902145465
456.672414,,0.04106540142493905,456.634,0.777999997138977,0.021055470812123507
457.137931,,0.059677460674542555,457.1,0.777999997138977,0.02005948733374383
457.603448,,0.0733934881329152,457.565,0.7559999823570251,-0.028834654217501646
458.06896600000005,,0.07939823066992713,458.03,0.7739999890327454,0.009478609959432385
458.53448299999997,,0.0795256758078519,458.49,0.7760000228881836,0.013023099891570501
459.0,,0.07768944505772249,458.956,0.7570000290870667,-0.02906935562511372
459.465517,,0.07538901441975888,459.424,0.7599999904632568,-0.023095861454648255
459.931034,,0.07068490972119298,459.886,0.7739999890327454,0.006996128963494316
460.39655200000004,,0.06140357429378163,460.349,0.7570000290870667,-0.03028357528517503
460.86206899999996,,0.048371189105688474,460.819,0.7739999890327454,0.006684611636393444
461.327586,,0.03477615013934545,461.283,0.7760000228881836,0.011149931894514324
461.793103,,0.022834384547583412,461.745,0.7730000019073486,0.004895854713510679
462.258621,,0.012515632141285777,462.211,0.7620000243186951,-0.018622088174967598
462.724138,,0.004010221637778568,462.675,0.7480000257492065,-0.048525079213472
463.18965499999996,,0.00015699313295687535,463.141,0.7770000100135803,0.015386356048300685
463.655172,,0.0028444028393342672,463.608,0.7789999842643738,0.0205853460724337
464.12069,,0.01229148526222627,464.074,0.7760000228881836,0.014977138783942153
464.58620699999994,,0.02312764697455717,464.538,0.7739999890327454,0.011604757287822934
465.051724,,0.029155209182522703,465.004,0.7599999904632568,-0.017884684038417004
465.517241,,0.027075082535276185,465.469,0.7599999904632568,-0.016878105224711077
465.98275900000004,,0.018357440852700142,465.934,0.7749999761581421,0.016772093588174997
466.448276,,0.007899520168175031,466.397,0.7229999899864197,-0.09561360673948327
466.913793,,0.0004649201495202553,466.86,0.7739999890327454,0.01630642352398113
467.37931,,0.002372453369906843,467.331,0.7699999809265137,0.00828147145366169
467.844828,,0.00239060756932905,467.793,0.7739999890327454,0.01754600930319067
468.31034500000004,,0.0023190994474339764,468.257,0.7739999890327454,0.01793916859163095
468.77586199999996,,0.003433580836113664,468.719,0.765999972820282,0.0007339449233718215
469.241379,,0.005212177499404091,469.185,0.753000020980835,-0.027541220471485373
469.706897,,0.006834673955940479,469.653,0.8510000109672546,0.18583620270188098
470.172414,,0.008626091603415036,470.119,0.7739999890327454,0.017778323145096087
470.63793100000004,,0.011849884151291946,470.579,0.7590000033378601,-0.015367300048374886
471.10344799999996,,0.01695810775441833,471.044,0.7760000228881836,0.021052032890715545
471.568966,,0.02213857051495951,471.509,0.7820000052452087,0.0333734020551274
472.034483,,0.024355658824755266,471.974,0.5540000200271606,-0.46422279450569615
472.5,,0.022669507993361912,472.445,0.7609999775886536,-0.01419855387562211
472.965517,,0.020030583047882477,472.908,0.7549999952316284,-0.028285456978036357
473.43103399999995,,0.020386512767569684,473.376,0.7649999856948853,-0.007537673637319393
473.89655200000004,,0.02390303690237153,473.838,0.7739999890327454,0.011040595453762044
474.362069,,0.0264573591206791,474.301,0.7609999775886536,-0.018269977811667684
474.827586,,0.02447980807968428,474.771,0.7699999809265137,0.0004219251405414145
475.293103,,0.019272537149548293,475.229,0.7829999923706055,0.027929574313954875
475.758621,,0.01572786077338218,475.699,0.7699999809265137,-0.001080645724047083
476.22413800000004,,0.01741531187195492,476.165,0.7699999809265137,-0.0016200025879777652
476.689655,,0.023894671200779947,476.631,0.8450000286102295,0.16140597022268746
477.155172,,0.03258377968607226,477.089,0.7990000247955322,0.060995518627155576
477.62069,,0.041639824037256176,477.56,0.7860000133514404,0.03266623989501955
478.086207,,0.0496583657274279,478.019,0.7760000228881836,0.011057416386364718
478.55172400000004,,0.05355290648632961,478.486,0.7739999890327454,0.007055961195052981
479.01724099999996,,0.04985895087994524,478.952,0.7649999856948853,-0.012029225888888087
479.482759,,0.03981508906774212,479.415,0.7770000100135803,0.014787602662791392
479.948276,,0.030845415384078825,479.885,0.7580000162124634,-0.025804430048006442
480.413793,,0.029673645906527858,480.346,0.7599999904632568,-0.020540994497191812
480.87931000000003,,0.034296557586888425,480.816,0.7749999761581421,0.013120648235593979
481.344828,,0.03566189630551934,481.279,0.7620000243186951,-0.014174151257897949
481.810345,,0.02759268661569562,481.741,0.7820000052452087,0.03044018960592257
482.275862,,0.012488102562339641,482.207,0.7609999775886536,-0.014288470089056815
482.74137900000005,,0.0032566680938040304,482.671,0.7749999761581421,0.017185366602974983
483.206897,,0.01648615680990188,483.137,0.7599999904632568,-0.014602235454645179
483.672414,,0.028136292243111503,483.601,0.7580000162124634,-0.018176058926975734
484.13793100000004,,0.0389999667740052,484.067,0.7559999823570251,-0.021883409682806887
484.603448,,0.04755301642743652,484.534,0.796999990940094,0.06793834905183795
485.068966,,0.05200330414623578,485.0,0.7739999890327454,0.018159289368560674
485.534483,,0.05254168942781574,485.464,0.7760000228881836,0.02266899160859072
486.0,,0.05093106208220518,485.93,0.7549999952316284,-0.023113430408577187
486.46551700000003,,0.04909450921253763,486.393,0.7720000147819519,0.013710345817367624
486.931034,,0.04854465916401361,486.856,0.75,-0.03460943001085215
487.396552,,0.04963468559843913,487.323,0.7590000033378601,-0.015555463484624669
487.862069,,0.050225704144590703,487.786,0.7850000262260437,0.04038876805282551
488.327586,,0.04634110618628825,488.257,0.7979999780654907,0.06788673942671024
488.79310300000003,,0.03591150612643165,488.719,0.7739999890327454,0.014677255203457683
489.258621,,0.021868531685407564,489.185,0.7559999823570251,-0.025530356038149172
489.724138,,0.010627097113496875,489.649,0.75,-0.03963460867743148
490.189655,,0.007187971238010534,490.114,0.7590000033378601,-0.021068014316283523
490.655172,,0.011347811621277595,490.579,0.7599999904632568,-0.019906931404400308
491.12069,,0.017706246408516316,491.045,0.7739999890327454,0.00963243783540208
491.586207,,0.019052791620745756,491.505,0.7630000114440918,-0.015208286984236718
492.05172400000004,,0.01110579429197633,491.971,0.7739999890327454,0.007994582499071359
492.517241,,0.004127883018721117,492.434,0.7649999856948853,-0.012238289030517989
492.982759,,0.019140175467698296,492.904,0.7749999761581421,0.009079922276422384
493.448276,,0.026407835879941003,493.364,0.7789999842643738,0.017497955151614036
493.913793,,0.024556512504810165,493.835,0.7820000052452087,0.023918736210519608
494.37931000000003,,0.018993604255288607,494.297,0.7730000019073486,0.004380706844140494
494.844828,,0.015849268843889434,494.76,0.7580000162124634,-0.028046830176778184
495.310345,,0.015944312367548612,495.226,0.7749999761581421,0.009416433077578687
495.775862,,0.01564419341794452,495.689,0.753000020980835,-0.03792655328757055
496.241379,,0.012727384945942399,496.154,0.7739999890327454,0.008554789138584425
496.70689699999997,,0.009447716882043423,496.62,0.7739999890327454,0.009404900235316349
497.172414,,0.009482293854828681,497.085,0.7549999952316284,-0.031045305212085705
497.637931,,0.013329498943751905,497.553,0.7699999809265137,0.0026427987248761496
498.103448,,0.01768193168348581,498.019,0.796999990940094,0.06250844063558375
498.568966,,0.018835048017208308,498.484,0.7760000228881836,0.017801190666153766
499.03448299999997,,0.015982681935359594,498.949,0.7599999904632568,-0.016043794694970737
499.5,,0.011284455434746932,499.412,0.7739999890327454,0.015407631965576518
499.96551700000003,,0.00745223175930251,499.874,0.7770000100135803,0.02280149792640253
500.431034,,0.005649402317135784,500.342,0.7739999890327454,0.01700446499796974
500.89655200000004,,0.004914569392511412,500.804,0.777999997138977,0.026316053770560104
501.362069,,0.0023071822584258615,501.272,0.765999972820282,0.0006083619922889198
501.827586,,0.006070510462770126,501.734,0.7580000162124634,-0.016559653775044036
502.293103,,0.02191622302170185,502.2,0.7820000052452087,0.03580556433886402
502.758621,,0.04129024585866501,502.664,0.7620000243186951,-0.007875338498849142
503.224138,,0.055909046356081266,503.129,0.7760000228881836,0.022335333700048466
503.68965499999996,,0.059838464747152,503.594,0.7630000114440918,-0.0064512101725290325
504.15517200000005,,0.0544999997236232,504.06,0.7580000162124634,-0.017968209641319864
504.62068999999997,,0.04575153226874477,504.527,0.7599999904632568,-0.014375516584566456
505.08620699999994,,0.036587721220737064,504.993,0.7789999842643738,0.026137518489433617
505.55172400000004,,0.02448819109583759,505.457,0.7570000290870667,-0.022762976925746737
506.017241,,0.006326472657161819,505.923,0.7760000228881836,0.017602076125755026
506.48275899999993,,0.01571698966016315,506.386,0.7609999775886536,-0.01613392881154169
506.948276,,0.034816901695173125,506.849,0.7739999890327454,0.011138417549921668
507.413793,,0.04595984652945764,507.319,0.777999997138977,0.018841994882520953
507.87931,,0.05018215160587932,507.782,0.7429999709129333,-0.058351444833533356
508.344828,,0.051703330378174116,508.248,0.7789999842643738,0.019238511123780565
508.810345,,0.05233373205694697,508.714,0.7580000162124634,-0.02722863800462232
509.27586199999996,,0.050417892035596844,509.179,0.7590000033378601,-0.02561737272786373
509.74137900000005,,0.04477433380228197,509.645,0.7739999890327454,0.006661007939289049
510.20689699999997,,0.03760822591784585,510.104,0.7850000262260437,0.03040444708277651
510.67241399999995,,0.03250198563511264,510.575,0.7739999890327454,0.00640460501657541
511.13793100000004,,0.030328374282784273,511.041,0.7620000243186951,-0.019585710502139232
511.603448,,0.028254055736627155,511.501,0.7760000228881836,0.011251809763849987
512.0689659999999,,0.022865376147029794,511.967,0.753000020980835,-0.03834809066627944
512.534483,,0.013753816562888734,512.43,0.7680000066757202,-0.005002753845922693
513.0,,0.0038987068686704273,512.9,0.777999997138977,0.017585678994104063
513.465517,,0.0031270265718554577,513.36,0.7599999904632568,-0.020716260519264246
513.931034,,0.006127707789238647,513.83,0.75,-0.041506211278220476
514.396552,,0.006657062340605538,514.29,0.7760000228881836,0.01618680617757207
514.862069,,0.006589708428201203,514.76,0.753000020980835,-0.03285471633143472
515.327586,,0.005400484437911781,515.225,0.8399999737739563,0.15774242599765995
515.793103,,0.000349138983623087,515.688,0.7829999923706055,0.034570415119943174
516.258621,,0.009985485528324707,516.154,0.7459999918937683,-0.04510531829875207
516.724138,,0.022606118228980326,516.619,0.7749999761581421,0.018901834752790836
517.189655,,0.03146272448176471,517.085,0.7770000100135803,0.02395204410882949
517.655172,,0.03212110800855616,517.55,0.7599999904632568,-0.012547310255412628
518.1206900000001,,0.024636641872113382,518.016,0.7850000262260437,0.042284398930529314
518.5862070000001,,0.01227165283150895,518.475,0.7900000214576721,0.05335969067645747
519.051724,,0.0013143550008272243,518.941,0.7620000243186951,-0.007649680958645173
519.517241,,0.013410478619522857,519.405,0.5839999914169312,-0.3956502037886687
519.982759,,0.022372230646935467,519.874,0.7770000100135803,0.024436997645499774
520.448276,,0.02792427320772088,520.335,0.8569999933242798,0.1981630622851931
520.9137929999999,,0.031271456502037095,520.804,0.9430000185966492,0.38481328029615536
521.37931,,0.03387924510528394,521.268,0.7749999761581421,0.017962290385787606
521.844828,,0.03573645758341701,521.73,0.7739999890327454,0.014842777987627263
522.310345,,0.035366994281314595,522.196,0.8069999814033508,0.08572059267528741
522.7758620000001,,0.031988825464134465,522.664,0.7609999775886536,-0.015559886122890275
523.241379,,0.027214351695920225,523.129,0.777999997138977,0.020401562235095146
523.7068969999999,,0.02383541565107064,523.594,0.7739999890327454,0.010631233495090993
524.172414,,0.022832488006095702,524.06,0.7559999823570251,-0.029587726922996126
524.637931,,0.022338031524059977,524.519,0.7829999923706055,0.028315944403863456
525.103448,,0.020201730227006567,524.985,0.7749999761581421,0.010079414607317498
525.568966,,0.017102519521668132,525.457,0.7480000257492065,-0.0494137634023398
526.034483,,0.01589955307049835,525.916,0.7480000257492065,-0.04992605490910609
526.5,,0.017676765353265646,526.379,0.7580000162124634,-0.028478426728019222
526.9655170000001,,0.019877582742705197,526.849,0.7739999890327454,0.0062262023884583914
527.4310340000001,,0.019474638424693807,527.312,0.7620000243186951,-0.01988015663724732
527.8965519999999,,0.016906618040370268,527.774,0.7749999761581421,0.008670140876288208
528.362069,,0.015188881433288483,528.24,0.7590000033378601,-0.02577609470817596
528.827586,,0.01544792102283985,528.711,0.7760000228881836,0.011845015143721778
529.293103,,0.014980612471943964,529.169,0.7720000147819519,0.0038691159888882536
529.7586210000001,,0.010230578504342032,529.634,0.828000009059906,0.12674571163004308
530.224138,,0.0009340874251998223,530.099,0.7590000033378601,-0.02260119366323163
530.689655,,0.0090829250473439,530.564,0.7490000128746033,-0.04333191153302612
531.155172,,0.015018980818463822,531.03,0.777999997138977,0.02094682425505764
531.62069,,0.014989661235464684,531.494,0.7739999890327454,0.013339236285348981
532.086207,,0.011101066059487656,531.959,0.7739999890327454,0.014421429239058132
532.5517239999999,,0.0069930212335056,532.427,0.765999972820282,-0.001984321364487608
533.017241,,0.004679348673851884,532.89,0.7609999775886536,-0.011945129439942598
533.482759,,0.003740068885936209,533.36,0.7310000061988831,-0.0764932756275202
533.9482760000001,,0.0027765298771635083,533.823,0.7739999890327454,0.01785279067864329
534.413793,,0.0009480308909839107,534.286,0.7590000033378601,-0.014330034128322504
534.87931,,0.0015885656618162252,534.749,0.7770000100135803,0.025199978873946833
535.344828,,0.00405063627348317,535.215,0.7620000243186951,-0.007358109039532681
535.810345,,0.005668477891724571,535.681,0.843999981880188,0.17121696872542563
536.275862,,0.006057422076010125,536.146,0.7730000019073486,0.01626632188678845
536.7413789999999,,0.005116436064955407,536.612,0.7570000290870667,-0.019044959956748462
537.206897,,0.0030540220676312678,537.078,0.7739999890327454,0.017364413171126927
537.672414,,0.0007752816475998058,537.545,0.7739999890327454,0.01658134696485623
538.137931,,0.00042622675793243863,538.004,0.7770000100135803,0.022202832882192217
538.6034480000001,,0.0001862451410592324,538.471,0.7739999890327454,0.014648761451377957
539.0689659999999,,0.0004610573842055429,538.937,0.7760000228881836,0.017915572446035453
539.5344829999999,,0.0006040413652369154,539.405,0.7739999890327454,0.01242858589297559
540.0,,0.000848695951634681,539.867,0.7559999823570251,-0.027921387116566707
540.465517,,0.002237469540992368,540.335,0.765999972820282,-0.00723932629214355
540.931034,,0.0041003285950606564,540.797,0.7760000228881836,0.013507214725181994
541.396552,,0.004092385053475598,541.26,0.7519999742507935,-0.03972365759298304
541.862069,,0.0005950293950775449,541.73,0.777999997138977,0.016104286111037716
542.327586,,0.005598232354277753,542.195,0.7490000128746033,-0.04774154575645913
542.7931030000001,,0.012143903692353297,542.661,0.7570000290870667,-0.03080467376375493
543.258621,,0.017056606854569993,543.119,0.7540000081062317,-0.037644694840661096
543.7241379999999,,0.01961440524469748,543.591,0.7739999890327454,0.0058231773656765625
544.189655,,0.020176168564889158,544.049,0.7739999890327454,0.005921874269281149
544.655172,,0.01971256432042385,544.515,0.753000020980835,-0.03952941425834648
545.12069,,0.01921907566027667,544.981,0.7749999761581421,0.00889383246925793
545.5862070000001,,0.01908382280356329,545.454,0.75,-0.04490095208630526
546.051724,,0.01892954479911577,545.911,0.7749999761581421,0.010394912176463156
546.517241,,0.01807892818746828,546.38,0.7459999918937683,-0.05182294109690104
546.982759,,0.016041098532578523,546.842,0.7850000262260437,0.03421157968229602
547.448276,,0.012719280206106808,547.305,0.7620000243186951,-0.014758086682703448
547.9137929999999,,0.008941630625468122,547.774,0.8309999704360962,0.13674625475050967
548.3793099999999,,0.007309811173200752,548.24,0.7739999890327454,0.013744127352465408
548.844828,,0.01139620531777297,548.703,0.7570000290870667,-0.022146592740894033
549.310345,,0.02192378343549972,549.169,0.7739999890327454,0.015964838746565888
549.775862,,0.0334024613569755,549.635,0.7739999890327454,0.01693419952697387
550.241379,,0.0373585115564663,550.094,0.7630000114440918,-0.006197126481304836
550.706897,,0.03162030178643582,550.56,0.722000002861023,-0.09485128909359082
551.172414,,0.025106612273834615,551.026,0.7599999904632568,-0.011578035639330558
551.637931,,0.029603139682841915,551.49,0.7599999904632568,-0.01129445844998898
552.103448,,0.04589028308250166,551.956,0.7739999890327454,0.019280525552362496
552.568966,,0.061375708942171384,552.42,0.7620000243186951,-0.00700182207972974
553.034483,,0.06408550676920693,552.889,0.6209999918937683,-0.31454199394677873
553.5,,0.05679433473099754,553.349,0.777999997138977,0.026950996504273905
553.965517,,0.05334141056853148,553.819,0.75,-0.034791196653776224
554.4310340000001,,0.06126658439971129,554.279,0.7770000100135803,0.02313214114923714
554.896552,,0.07241632567416646,554.75,0.7699999809265137,0.006849013304414812
555.3620689999999,,0.0722303479738168,555.215,0.7620000243186951,-0.011713108348482182
555.827586,,0.054361177797651546,555.674,0.7480000257492065,-0.043413498309951434
556.293103,,0.02333992330579059,556.14,0.7820000052452087,0.02943198728141551
556.758621,,0.013467171191179666,556.604,0.777999997138977,0.019498624743907567
557.224138,,0.05136582902573174,557.071,0.7549999952316284,-0.03178131661272673
557.689655,,0.0865967145862147,557.535,0.7599999904632568,-0.021975682386964037
558.155172,,0.11432988135916645,558.001,0.7699999809265137,-0.0011594434290272617
558.6206900000001,,0.13161224333185456,558.468,1.090000033378601,0.6951924797185556
559.0862070000001,,0.1411359296660371,558.934,0.7739999890327454,0.006109386181624044
559.5517239999999,,0.14882687420191942,559.397,0.8209999799728394,0.10807673730212178
560.017241,,0.1559488862447975,559.86,0.7760000228881836,0.009817341236197735
560.482759,,0.15541717137990965,560.328,0.7680000066757202,-0.007617561155261035
560.948276,,0.13909541375587184,560.789,0.7630000114440918,-0.01830303197778947
561.413793,,0.1086736675467527,561.26,0.8180000185966492,0.1019381148575871
561.87931,,0.07599833155543469,561.723,0.7580000162124634,-0.028169772592657315
562.344828,,0.05120183328135487,562.188,0.7749999761581421,0.009654121668584448
562.8103450000001,,0.03316567960440142,562.654,0.7739999890327454,0.008413537132712175
563.275862,,0.01415078123390159,563.119,0.7580000162124634,-0.025384574771722054
563.7413789999999,,0.008061577903276211,563.579,0.7749999761581421,0.012801853597267038
564.206897,,0.026519668283233537,564.045,0.7570000290870667,-0.025210302219548602
564.672414,,0.03412015111809051,564.512,0.42500001192092896,-0.7473080244753478
565.137931,,0.03315824946927651,564.978,0.7599999904632568,-0.01627976920458714
565.603448,,0.0334302176029969,565.446,0.7749999761581421,0.017518678483877503
566.068966,,0.041264637102111805,565.908,0.7710000276565552,0.00983411000791556
566.534483,,0.052084131643179724,566.371,0.7580000162124634,-0.01757816720920976
567.0,,0.055059822927299926,566.834,0.7739999890327454,0.018043186744992074
567.465517,,0.04539871345719532,567.302,0.7720000147819519,0.014279396517706966
567.931034,,0.030848130087677974,567.764,0.777999997138977,0.02775784163652828
568.396552,,0.024494445632001,568.23,0.753000020980835,-0.026500916166388878
568.862069,,0.03149021659215364,568.7,0.75,-0.03303557998039006
569.327586,,0.04461955747720804,569.165,0.7599999904632568,-0.011454106028455563
569.793103,,0.05290235512270769,569.631,0.7760000228881836,0.023000015999320746
570.2586210000001,,0.05229545433008126,570.089,0.7749999761581421,0.020230709214384045
570.724138,,0.04682073902547192,570.56,0.7950000166893005,0.06304555394101681
571.189655,,0.04136212358987198,571.026,0.753000020980835,-0.02936077237929769
571.655172,,0.03648026440901326,571.491,0.7599999904632568,-0.015132085024190814
572.12069,,0.03054056595476337,571.949,0.7519999742507935,-0.03367178222974962
572.586207,,0.02392398628127617,572.419,0.7480000257492065,-0.043552279881921195
573.051724,,0.01855767059064809,572.882,0.7699999809265137,0.0031915053057059986
573.517241,,0.014241063240489347,573.349,0.7919999957084656,0.04995184673136657
573.982759,,0.008294513486821281,573.812,0.7749999761581421,0.011797262535283659
574.4482760000001,,0.0005459571800727099,574.275,0.777999997138977,0.017301545068782377
574.913793,,0.010070513087549372,574.745,0.7620000243186951,-0.01847234133069358
575.37931,,0.017469918933378712,575.21,0.7620000243186951,-0.019244943845753624
575.844828,,0.022357690656548572,575.674,0.7789999842643738,0.017185418519706726
576.310345,,0.025518401121186876,576.14,0.7620000243186951,-0.02027373403153017
576.775862,,0.026437476901342467,576.605,0.7770000100135803,0.012180626442893822
577.241379,,0.024218402991354797,577.07,0.7749999761581421,0.007801565245760905
577.706897,,0.019961032326126518,577.535,0.9649999737739563,0.4219311116925689
578.172414,,0.015891562561654075,578.001,0.7590000033378601,-0.02647915354192716
578.6379310000001,,0.0122929712879956,578.46,0.7749999761581421,0.008959722278343827
579.1034480000001,,0.007475638984594723,578.926,0.7570000290870667,-0.029507738581858338
579.5689659999999,,0.0013351196464891166,579.394,0.7609999775886536,-0.019900843556498033
580.034483,,0.0029905853261217178,579.856,0.7720000147819519,0.005073893681230596
580.5,,0.0024872166285323117,580.324,0.8100000023841858,0.08895971292610191
580.965517,,0.0015951613058921997,580.786,0.7739999890327454,0.01168089417910008
581.431034,,0.004566218231493779,581.257,0.7760000228881836,0.017210834865506994
581.896552,,0.0033501380519341648,581.719,0.7480000257492065,-0.04263526204138519
582.362069,,0.0003111406040534622,582.185,0.8320000171661377,0.14147663600333635
582.827586,,0.0020535028478950988,582.65,0.7820000052452087,0.03356735913218794
583.2931030000001,,0.00034112908010992246,583.116,0.7739999890327454,0.01704806853627006
583.758621,,0.00483877025901247,583.575,0.7570000290870667,-0.01922097535327779
584.2241379999999,,0.007547162254924401,584.04,0.7839999794960022,0.04020517573198693
584.689655,,0.006659395987448509,584.505,0.7739999890327454,0.01883894299270089
585.155172,,0.0037438113731970398,584.971,0.7559999823570251,-0.020151492698160915
585.6206900000001,,0.001351281456660891,585.434,0.7760000228881836,0.023445019385409802
586.0862070000001,,2.489272027324242e-05,585.904,0.7620000243186951,-0.0072345541170690504
586.551724,,0.002091621392092305,586.365,0.753000020980835,-0.027217282067174144
587.017241,,0.006126954412269463,586.834,0.7739999890327454,0.017974593298946222
587.482759,,0.011072038753976452,587.297,0.7580000162124634,-0.017610561427875853
587.948276,,0.014587479718365366,587.76,0.7879999876022339,0.0468776182195966
588.4137929999999,,0.01546213058279135,588.225,0.7739999890327454,0.015388127803502094
588.87931,,0.014584129157457068,588.689,0.7870000004768372,0.04263543612654966
589.344828,,0.01381424781918457,589.154,0.7749999761581421,0.015362341331917934
589.810345,,0.01410585075461125,589.619,0.7760000228881836,0.016391749463445012
590.2758620000001,,0.01462125665598747,590.085,0.7599999904632568,-0.019601931532957736
590.741379,,0.013780397378446054,590.549,0.7580000162124634,-0.025046702199410784
591.2068969999999,,0.011183421797610057,591.015,0.7760000228881836,0.013161818175799644
591.672414,,0.008029359416557469,591.479,0.8080000281333923,0.08198321680742687
592.137931,,0.0055148114203325705,591.944,0.7739999890327454,0.0071531124632610976
592.603448,,0.003529531937045701,592.416,0.7749999761581421,0.008737025534584483
593.068966,,0.0013731453690815545,592.878,0.7570000290870667,-0.030895437744481235
593.534483,,0.000799008144388271,593.346,0.7559999823570251,-0.03330181748160751
594.0,,0.0019206416354113113,593.808,0.7820000052452087,0.02331127675638817
594.4655170000001,,0.0013439549197034376,594.272,0.7580000162124634,-0.02881129085162792
594.9310340000001,,0.0001943884276235338,594.734,0.7879999876022339,0.03690469803114545
595.3965519999999,,0.001005873341376805,595.2,0.7549999952316284,-0.0344536423467598
595.862069,,0.00029482648467458816,595.665,0.7789999842643738,0.018534696938904353
596.327586,,0.00365658659659751,596.13,0.7570000290870667,-0.02855256717492674
596.793103,,0.007243475056889397,596.597,0.6470000147819519,-0.26724704297561463
597.2586210000001,,0.008586661239825754,597.063,0.7480000257492065,-0.04616401351540672
597.724138,,0.006919737064633677,597.527,0.7630000114440918,-0.012391635515668558
598.189655,,0.004355344836112884,597.992,0.777999997138977,0.021404040706436697
598.655172,,0.004046321348039781,598.457,0.7739999890327454,0.013796159498978604
599.12069,,0.007027875078012857,598.922,0.7749999761581421,0.017039437964239276
599.586207,,0.011338554268317641,599.39,0.7789999842643738,0.02674496145253866
600.0517239999999,,0.0143498497446061,599.853,0.7609999775886536,-0.011583235815503683
600.517241,,0.01533121478164752,600.316,0.781000018119812,0.0327473289801384
600.982759,,0.015251210967180765,600.779,0.753000020980835,-0.027649955518367297
601.448276,,0.014715837508808912,601.244,0.7440000176429749,-0.046824265845771436
601.913793,,0.013268249171213576,601.715,0.7749999761581421,0.020962932805340125
602.37931,,0.010686509364619255,602.174,0.7739999890327454,0.018842862429668115
602.844828,,0.007625359838569505,602.639,0.6060000061988831,-0.3473063342949456
603.310345,,0.0043154033333191255,603.104,0.7649999856948853,-0.0012309632630059
603.775862,,0.00016554005177550672,603.571,0.753000020980835,-0.027885234420044834
604.2413789999999,,0.005950659968516822,604.037,0.7609999775886536,-0.011128964062265658
604.706897,,0.010439536947990706,604.501,0.7609999775886536,-0.011943363892039835
605.172414,,0.010263504945687426,604.967,0.7739999890327454,0.015448332061265115
605.637931,,0.005473265738610868,605.431,0.7990000247955322,0.068896668161664
606.1034480000001,,0.00011872088358188951,605.9,0.6660000085830688,-0.22193949011661523
606.5689659999999,,0.0020771390193864005,606.364,0.7760000228881836,0.016608293478386552
607.0344829999999,,0.00147471118508047,606.827,0.7570000290870667,-0.02588313370623213
607.5,,0.0012588131337540013,607.29,0.777999997138977,0.01881254996923805
607.965517,,0.003388100860858694,607.76,0.7689999938011169,-0.0017781046847081781
608.431034,,0.006649095753684376,608.226,0.7760000228881836,0.012592252278795223
608.896552,,0.008258668398059782,608.688,0.7620000243186951,-0.01866059256813436
609.362069,,0.006722597499818842,609.154,0.7749999761581421,0.009060488905777743
609.827586,,0.003170151107272196,609.615,0.7829999923706055,0.026056916255488265
610.293103,,3.840581727127425e-05,610.081,0.7770000100135803,0.012733589760259328
610.758621,,0.0015667200023282745,610.545,0.7739999890327454,0.006134275746182008
611.2241379999999,,0.0028868766125338032,611.011,0.7620000243186951,-0.01988379625527407
611.689655,,0.005618967805199037,611.476,0.8880000114440918,0.25493801453341847
612.155172,,0.00945039462412391,611.942,0.7739999890327454,0.00706267721414642
612.62069,,0.012040549434116525,612.405,0.7599999904632568,-0.022786667762517133
613.0862070000001,,0.01138790480450252,612.874,0.7820000052452087,0.025933821673941187
613.551724,,0.007979345827596832,613.335,0.7820000052452087,0.026838576278829764
614.017241,,0.004540017980153725,613.804,0.753000020980835,-0.03535076963323898
614.4827590000001,,0.0034475629635383346,614.268,0.7730000019073486,0.00926936197781221
614.948276,,0.0042780404601540315,614.73,0.7590000033378601,-0.020160616939039696
615.4137929999999,,0.004337805136106632,615.196,0.777999997138977,0.022296614225668608
615.8793099999999,,0.0018985040243074398,615.661,0.7739999890327454,0.014605166611293505
616.344828,,0.0017229113484063744,616.127,0.7580000162124634,-0.019300408106075362
616.810345,,0.0039049870028389434,616.593,0.7739999890327454,0.01641156752158836
617.275862,,0.003911111193770815,617.059,0.7519999742507935,-0.03078952067410558
617.741379,,0.0033674681147095524,617.523,0.7599999904632568,-0.01277718951153366
618.206897,,0.00394374563351248,617.989,0.5490000247955322,-0.4720559919153421
618.672414,,0.005690596390481231,618.453,0.7580000162124634,-0.016484595053276943
619.137931,,0.007479689573990436,618.919,0.7739999890327454,0.018423450077993835
619.603448,,0.007881545686098309,619.382,0.7559999823570251,-0.02092248813850449
620.068966,,0.005739608944143626,619.845,0.7739999890327454,0.017988261316745385
620.534483,,0.0013081587238118083,620.313,0.777999997138977,0.026234079024406387
621.0,,0.0029422768746918773,620.774,0.7749999761581421,0.01908113166125647
621.465517,,0.003999140008631196,621.24,0.7760000228881836,0.020514293297176456
621.9310340000001,,0.001458020705883603,621.711,0.7590000033378601,-0.01737414259984116
622.396552,,0.0017633490661254844,622.169,0.753000020980835,-0.03137768226657456
622.862069,,0.002383035817689265,622.634,0.7590000033378601,-0.019289891105987677
623.327586,,0.000103197644464956,623.1,0.7789999842643738,0.02327682774647303
623.793103,,0.0036011309495989066,623.564,0.777999997138977,0.020100843150984538
624.258621,,0.006083842578391567,624.03,0.7739999890327454,0.01042765306855031
624.724138,,0.007243173030809266,624.494,0.7089999914169312,-0.132077454198712
625.189655,,0.007578449955996873,624.96,0.7649999856948853,-0.010875713696998105
625.655172,,0.006856944089391835,625.43,0.7400000095367432,-0.06603050822892997
626.1206900000001,,0.00441544508283754,625.893,0.7850000262260437,0.031454814736523576
626.5862070000001,,0.0008576845100040191,626.361,0.7739999890327454,0.0070869579190273625
627.0517239999999,,0.0016470768708498026,626.823,0.7749999761581421,0.009025646795718965
627.5172409999999,,0.0015350330321854684,627.29,0.777999997138977,0.01549029475871136
627.982759,,0.00013403643393741451,627.752,0.7620000243186951,-0.019270061016065296
628.448276,,0.000648307856034865,628.218,0.7570000290870667,-0.02990081558127248
628.913793,,0.0015123182460675825,628.682,0.7580000162124634,-0.027304719117858492
629.37931,,0.005391832559073626,629.147,0.6700000166893005,-0.21846866215930666
629.844828,,0.008695060737992422,629.612,0.7860000133514404,0.034932869098493774
630.3103450000001,,0.009301263542613873,630.078,0.7739999890327454,0.009569805151148563
630.7758620000001,,0.006074143600571173,630.545,0.7799999713897705,0.02350300042799563
631.2413789999999,,0.00025620506206089675,631.004,0.7699999809265137,0.002632156058859733
631.706897,,0.0064664997945697135,631.469,0.7850000262260437,0.0362543836419845
632.172414,,0.008443049580136383,631.934,0.7599999904632568,-0.017271044743935798
632.637931,,0.004925708977845358,632.404,0.75,-0.0381469528759446
633.103448,,0.0006110588206056269,632.866,0.7620000243186951,-0.011150353512996893
633.568966,,0.003238170529461954,633.335,0.8240000009536743,0.12469725820250895
634.034483,,0.0018986498032675667,633.797,0.777999997138977,0.025148734375469235
634.5,,4.25884329091143e-05,634.26,0.7620000243186951,-0.009162449546737571
634.9655170000001,,0.000622612781293774,634.73,0.7620000243186951,-0.008754539257211924
635.431034,,0.002322326964593423,635.196,0.7580000162124634,-0.017212185827841966
635.8965519999999,,0.0019984256117714506,635.661,0.7730000019073486,0.015566917315426237
636.362069,,0.0005716422908599058,636.12,0.7730000019073486,0.015507204035985104
636.827586,,0.0022913786538230558,636.587,0.7720000147819519,0.013112739777606852
637.293103,,0.0008141744811916828,637.052,0.7329999804496765,-0.072220061130155
637.7586210000001,,0.002548348016587204,637.52,0.7739999890327454,0.01660064412586765
638.224138,,0.004487659733026019,637.986,0.7590000033378601,-0.01670517433717655
638.689655,,0.003509050346422131,638.453,0.7559999823570251,-0.02396993072325096
639.155172,,0.0015102865741628158,638.911,0.7580000162124634,-0.020422005511863253
639.62069,,0.001663681971627796,639.379,0.7519999742507935,-0.03435961165071075
640.086207,,0.004881561240371677,639.841,0.8009999990463257,0.07149933714771417
640.551724,,0.008498059315402581,640.305,0.7620000243186951,-0.014364301407223588
641.017241,,0.008761534063936621,640.775,0.7720000147819519,0.006550685405835488
641.482759,,0.0046335869175554555,641.24,0.7599999904632568,-0.020414562837341492
641.9482760000001,,0.001321737852192995,641.703,0.7799999713897705,0.022411284826648635
642.413793,,0.005715126884126972,642.169,0.7580000162124634,-0.026169824517150723
642.87931,,0.007235194520776625,642.63,0.7739999890327454,0.008152350863233605
643.344828,,0.006781173984105038,643.096,0.7609999775886536,-0.020576335641005444
643.810345,,0.005784327359214239,643.562,0.7739999890327454,0.0074811567524006705
644.275862,,0.004987625602967297,644.028,0.7570000290870667,-0.02967259757525867
644.7413789999999,,0.0042124181549205286,644.494,0.777999997138977,0.016112881858115047
645.206897,,0.0026647573119545085,644.96,0.753000020980835,-0.03817059963488239
645.672414,,0.00018327423969479297,645.423,0.7760000228881836,0.012263366197099284
646.1379310000001,,0.0035551385965192817,645.885,0.7739999890327454,0.008363192169515261
646.6034480000001,,0.005631891599077403,646.353,0.7620000243186951,-0.01720540173719543
647.0689659999999,,0.005414596094909326,646.816,0.7620000243186951,-0.016530639427281328
647.534483,,0.003879286958816774,647.279,0.753000020980835,-0.03538510927461237
648.0,,0.002515744588710646,647.749,0.7739999890327454,0.011175693966684289
648.465517,,0.0012407771660525046,648.214,0.7490000128746033,-0.042449551368229775
648.931034,,0.0010066950751607953,648.674,0.8489999771118164,0.17626415719160876
649.396552,,0.0038860236328769246,649.14,0.7699999809265137,0.004984256921155862
649.862069,,0.00549906207845799,649.605,0.7599999904632568,-0.016010257375978887
650.327586,,0.004978450825174567,650.071,0.7739999890327454,0.015216435075534614
650.7931030000001,,0.003869876942624311,650.538,0.7649999856948853,-0.0037532196499442667
651.258621,,0.00417459691685183,651.004,0.7770000100135803,0.022923054923218084
651.7241379999999,,0.005841720130322027,651.469,0.7699999809265137,0.008084006851251204
652.189655,,0.006994495386423558,651.934,0.7580000162124634,-0.017780860239445653
652.655172,,0.00625878119792068,652.397,0.7900000214576721,0.052074510365409624
653.12069,,0.004195928712153123,652.86,0.7599999904632568,-0.013289659852835495
653.5862070000001,,0.002547289637094121,653.328,0.7490000128746033,-0.03740240732755049
654.051724,,0.002629226647751744,653.79,0.7620000243186951,-0.009366189771444862
654.517241,,0.004518086696422405,654.261,0.7580000162124634,-0.018496152944391466
654.982759,,0.007267806340223787,654.723,0.777999997138977,0.02454590377901202
655.448276,,0.009597438326604162,655.188,0.7739999890327454,0.015201928103266368
655.9137929999999,,0.010580830452868326,655.653,0.7789999842643738,0.02538693477950406
656.37931,,0.009946145906920091,656.118,0.7580000162124634,-0.021130503956434434
656.844828,,0.007827866970317184,656.579,0.7739999890327454,0.012926994009367226
657.310345,,0.004491549001926881,657.044,0.7570000290870667,-0.024921866535062245
657.7758620000001,,0.0005768807177548784,657.516,0.8360000252723694,0.14639374624608617
658.241379,,0.002707731491081814,657.974,0.8360000252723694,0.14563654169430992
658.7068969999999,,0.004432166613003809,658.442,0.7429999709129333,-0.057672812708426266
659.172414,,0.005204951654578372,658.905,0.5540000200271606,-0.4700568450932412
659.637931,,0.0066351936508750415,659.375,0.7770000100135803,0.015251120838149747
660.103448,,0.008468275345216584,659.838,0.753000020980835,-0.03745885566366185
660.568966,,0.006902708881151665,660.301,0.7739999890327454,0.007994542884285485
661.034483,,0.002025808094641666,660.764,0.7990000247955322,0.06229622634158382
661.5,,0.016517329539705125,661.23,0.7739999890327454,0.007804147519574368
661.965517,,0.02843941806494428,661.7,0.7889999747276306,0.04059701187920441
662.4310340000001,,0.030492222903788564,662.159,0.796999990940094,0.05827464566339588
662.8965519999999,,0.022891308814405674,662.624,0.7739999890327454,0.00854152821131822
663.362069,,0.011627126091114359,663.089,0.7950000166893005,0.05478434329541842
663.827586,,0.0017615849721451158,663.557,0.7490000128746033,-0.0448428314998505
664.293103,,0.005429401773697302,664.023,0.7770000100135803,0.016830671940400724
664.7586210000001,,0.01019660447749779,664.49,0.753000020980835,-0.03472564342992482
665.224138,,0.012707967258852178,664.955,0.7760000228881836,0.016152364856630963
665.689655,,0.014251053572634852,665.416,0.7590000033378601,-0.020100870787709887
666.155172,,0.017363302071491837,665.886,0.9440000057220459,0.38372763118425596
666.62069,,0.02299350359205419,666.349,0.7799999713897705,0.027182244720367982
667.086207,,0.028617026694031822,666.811,0.746999979019165,-0.04401113771791871
667.5517239999999,,0.030672545449120008,667.275,0.7829999923706055,0.03504644386117267
668.017241,,0.02846417174986422,667.745,0.7900000214576721,0.05082954657811978
668.482759,,0.024509274463865437,668.204,0.7739999890327454,0.01639473384503427
668.948276,,0.021390658937702273,668.671,0.8740000128746033,0.23456343487448567
669.413793,,0.019602798166624656,669.137,0.7760000228881836,0.02123237809878669
669.87931,,0.01838452501014546,669.602,0.7570000290870667,-0.020119814047562135
670.3448279999999,,0.017025613139827218,670.068,0.781000018119812,0.032072319534000415
670.810345,,0.01483104988663184,670.534,0.7739999890327454,0.016592291787103915
671.275862,,0.011254133726676835,671.0,0.7950000166893005,0.061988366598987835
