Trial: ,8
Threshold: ,0.0
Maximum EMG: ,0.0634597617959516
Success: ,True

EMG Time,Raw EMG,Filtered EMG,Force Time,Raw Force (V),Filtered Force (N)
0.0,samples,2.2459090503130152e-07,0.466,0.7820000052452087,0.015239443847385454
0.46551699999999996,time,2.3186796086378814e-07,0.931,0.7749999761581421,-0.0004174839977056721
0.9310339999999999,value,2.3863287445991487e-07,1.397,0.7630000114440918,-0.02694266566339524
1.396552,,2.448394162181052e-07,1.86,0.781000018119812,0.011927886732436445
1.862069,,2.5044135013336516e-07,2.33,0.7860000133514404,0.02252352888574191
2.327586,,2.5539259831447667e-07,2.794,0.765999972820282,-0.021290117803764316
2.793103,,2.5964741204274203e-07,3.256,0.7860000133514404,0.02210675891268692
3.258621,,2.6316054904510865e-07,3.72,0.8330000042915344,0.1243984162811502
3.724138,,2.658874566182231e-07,4.19,0.7540000081062317,-0.04774412389137475
4.189654999999999,,2.677844602034142e-07,4.655,0.7960000038146973,0.04380540811185049
4.655172,,2.6880895697590097e-07,5.115,0.7820000052452087,0.013424903569553776
5.12069,,2.6891961397478884e-07,5.58,0.7599999904632568,-0.03431399168866758
5.586207,,2.6807657026378766e-07,6.049,0.8029999732971191,0.059624381187042226
6.051723999999999,,2.6624164257619046e-07,6.514,0.7820000052452087,0.014187706420908615
6.517241,,2.633785338616315e-07,6.979,0.7879999876022339,0.027623678097890104
6.982759,,2.5945304411664585e-07,7.445,0.7599999904632568,-0.03297670430002018
7.448276,,2.5443328284622274e-07,7.909,0.765999972820282,-0.01947825462833802
7.913793000000001,,2.482898824695379e-07,8.374,0.7829999923706055,0.0179974054290495
8.379309999999998,,2.4099621195002365e-07,8.835,0.7620000243186951,-0.027316466967649715
8.844828000000001,,2.3252858989804823e-07,9.304,0.777999997138977,0.007965246977522681
9.310345,,2.2286649636388933e-07,9.764,0.7689999938011169,-0.011246346962111027
9.775862,,2.1199278250956924e-07,10.235,0.7620000243186951,-0.026139946211968905
10.241379,,1.998938773206348e-07,10.698,0.7979999780654907,0.05259814526939223
10.706897,,1.8655999049328498e-07,11.16,0.7620000243186951,-0.02558527346368853
11.172414,,1.719853106085414e-07,11.626,0.7879999876022339,0.03124051204847139
11.637931,,1.5616819768359008e-07,12.09,0.7620000243186951,-0.02529608691323154
12.103447999999998,,1.3911136917116894e-07,12.556,0.7820000052452087,0.018308608738798183
12.568966000000001,,1.2082207846110132e-07,13.021,0.7739999890327454,0.0008335423539189582
13.034483,,1.0131228492394814e-07,13.487,0.7680000066757202,-0.012360691220784295
13.5,,8.059881452543594e-08,13.954,0.7620000243186951,-0.025628542461019005
13.965517,,5.870351003197548e-08,14.419,0.7850000262260437,0.024216536930332995
14.431034,,3.5653369822374286e-08,14.883,0.7820000052452087,0.01735726116968176
14.896552,,1.148067431892124e-08,15.346,0.7609999775886536,-0.02876764946728291
15.362069,,1.3776900947470474e-08,15.809,0.7649999856948853,-0.02046584421060698
15.827586000000002,,4.0076186618290225e-08,16.279,0.7599999904632568,-0.031799455459913153
16.293103,,6.736843610605611e-08,16.742,0.777999997138977,0.006961797983974353
16.758621,,9.559925846932881e-08,17.205,0.7590000033378601,-0.034887054120971615
17.224138,,1.247085685062972e-07,17.67,0.7490000128746033,-0.05711486741249273
17.689655,,1.5463055498844039e-07,18.14,0.7620000243186951,-0.02920753108443096
18.155172,,1.8529366793091364e-07,18.599,0.7829999923706055,0.016168612253147755
18.62069,,2.1662062576717884e-07,19.064,0.7609999775886536,-0.03208513777236847
19.086207,,2.485284432619246e-07,19.53,0.7570000290870667,-0.041061451347976806
19.551724,,2.8092848095842615e-07,19.998,0.7599999904632568,-0.03471801793727287
20.017241000000002,,3.137265169141258e-07,20.464,0.7789999842643738,0.006559902410987039
20.482758999999998,,3.468228414313293e-07,20.924,0.7630000114440918,-0.028334378327199462
20.948276,,3.801123754384846e-07,21.39,0.7820000052452087,0.013106062832202508
21.413793000000002,,4.134848131215208e-07,21.858,0.7789999842643738,0.006697613329487434
21.87931,,4.4682478934418504e-07,22.32,0.828000009059906,0.11365808921482509
22.344828,,4.800120723312378e-07,22.79,0.7820000052452087,0.01372079871481054
22.810344999999998,,5.129217820187877e-07,23.253,0.7649999856948853,-0.022971220746995365
23.275862,,5.454246344020281e-07,23.716,0.7870000004768372,0.02535711949974116
23.741379,,5.773872121322374e-07,24.179,0.7699999809265137,-0.011240888487907474
24.206897,,6.08672261532231e-07,24.644,0.7820000052452087,0.015369653098412907
24.672414,,6.391390161125933e-07,25.109,0.7820000052452087,0.0158497800242197
25.137931,,6.686435465801216e-07,25.574,0.777999997138977,0.0076140678362410655
25.603448,,6.970391372351221e-07,26.045,0.7480000257492065,-0.057283208884088006
26.068966,,7.241766885556779e-07,26.504,0.7649999856948853,-0.019816119369446265
26.534483,,7.49905145664956e-07,26.972,0.7570000290870667,-0.03686053672889329
27.0,,7.740719522722418e-07,27.437,0.7870000004768372,0.028826688921959814
27.465517,,7.9652352956992e-07,27.902,0.7749999761581421,0.0029442705276510944
27.931034,,8.171057794573084e-07,28.368,0.7609999775886536,-0.027370178513600334
28.396552,,8.356646113483815e-07,28.831,0.777999997138977,0.00977234304336407
28.862069,,8.520464917042705e-07,29.294,0.7639999985694885,-0.020707870036087223
29.327586,,8.660990153133325e-07,29.764,0.7979999780654907,0.05330200750031086
29.793103000000002,,8.776714972218656e-07,30.227,0.765999972820282,-0.016561822461419264
30.258620999999998,,8.866155840975681e-07,30.693,0.7609999775886536,-0.027681382641108164
30.724138,,8.927858836859821e-07,31.156,0.7820000052452087,0.01777103177263114
31.189655000000002,,8.960406108978116e-07,31.622,0.7789999842643738,0.010872434898053989
31.655172000000004,,8.962422489425878e-07,32.087,0.7580000162124634,-0.03529419889859877
32.12069,,8.932582238020898e-07,32.553,0.7879999876022339,0.02961001739016758
32.586207,,8.869615902156842e-07,33.02,0.7699999809265137,-0.01008672191711485
33.051724,,8.772317272297737e-07,33.485,0.7850000262260437,0.022101135544050306
33.517241000000006,,8.639550412453354e-07,33.949,0.7839999794960022,0.019434771736226094
33.982759,,8.470256743815808e-07,34.415,0.7820000052452087,0.014609488596522304
34.448276,,8.263462158605851e-07,34.875,0.777999997138977,0.005460660481371893
34.913793,,8.018284140078448e-07,35.345,0.7599999904632568,-0.034142536049287416
35.37931,,7.733938863576597e-07,35.806,0.7699999809265137,-0.012685381433435793
35.844828,,7.409748252505395e-07,36.275,0.7739999890327454,-0.004231503428294666
36.310345,,7.045146962130633e-07,36.738,0.7570000290870667,-0.041452359327406284
36.775862,,6.639689263193261e-07,37.201,0.7839999794960022,0.017269843049161907
37.241378999999995,,6.193055796478486e-07,37.667,0.9559999704360962,0.3919862640176235
37.706897000000005,,5.705060168691786e-07,38.129,0.7739999890327454,-0.004445021048462944
38.172414,,5.175655359279269e-07,38.595,0.7760000228881836,8.316082894591016e-05
38.637931,,4.604939907192388e-07,39.06,0.7720000147819519,-0.008381412471443233
39.103448,,3.993163846042537e-07,39.526,0.8569999933242798,0.17712669604228778
39.568965999999996,,3.340734355625019e-07,39.99,0.7680000066757202,-0.016385773322341063
40.034483,,2.6482210974199476e-07,40.456,0.7820000052452087,0.014553336152804904
40.5,,1.9163612014050177e-07,40.92,0.7839999794960022,0.019384557488603384
40.965517,,1.1460638713471738e-07,41.385,0.7789999842643738,0.008986726403694812
41.431034,,3.384145756820025e-08,41.849,0.7760000228881836,0.002952072649525871
41.896552,,5.0532120885375234e-08,42.319,0.7990000247955322,0.05355268063765967
42.362069000000005,,1.3836947334951479e-07,42.779,0.7620000243186951,-0.0265903470973007
42.827586000000004,,2.2950712259860452e-07,43.249,0.7770000100135803,0.006516541419436081
43.293103,,3.237627683310423e-07,43.713,0.8029999732971191,0.06353586829552721
43.758621,,4.209351239987648e-07,44.175,0.777999997138977,0.009380807154260581
44.224138,,5.208038142604717e-07,44.641,0.7630000114440918,-0.02306149140452848
44.689655,,6.231293360422444e-07,45.106,0.7710000276565552,-0.005476708560660707
45.155172,,7.276530860914106e-07,45.571,0.7820000052452087,0.01855761558320947
45.620689999999996,,8.340974577971411e-07,46.038,0.7609999775886536,-0.027212985746089907
46.086206999999995,,9.421660099241694e-07,46.503,0.7820000052452087,0.018432245568009167
46.551724,,1.051543709764003e-06,46.968,0.7820000052452087,0.018242122353162422
47.017241,,1.1618972530509187e-06,47.434,0.7599999904632568,-0.02995589484109417
47.482759,,1.2728754628178025e-06,47.898,0.7749999761581421,0.002386494279546884
47.948276,,1.3841097691794789e-06,48.364,0.8420000076293945,0.1479611937322811
48.413793,,1.4952147718285727e-06,48.827,0.765999972820282,-0.018054869105119997
48.879310000000004,,1.6057888868112406e-06,49.29,0.7839999794960022,0.020690843047479025
49.344828,,1.715415078917403e-06,49.757,0.7910000085830688,0.03545410645949561
49.810345,,1.8236616807726121e-06,50.219,0.7760000228881836,0.002285123663202542
50.275862,,1.9300832994566207e-06,50.685,0.7990000247955322,0.05191798041418457
50.741379,,2.0342218111973845e-06,51.149,0.7789999842643738,0.007896905335035315
51.206897,,2.135607444399016e-06,51.615,0.7620000243186951,-0.029546838837302244
51.672414,,2.2337599509585346e-06,52.079,0.8410000205039978,0.1422137883871841
52.137931,,2.32818986550964e-06,52.545,0.7839999794960022,0.017744503524258767
52.603448,,2.418399851902715e-06,53.013,0.7850000262260437,0.01971152479422826
53.068966,,2.5038861358895134e-06,53.479,0.7630000114440918,-0.028351220991606002
53.534483,,2.5841400226291757e-06,53.946,0.7620000243186951,-0.030579967292302775
54.0,,2.658649497270186e-06,54.404,0.7620000243186951,-0.030546917652048058
54.465517,,2.7269009064913733e-06,54.872,0.7649999856948853,-0.02389599073643965
54.931034,,2.788380718505111e-06,55.335,0.7749999761581421,-0.0019158172636627555
55.396552,,2.8425773586383697e-06,55.805,0.7739999890327454,-0.0038277378461980447
55.862069,,2.8889831172133535e-06,56.267,0.7870000004768372,0.024826555131893333
56.327586,,2.9270961260501804e-06,56.731,0.7870000004768372,0.025213732345288474
56.793102999999995,,2.9564223995106493e-06,57.194,0.7739999890327454,-0.0026781443536553966
57.258621000000005,,2.976477935595868e-06,57.659,0.7770000100135803,0.0043181552715654764
57.724138,,2.986790872202685e-06,58.131,0.7829999923706055,0.017865861412048052
58.189655,,2.986903693235868e-06,58.589,0.777999997138977,0.007449592048024015
58.655172,,2.976375478866258e-06,59.06,0.7739999890327454,-0.0008017191077731667
59.120689999999996,,2.9547841938211893e-06,59.519,0.7879999876022339,0.03013483352333101
59.586207,,2.92172900719388e-06,59.986,0.7789999842643738,0.010921571015448132
60.051724,,2.8768326368648706e-06,60.452,0.7630000114440918,-0.02359548069287649
60.517241,,2.8197437112425777e-06,60.917,0.7990000247955322,0.055113386415032016
60.982758999999994,,2.7501391406533443e-06,61.383,0.7820000052452087,0.018282255917813215
61.448276,,2.66772649034574e-06,61.846,0.7599999904632568,-0.029520245019314977
61.913793,,2.5722463467210994e-06,62.315,0.781000018119812,0.016276536472573135
62.379310000000004,,2.4634746680641782e-06,62.775,0.7860000133514404,0.027131311325599747
62.84482800000001,,2.3412251107261837e-06,63.245,0.7480000257492065,-0.05577819152771716
63.310345000000005,,2.2053513214091987e-06,63.709,0.7850000262260437,0.024631754994477055
63.775862000000004,,2.055749185917989e-06,64.171,0.7630000114440918,-0.02357132675461285
64.241379,,1.8923590244842855e-06,64.637,0.7839999794960022,0.021843548941640048
64.706897,,1.7151677235317142e-06,65.102,0.7860000133514404,0.025811186134284188
65.172414,,1.5242107935385326e-06,65.568,0.7829999923706055,0.018844896440914995
65.637931,,1.3195743424720516e-06,66.035,0.765999972820282,-0.018650146912794506
66.103448,,1.1013969541149474e-06,66.494,0.7699999809265137,-0.01040766883063885
66.56896599999999,,8.698714604814217e-07,66.961,0.7570000290870667,-0.03920218550757603
67.03448300000001,,6.252465974321486e-07,67.426,0.777999997138977,0.006091677813591542
67.5,,3.678285325428909e-07,67.898,0.7879999876022339,0.027449759707004816
67.965517,,9.798225426429434e-08,68.356,0.7820000052452087,0.013992661741285724
68.431034,,1.8386718856868607e-07,68.824,0.777999997138977,0.004947663542016319
68.896552,,4.772336077584238e-07,69.286,0.7559999823570251,-0.04324874848978018
69.362069,,7.8156876807576e-07,69.749,0.7820000052452087,0.01320207545539859
69.827586,,1.0962616615339913e-06,70.22,0.7919999957084656,0.03487308179721656
70.293103,,1.4206379740497987e-06,70.685,0.7609999775886536,-0.03269815834025348
70.75862099999999,,1.7539597547005564e-06,71.149,0.7860000133514404,0.021817878851405296
71.22413800000001,,2.095425297506287e-06,71.615,0.7570000290870667,-0.04123220472785015
71.689655,,2.4441692453358168e-06,72.08,0.7609999775886536,-0.032310688068978376
72.15517200000001,,2.799262925159577e-06,72.545,0.7770000100135803,0.002824589890171095
72.62069,,3.159714923445216e-06,73.005,0.7620000243186951,-0.02951667596233449
73.086207,,3.524471910016162e-06,73.471,0.7940000295639038,0.040590077300402545
73.551724,,3.892419718167032e-06,73.936,0.7900000214576721,0.03230578442363897
74.017241,,4.262384688253031e-06,74.401,0.9390000104904175,0.35738513372869624
74.482759,,4.6331352813430925e-06,74.864,0.9520000219345093,0.3861899612721158
74.94827599999999,,5.003383968848552e-06,75.334,0.7620000243186951,-0.027264846669740266
75.41379300000001,,5.371789403310834e-06,75.794,0.7990000247955322,0.053818024392781875
75.87931,,5.736958874753397e-06,76.264,0.7950000166893005,0.04554303313985324
76.344828,,6.097451056175641e-06,76.727,0.7590000033378601,-0.03249633701336221
76.810345,,6.451779040890394e-06,77.19,0.7860000133514404,0.026658028858792364
77.275862,,6.79841367348313e-06,77.655,0.7789999842643738,0.011666503843815202
77.741379,,7.135787175201324e-06,78.122,0.7829999923706055,0.020560392066115242
78.206897,,7.462297063567896e-06,78.588,0.7760000228881836,0.005403448241386345
78.67241399999999,,7.776310364955092e-06,79.053,0.7699999809265137,-0.007664088155459638
79.137931,,8.076168117756448e-06,79.518,0.765999972820282,-0.01646392261043056
79.603448,,8.360190162656736e-06,79.983,0.7839999794960022,0.02257972556409465
80.068966,,8.626680215325306e-06,80.449,0.7720000147819519,-0.0038169113530937514
80.53448300000001,,8.873931215649853e-06,80.909,0.7739999890327454,0.00021467585112620651
81.0,,9.10023094638789e-06,81.375,0.7860000133514404,0.02597078141196211
81.465517,,9.303867912845363e-06,81.843,0.765999972820282,-0.018039411268260842
81.931034,,9.483137473899146e-06,82.305,0.7599999904632568,-0.03158421189119423
82.396552,,9.636348213366155e-06,82.775,0.7620000243186951,-0.02772079409749472
82.86206899999999,,9.76182853939032e-06,83.238,0.7860000133514404,0.024068299025236144
83.327586,,9.857933498173446e-06,83.706,0.7839999794960022,0.01922510800866106
83.79310299999999,,9.92305178702159e-06,84.168,0.7870000004768372,0.025304206452646395
84.258621,,9.955612950319177e-06,84.634,0.7699999809265137,-0.012146190840357937
84.72413800000001,,9.95409474068337e-06,85.097,0.7570000290870667,-0.04082561266135937
85.189655,,9.917030626196102e-06,85.563,0.7839999794960022,0.017708319819309874
85.65517200000001,,9.843017423265545e-06,86.028,0.7760000228881836,6.743965038248905e-05
86.12069,,9.730723033338044e-06,86.494,0.7720000147819519,-0.008774139589376532
86.586207,,9.57889426037083e-06,86.961,0.7820000052452087,0.012974295142068574
87.051724,,9.386364684690933e-06,87.419,0.7820000052452087,0.013026820919284893
87.517241,,9.152062567612075e-06,87.887,0.7620000243186951,-0.030404834979633345
87.98275899999999,,8.875018759965085e-06,88.349,0.7590000033378601,-0.03671608617610657
88.448276,,8.554374586524113e-06,88.82,0.7549999952316284,-0.04513026564018967
88.913793,,8.189389677186947e-06,89.282,0.781000018119812,0.011881436119942477
89.37931,,7.77944971469909e-06,89.746,0.7620000243186951,-0.029091015156029784
89.844828,,7.324074067704144e-06,90.216,0.7599999904632568,-0.032985255081957314
90.310345,,6.8229232769636995e-06,90.674,0.7829999923706055,0.01761315227527494
90.775862,,6.275806361724647e-06,91.144,0.7829999923706055,0.01811399115103131
91.241379,,5.682687912426906e-06,91.609,0.7400000095367432,-0.07507225505199676
91.706897,,5.0436949352462406e-06,92.075,0.7870000004768372,0.027797875145219916
92.17241399999999,,4.359123413361313e-06,92.534,0.777999997138977,0.008627078546057605
92.63793100000001,,3.6294445493277065e-06,93.001,0.824999988079071,0.11141124154174223
93.103448,,2.855310652540207e-06,93.466,0.777999997138977,0.009341039575624547
93.568966,,2.037560635474348e-06,93.931,0.781000018119812,0.016130321084467672
94.03448300000001,,1.1772250822247605e-06,94.397,0.7630000114440918,-0.022914706525964133
94.5,,2.755308528070236e-07,94.865,0.7739999890327454,0.0011321723183017876
94.965517,,6.660948132331193e-07,95.327,0.7829999923706055,0.020730174415987953
95.431034,,1.6460207301488671e-06,95.79,0.7620000243186951,-0.025122748968710317
95.896552,,2.6624087721566996e-06,96.26,0.7200000286102295,-0.11681733505226366
96.36206899999999,,3.7132114878410704e-06,96.724,0.7839999794960022,0.022339956046756218
96.827586,,4.796170357565315e-06,97.186,0.7839999794960022,0.021989319162835086
97.293103,,5.908814727863829e-06,97.651,0.7609999775886536,-0.02853277806786135
97.758621,,7.048461455844493e-06,98.115,0.7739999890327454,-0.0006733632600645547
98.224138,,8.212215295525606e-06,98.58,0.7609999775886536,-0.029494037550487105
98.689655,,9.39697005676536e-06,99.049,0.7950000166893005,0.04406326190450622
99.155172,,1.059941056601167e-05,99.514,0.7789999842643738,0.008686793723038884
99.62069,,1.1816015456503998e-05,99.979,0.7820000052452087,0.014720563898030127
100.086207,,1.3043060813795062e-05,100.445,0.9139999747276306,0.3018343959919455
100.551724,,1.4276624700528323e-05,100.905,0.7490000128746033,-0.058058912150913786
101.017241,,1.5512592582306185e-05,101.371,0.7739999890327454,-0.003947242996605038
101.482759,,1.6746663674214403e-05,101.834,0.7599999904632568,-0.03473203420062221
101.948276,,1.7974358225130915e-05,102.304,0.7739999890327454,-0.004434407854353638
102.413793,,1.9191025754343634e-05,102.768,0.7839999794960022,0.01723600253262394
102.87931,,2.0391854252233806e-05,103.231,0.9559999704360962,0.39194275899648184
103.344828,,2.1571880353852108e-05,103.701,0.7689999938011169,-0.015386422700005719
103.810345,,2.2726000491127222e-05,104.164,0.7649999856948853,-0.023930213246618096
104.275862,,2.3848983026205263e-05,104.63,0.7789999842643738,0.006825350770676348
104.741379,,2.493548136502817e-05,105.095,0.7860000133514404,0.022406394719380406
105.206897,,2.598004804672552e-05,105.56,0.7720000147819519,-0.007698729770194816
105.672414,,2.697714980072377e-05,106.02,0.7820000052452087,0.014536240014616281
106.13793100000001,,2.7921183559676674e-05,106.485,0.746999979019165,-0.061230497696438874
106.603448,,2.8806493412398485e-05,106.95,0.7409999966621399,-0.07379561873983975
107.068966,,2.962738847694638e-05,107.416,0.7870000004768372,0.02693345042659643
107.534483,,3.0378161669859902e-05,107.879,0.7699999809265137,-0.00960297655974167
108.0,,3.105310934333311e-05,108.348,0.7850000262260437,0.023551547710404477
108.46551699999999,,3.164655175778077e-05,108.809,0.8980000019073486,0.2701748415729637
108.931034,,3.215285435287507e-05,109.279,0.7620000243186951,-0.025736084084077175
109.396552,,3.256644977568662e-05,109.742,0.7839999794960022,0.022513789077690846
109.862069,,3.2881860620076397e-05,110.204,0.7580000162124634,-0.03388952529569995
110.32758600000001,,3.309372282696753e-05,110.67,0.7739999890327454,0.0011239798167711839
110.793103,,3.3196809690592526e-05,111.14,0.7570000290870667,-0.03584936299510603
111.258621,,3.318605641127797e-05,111.606,0.7839999794960022,0.022944176176863073
111.724138,,3.3056585130810805e-05,112.065,0.7570000290870667,-0.036001491792492894
112.189655,,3.280373038194557e-05,112.53,0.7490000128746033,-0.05364206128892183
112.655172,,3.242306487917702e-05,112.997,0.7549999952316284,-0.040864505444230724
113.12069,,3.1910425573536024e-05,113.463,0.7710000276565552,-0.0063733914015741185
113.586207,,3.126193988988615e-05,113.927,0.765999972820282,-0.017694593808101844
114.051724,,3.0474052061023932e-05,114.393,0.7820000052452087,0.016689848293057346
114.51724100000001,,2.9543549468835965e-05,114.854,0.7860000133514404,0.02490023927815803
114.982759,,2.846758889886158e-05,115.324,0.7599999904632568,-0.03226280623951269
115.448276,,2.7243722610869775e-05,115.786,0.7860000133514404,0.02386649133974464
115.913793,,2.5869924124504855e-05,116.249,0.7599999904632568,-0.033274887447398156
116.37931,,2.4344613615707046e-05,116.72,0.7580000162124634,-0.03809383934092339
116.84482799999999,,2.2666682816493183e-05,117.182,0.7879999876022339,0.026853572740811838
117.310345,,2.0835519307809275e-05,117.649,0.7609999775886536,-0.032318322215575145
117.77586199999999,,1.8851030092562248e-05,118.112,0.7839999794960022,0.01751722406324192
118.241379,,1.67136643336234e-05,118.577,0.7549999952316284,-0.04585330590187303
118.70689700000001,,1.4424435139591934e-05,119.043,0.7580000162124634,-0.039417806704703406
119.172414,,1.1984940279433774e-05,119.508,0.7850000262260437,0.019397885291095793
119.63793100000001,,9.397381705788947e-06,119.975,0.8489999771118164,0.15891869927144966
120.103448,,6.664583765790223e-06,120.441,0.7820000052452087,0.013130707504434605
120.568966,,3.7900099776756593e-06,120.906,0.777999997138977,0.004684298445862043
121.034483,,7.777782513272021e-07,121.364,0.6460000276565552,-0.28255503028192913
121.5,,2.3673255688552633e-06,121.834,0.7760000228881836,0.0010720470453470517
121.96551699999999,,5.6398359596126076e-06,122.297,0.7599999904632568,-0.03333421908599887
122.431034,,9.03359789270173e-06,122.765,0.7639999985694885,-0.02413050426440484
122.896552,,1.2541759045009271e-05,123.228,0.777999997138977,0.0068810158016649565
123.362069,,1.6156764160771325e-05,123.698,0.7850000262260437,0.022647739958623538
123.827586,,1.9870351679106424e-05,124.161,0.7739999890327454,-0.0008119587124936637
124.293103,,2.367355273689053e-05,124.619,0.7590000033378601,-0.03301358550310422
124.758621,,2.7556692653294708e-05,125.086,0.7720000147819519,-0.004256440107342713
125.22413800000001,,3.1509394998059034e-05,125.552,0.8510000109672546,0.16823575009474537
125.68965500000002,,3.552058834078208e-05,126.016,0.7620000243186951,-0.025351651143527585
126.15517200000001,,3.957851577315704e-05,126.481,0.7829999923706055,0.020633980017161484
126.62069000000001,,4.36707472901788e-05,126.946,0.7860000133514404,0.027317126235721256
127.086207,,4.77841951098774e-05,127.411,0.7789999842643738,0.012122095444515764
127.55172400000001,,5.190513200410181e-05,127.879,0.781000018119812,0.016441188872982668
128.017241,,5.601921270528359e-05,128.342,0.7689999938011169,-0.009834172873252233
128.48275900000002,,6.0111498445956304e-05,128.805,0.777999997138977,0.009552582259122889
128.948276,,6.416648467909796e-05,129.275,0.7870000004768372,0.02885685053407866
129.413793,,6.816813201810752e-05,129.735,0.7549999952316284,-0.041236607771514965
129.87931,,7.209990042543163e-05,130.205,0.781000018119812,0.01496990161745192
130.344828,,7.594478666853584e-05,130.671,0.7649999856948853,-0.020374723296093765
130.81034499999998,,7.968536505108002e-05,131.133,0.781000018119812,0.013965540695957573
131.275862,,8.33038314158262e-05,131.599,0.7590000033378601,-0.03449848151680289
131.741379,,8.678205040399842e-05,132.064,0.8130000233650208,0.082617084933252
132.206897,,9.010160594354841e-05,132.53,0.7820000052452087,0.014567766328537153
132.67241399999997,,9.324385492608323e-05,132.994,0.7820000052452087,0.01409340682850219
133.13793099999998,,9.618998401910697e-05,133.459,0.7609999775886536,-0.03208141715815293
133.60344800000001,,9.892106954674824e-05,133.924,0.7310000061988831,-0.09780026041710907
134.06896600000002,,0.00010141814035831882,134.389,0.7639999985694885,-0.02618961910040855
134.53448300000002,,0.0001036622435899118,134.85,0.7089999914169312,-0.14621623964224062
135.0,,0.00010563451320983602,135.32,0.8009999990463257,0.05410973299503567
135.465517,,0.00010731624122403712,135.783,0.7609999775886536,-0.03304914645316286
135.931034,,0.00010868895140281635,136.245,0.781000018119812,0.010609602221842552
136.396552,,0.00010973447537516986,136.709,0.8569999933242798,0.17637036846817386
136.862069,,0.00011043503092198152,137.179,0.7739999890327454,-0.004179960973448931
137.327586,,0.00011077330228415928,137.645,0.8029999732971191,0.05936281179450465
137.793103,,0.00011073252228666102,138.109,0.7699999809265137,-0.012098657825110474
138.258621,,0.0001102965560642645,138.574,0.7919999957084656,0.03632349402531113
138.724138,,0.00010944998615995208,139.038,0.7870000004768372,0.02596436621771265
139.189655,,0.00010817819875196341,139.504,0.781000018119812,0.013451801804793478
139.655172,,0.00010646747075097761,139.969,0.7229999899864197,-0.11234495059508744
140.12069,,0.0001043050574945811,140.434,0.765999972820282,-0.018112266221480974
140.586207,,0.00010167928075222255,140.899,0.7630000114440918,-0.024128939262511737
141.05172399999998,,9.857961674031605e-05,141.364,0.7820000052452087,0.017737074698762692
141.51724099999998,,9.499678383409362e-05,141.827,0.7620000243186951,-0.025426847007033807
141.982759,,9.092282965029487e-05,142.289,0.777999997138977,0.009764251322489854
142.44827600000002,,8.635121716288369e-05,142.757,0.777999997138977,0.010009916383079973
142.913793,,8.127690950276683e-05,143.22,0.753000020980835,-0.044306182817634654
143.37931,,7.569645308202761e-05,143.686,0.7850000262260437,0.02545950313717192
143.844828,,6.960805867354663e-05,144.149,0.753000020980835,-0.04431144064386661
144.310345,,6.301168006813107e-05,144.615,0.7829999923706055,0.02089204283740662
144.77586200000002,,5.5909089923484474e-05,145.079,0.7820000052452087,0.018460833677781497
145.241379,,4.830395241258679e-05,145.545,0.781000018119812,0.015941214801409892
145.706897,,4.020189227338887e-05,146.01,0.7850000262260437,0.024237045269182786
146.172414,,3.161055985722303e-05,146.475,0.7609999775886536,-0.028534394806932453
146.637931,,2.253969177005715e-05,146.942,0.7590000033378601,-0.03342594171696243
147.103448,,1.3001166698737943e-05,147.408,0.7870000004768372,0.027008357577704176
147.568966,,3.0090560137415703e-06,147.871,0.7630000114440918,-0.025861927951515856
148.034483,,7.4203312592635415e-06,148.334,0.8489999771118164,0.16092419238410224
148.5,,1.8268409504478648e-05,148.801,0.7739999890327454,-0.0030270685381164272
148.965517,,2.9514284019314393e-05,149.264,0.7820000052452087,0.013891366690047677
149.43103399999998,,4.113472535230001e-05,149.732,0.7820000052452087,0.013437767279159286
149.89655199999999,,5.310415086486748e-05,150.194,0.7599999904632568,-0.034874487348379106
150.362069,,6.539461389766075e-05,150.659,0.7559999823570251,-0.04388777707844619
150.82758600000003,,7.79758009116555e-05,151.131,0.7839999794960022,0.016908865630153393
151.293103,,9.081503696226576e-05,151.589,0.777999997138977,0.003732495517360686
151.758621,,0.00010387729985072962,152.06,0.7760000228881836,-0.000624163118283585
152.224138,,0.00011712524328138035,152.519,0.7789999842643738,0.006017723580483335
152.68965500000002,,0.00013051922933590205,152.99,0.7369999885559082,-0.0852776757526243
153.155172,,0.0001440173705563264,153.456,0.7950000166893005,0.0413871664884015
153.62069,,0.00015757558190733912,153.914,0.7820000052452087,0.013455048787661352
154.086207,,0.00017114764286542996,154.38,0.7620000243186951,-0.02965211363411834
154.551724,,0.00018468526985754272,154.85,0.7770000100135803,0.0035536112246001223
155.017241,,0.000198138199245172,155.312,0.7440000176429749,-0.06777244235557295
155.482759,,0.00021145428102133,155.775,0.7839999794960022,0.019968018973060817
155.948276,,0.00022457958335749578,156.245,0.7609999775886536,-0.029539452683023004
156.413793,,0.00023745850810559293,156.705,0.6620000004768372,-0.24463835879024756
156.87931,,0.0002500339173262605,157.175,0.7860000133514404,0.026066882288185173
157.34482799999998,,0.00026224727087923485,157.641,0.8029999732971191,0.06360749209884575
157.81034499999998,,0.0002740387750746055,158.105,0.7739999890327454,0.000867674711230366
158.275862,,0.0002853475423451087,158.57,0.7590000033378601,-0.031448973196048696
158.741379,,0.0002961117618595528,159.035,0.7680000066757202,-0.011568729754911047
159.20689700000003,,0.00030626888095601403,159.494,0.796999990940094,0.05178538093444938
159.672414,,0.00031575579723068563,159.96,0.7680000066757202,-0.01132639821608033
160.137931,,0.00032450906107431423,160.426,0.7739999890327454,0.0017070351096932126
160.60344800000001,,0.0003324650884031125,160.894,0.781000018119812,0.01681224398256964
161.06896600000002,,0.00033956038328502355,161.36,0.7480000257492065,-0.05533176858119683
161.534483,,0.0003457317701153494,161.82,0.7870000004768372,0.029290596219937355
162.0,,0.00035091663494818,162.29,0.7630000114440918,-0.02342740491789354
162.465517,,0.00035505317554190895,162.753,0.6600000262260437,-0.24833321180063722
162.931034,,0.0003580806596285512,163.216,0.7730000019073486,-0.0027119929617645047
163.396552,,0.0003599396908677442,163.682,0.8420000076293945,0.14700888888496547
163.862069,,0.0003605724818973823,164.145,0.7689999938011169,-0.012655916989160286
164.327586,,0.00035992313384398256,164.611,0.7820000052452087,0.015044137057275017
164.793103,,0.00035793792160728323,165.075,0.7739999890327454,-0.002987931569722402
165.258621,,0.00035456558418542875,165.541,0.7269999980926514,-0.1059495448208757
165.72413799999998,,0.00034975761925958466,166.005,0.7739999890327454,-0.004063483718855042
166.189655,,0.0003434685812101647,166.471,0.7910000085830688,0.03253543208136008
166.655172,,0.0003356563816912348,166.935,0.8510000109672546,0.1629053191982021
167.12069,,0.0003262825918453024,167.4,0.7820000052452087,0.012331172820128113
167.58620699999997,,0.0003153127451978234,167.868,0.7820000052452087,0.01219223080301432
168.051724,,0.0003027166402295764,168.331,0.7620000243186951,-0.03140824561230322
168.517241,,0.0002884686415857959,168.794,0.7850000262260437,0.01878542974327005
168.98275900000002,,0.0002725479788438454,169.264,0.7910000085830688,0.032052553683422684
169.44827600000002,,0.00025493904172648065,169.724,0.7609999775886536,-0.03300693611514342
169.913793,,0.00023563167061562638,170.193,0.7860000133514404,0.021854516317782676
170.37931,,0.00021462144119229693,170.659,0.7609999775886536,-0.03213382460117157
170.844828,,0.00019190994200206685,171.123,0.7770000100135803,0.0032704547705930363
171.310345,,0.0001675050437225784,171.588,0.7649999856948853,-0.022276776061986532
171.775862,,0.00014142115889018402,172.053,0.7699999809265137,-0.010754790435786876
172.241379,,0.00011367949082716462,172.519,0.7839999794960022,0.020387757728557734
172.706897,,8.430827049924955e-05,172.983,0.7860000133514404,0.025379858456209093
173.172414,,5.334298002564253e-05,173.449,0.7649999856948853,-0.019763855664787475
173.637931,,2.08265615606842e-05,173.909,0.7889999747276306,0.03308544573229482
174.103448,,1.319038973217552e-05,174.374,0.7820000052452087,0.018333049600301105
174.568966,,4.8649449887197816e-05,174.842,0.7620000243186951,-0.024821525458606424
175.034483,,8.54842087860095e-05,175.305,0.7649999856948853,-0.017961246262696302
175.5,,0.00012362013249582522,175.775,0.7739999890327454,0.0018664828025800873
175.96551699999998,,0.00016297444652000595,176.238,0.7820000052452087,0.019404373954029018
176.43103399999998,,0.00020345604115723997,176.706,0.777999997138977,0.010683849240904285
176.896552,,0.0002449654001332393,177.168,0.7429999709129333,-0.06569023551971324
177.36206900000002,,0.0002873945536314193,177.634,0.5379999876022339,-0.5125517289670141
177.827586,,0.0003306270568049447,178.098,0.8360000252723694,0.13633483538756636
178.293103,,0.00037453799480048015,178.564,0.7350000143051147,-0.08415578414860864
178.758621,,0.00041899401526607823,179.03,0.7929999828338623,0.04167985008312519
179.224138,,0.00046385338925605417,179.489,0.777999997138977,0.008411977050488406
179.68965500000002,,0.0005089661013833227,179.961,0.7860000133514404,0.025210173139110094
180.155172,,0.0005541739699949469,180.419,0.746999979019165,-0.06041183332390885
180.62069,,0.0005993107980542011,180.895,0.7919999957084656,0.036969495201564666
181.086207,,0.0006442025553176703,181.353,0.7820000052452087,0.01454339236183147
181.551724,,0.000688667592322214,181.816,0.7649999856948853,-0.023094634876703424
182.01724099999998,,0.0007325168866311427,182.279,0.7850000262260437,0.019934722631007887
182.482759,,0.0007755543216735181,182.75,0.7850000262260437,0.01946584548417423
182.948276,,0.0008175769983253412,183.212,0.7599999904632568,-0.035379804030886815
183.413793,,0.0008583755792307876,183.678,0.7680000066757202,-0.018229216995674306
183.87931,,0.000897734665869675,184.141,0.7829999923706055,0.014281429721204492
184.34482799999998,,0.0009354332084291405,184.606,0.7620000243186951,-0.03152398202852898
184.81034499999998,,0.0009712449482867478,185.071,0.8050000071525574,0.062221234329145614
185.27586200000002,,0.0010049388923195,185.537,0.765999972820282,-0.022567196017495714
185.74137900000002,,0.001036279817999818,186.001,0.777999997138977,0.00386509450619943
186.206897,,0.0010650288089507696,186.467,0.7599999904632568,-0.03496247871988927
186.672414,,0.0010909438214073664,186.932,0.7599999904632568,-0.03448744236565721
187.137931,,0.0011137802808647175,187.397,0.7820000052452087,0.013989847183080443
187.60344800000001,,0.0011332917053430824,187.86,0.7919999957084656,0.03637894194063192
188.06896600000002,,0.0011492303514900608,188.33,0.7850000262260437,0.021768327269372112
188.534483,,0.0011613478850968184,188.79,0.7620000243186951,-0.02768427406163994
189.0,,0.001169396081968655,189.26,0.7480000257492065,-0.05753460003845592
189.465517,,0.0011731275572134385,189.723,0.7820000052452087,0.017163701605744854
189.931034,,0.0011722965054126793,190.186,0.7590000033378601,-0.03236659702212372
190.39655199999999,,0.0011666594375514836,190.652,0.7699999809265137,-0.00788678486117976
190.862069,,0.0011559759350401962,191.115,0.7620000243186951,-0.024881481823090763
191.327586,,0.0011400094612958784,191.582,0.7789999842643738,0.01249610284215788
191.793103,,0.0011185282162324822,192.046,0.7860000133514404,0.02798349153759574
192.25862099999998,,0.0010913059333152472,192.511,0.7580000162124634,-0.032893130157083984
192.72413799999998,,0.0010581225635049262,192.976,0.7630000114440918,-0.02199032572873526
193.189655,,0.0010187650019565014,193.442,0.7850000262260437,0.02583339193956944
193.655172,,0.0009730280899391813,193.91,0.7820000052452087,0.019078908355901862
194.12069000000002,,0.0009207157502995952,194.376,0.7599999904632568,-0.02917497153310292
194.586207,,0.0008616416585712131,194.839,0.781000018119812,0.01615783021773135
195.051724,,0.0007956292570140483,195.301,0.7820000052452087,0.017835861188416256
195.517241,,0.0007225121799666425,195.764,0.7889999747276306,0.03252041569738237
195.98275900000002,,0.0006421363315152117,196.234,0.7699999809265137,-0.009487399218143493
196.448276,,0.0005543624008882468,196.698,0.777999997138977,0.007299654852127225
196.913793,,0.0004590652870938672,197.16,0.7630000114440918,-0.02603103355417198
197.37931,,0.00035613010777793606,197.626,0.7829999923706055,0.01690257909486344
197.844828,,0.0002454517805277738,198.091,0.7860000133514404,0.02283154787950922
198.310345,,0.00012694441139616782,198.557,0.7639999985694885,-0.025654303392269037
198.775862,,5.510865320741617e-07,199.023,0.7739999890327454,-0.004354978661700634
199.241379,,0.00013376626283551557,199.489,0.7699999809265137,-0.013473128690888233
199.706897,,0.0002760538094813726,199.954,0.871999979019165,0.20844381968759865
200.172414,,0.0004263653150297252,200.419,0.7820000052452087,0.012170069797015926
200.63793099999998,,0.0005847052379386107,200.88,0.7829999923706055,0.014267787865927964
201.103448,,0.0007509834559175416,201.35,0.7649999856948853,-0.024913966206543365
201.568966,,0.0009250952972905463,201.812,0.7820000052452087,0.012270320463513326
202.034483,,0.0011070777735150555,202.275,0.777999997138977,0.003811601075202661
202.5,,0.001297069061583592,202.746,0.7570000290870667,-0.041583799370448524
202.965517,,0.0014949544895487886,203.208,0.765999972820282,-0.021531656113677827
203.431034,,0.0017001671592717564,203.674,0.7860000133514404,0.02256037204815967
203.896552,,0.0019122566973336988,204.136,0.7620000243186951,-0.029149575065139124
204.36206900000002,,0.002131752911304753,204.602,0.7850000262260437,0.021577377349232905
204.827586,,0.0023596853771764115,205.069,0.7609999775886536,-0.030071322782970616
205.293103,,0.0025954246329147894,205.534,0.7850000262260437,0.02285628069688068
205.758621,,0.0028359484363255573,205.994,0.765999972820282,-0.017917259613290704
206.224138,,0.0030796961403698328,206.459,0.765999972820282,-0.017335019932390137
206.689655,,0.00333115282616017,206.924,0.7639999985694885,-0.021167251723950783
207.155172,,0.003596581382355628,207.389,0.7820000052452087,0.01850015676078785
207.62069,,0.003871192977753498,207.858,0.7680000066757202,-0.011636164165618218
208.086207,,0.004137690230274911,208.321,0.7730000019073486,-0.0004764772119493601
208.551724,,0.004391487217773521,208.79,0.7760000228881836,0.006219443888423196
209.01724099999998,,0.004663824322217085,209.253,0.7710000276565552,-0.0046251260927965675
209.482759,,0.00498834964451412,209.72,0.7889999747276306,0.034526684160007204
209.948276,,0.005326933375564816,210.183,0.7789999842643738,0.012566553178197716
210.413793,,0.00557921030734721,210.648,0.7599999904632568,-0.029106170946774094
210.87930999999998,,0.005742738048450898,211.112,0.7829999923706055,0.020627960517605754
211.344828,,0.00602112330608789,211.578,0.7580000162124634,-0.03429757468993698
211.810345,,0.006580901327718244,212.042,0.75,-0.052256914078651184
212.27586200000002,,0.007135188701412733,212.507,0.7649999856948853,-0.020161884768556584
212.741379,,0.007111781904388434,212.972,0.765999972820282,-0.01860368259891898
213.206897,,0.006645841805361616,213.437,0.7820000052452087,0.015618752479249612
213.672414,,0.007033550321320637,213.902,0.7919999957084656,0.03677439153935347
214.137931,,0.009053197059358599,214.368,0.7630000114440918,-0.027012124269551577
214.60344800000001,,0.01059180195093945,214.831,0.7789999842643738,0.00728395250423157
215.068966,,0.007726440447110304,215.301,0.7829999923706055,0.015497484578563961
215.534483,,0.0003556950711368871,215.761,0.7609999775886536,-0.032857082859044005
216.0,,0.009189650193291023,216.231,0.781000018119812,0.010381386613978364
216.465517,,0.013920140250366397,216.689,0.777999997138977,0.0036110884445438056
216.93103399999998,,0.014652158805873759,217.154,0.7599999904632568,-0.035731480264782484
217.39655199999999,,0.014513881822420346,217.62,0.7950000166893005,0.04050563178702603
217.862069,,0.014491299117288482,218.087,0.7620000243186951,-0.031293540641023854
218.327586,,0.013261639925403928,218.553,0.7789999842643738,0.005948123422533379
218.793103,,0.010592096006404804,219.021,0.777999997138977,0.00407613467933769
219.25862099999998,,0.007852585048090475,219.486,0.753000020980835,-0.04999142647793927
219.724138,,0.005827485171263402,219.95,0.7990000247955322,0.05070434499496688
220.18965500000002,,0.004286442983591684,220.416,0.7620000243186951,-0.029363013174770358
220.65517200000002,,0.00334982360688425,220.879,0.781000018119812,0.012621477686102079
221.12069,,0.003404560710757818,221.341,0.7649999856948853,-0.021618155095218375
221.586207,,0.0036716830837983075,221.809,0.7649999856948853,-0.020990355662325336
222.051724,,0.002499763815242818,222.271,0.7789999842643738,0.010127777515046399
222.517241,,0.0003362696688188221,222.739,0.7889999747276306,0.03250193363733836
222.98275900000002,,0.0027176607782041676,223.201,0.7820000052452087,0.017791893534841022
223.448276,,0.002383394766378467,223.666,0.7480000257492065,-0.05580656535486291
223.913793,,0.0005212391398144397,224.129,0.718999981880188,-0.11859359068396949
224.37931,,0.003796705285408043,224.594,0.7820000052452087,0.018960811003618645
224.844828,,0.005584056556358186,225.06,0.7649999856948853,-0.017878971476597956
225.31034499999998,,0.005606399478576394,225.526,0.7889999747276306,0.03449875910812908
225.775862,,0.004487800157024946,225.991,0.7829999923706055,0.02140780800503764
226.241379,,0.0029675434719906614,226.456,0.7559999823570251,-0.03754359382283882
226.706897,,0.0018204105412330618,226.923,0.7789999842643738,0.012332221284352157
227.172414,,0.0015891407290069969,227.389,0.765999972820282,-0.0163210570878287
227.63793099999998,,0.0019709108103468428,227.85,0.7590000033378601,-0.031989713156139056
228.103448,,0.0019444762503086695,228.32,0.7839999794960022,0.02198412437336619
228.56896600000002,,0.000964856042846548,228.782,0.7689999938011169,-0.01124601928497134
229.03448300000002,,0.0001514686799386415,229.245,0.777999997138977,0.007770707896557669
229.5,,5.26199927163861e-05,229.709,0.7950000166893005,0.044194920398014696
229.965517,,0.0014434297238539945,230.179,0.7599999904632568,-0.03267312012278329
230.431034,,0.003094274685164046,230.644,0.7699999809265137,-0.011485879610145588
230.896552,,0.003731010671532016,231.108,0.765999972820282,-0.02076535587221558
231.362069,,0.0031747714570024587,231.574,0.7990000247955322,0.05061794748804437
231.827586,,0.0015498176284925854,232.039,0.7879999876022339,0.02620999519517953
232.293103,,0.0011270961858774848,232.505,0.9419999718666077,0.36136549149512587
232.758621,,0.004032070809859093,232.965,0.7839999794960022,0.016882199357378707
233.224138,,0.005219922880535024,233.431,0.7649999856948853,-0.024664981447822663
233.689655,,0.00343828044376076,233.898,0.7609999775886536,-0.03342813536520764
234.155172,,0.0001501922088686785,234.363,0.7990000247955322,0.04941757340219726
234.62069,,0.0012227496180105663,234.824,0.7599999904632568,-0.035389100556866004
235.086207,,0.0013837902562804825,235.293,0.796999990940094,0.0454798675677669
235.55172399999998,,0.006317535997121702,235.757,0.7870000004768372,0.02404251239522424
236.01724099999998,,0.009491749189287382,236.219,0.7739999890327454,-0.0038518725193936857
236.482759,,0.008116189434678032,236.685,0.7820000052452087,0.01407019235162591
236.94827600000002,,0.0032097881514135543,237.149,0.7620000243186951,-0.02896109839463559
237.413793,,0.0014387860142622947,237.615,0.781000018119812,0.013006406654821383
237.87931,,0.0027280991806720068,238.08,0.7860000133514404,0.024486869273989447
238.344828,,0.0007321690222989584,238.546,0.7620000243186951,-0.027217579138324045
238.810345,,0.0020930147252407947,239.013,0.7590000033378601,-0.0331934703311853
239.27586200000002,,0.0037197566700230824,239.479,0.7820000052452087,0.017435230493776346
239.741379,,0.003965762872489542,239.946,0.7609999775886536,-0.02785246031552572
240.206897,,0.0034006847543861947,240.404,0.7609999775886536,-0.02745858069243146
240.672414,,0.0022094796293781684,240.873,0.7789999842643738,0.01206907929516639
241.137931,,0.0008085586496481118,241.336,0.7580000162124634,-0.03346128667669735
241.603448,,0.0004587648608026867,241.805,0.7720000147819519,-0.0028361999287255255
242.068966,,0.002095599957887236,242.267,0.7459999918937683,-0.05945787643320531
242.534483,,0.005021911238560928,242.731,0.7770000100135803,0.008002627172504832
243.0,,0.007481048585506638,243.201,0.7990000247955322,0.05575855263215056
243.465517,,0.00801327253765161,243.659,0.7739999890327454,0.0010281261624593618
243.93103399999998,,0.00606063143432704,244.131,0.7839999794960022,0.022469180850203194
244.39655199999999,,0.002427304411210307,244.589,0.7839999794960022,0.02205356295035483
244.862069,,0.0005419067448769659,245.061,0.7739999890327454,-0.0002054639547205985
245.327586,,0.0007626843043428777,245.519,0.7609999775886536,-0.02904312345251257
245.793103,,0.0010293177092952125,245.984,0.7749999761581421,0.0009158501949334524
246.258621,,0.001923925891037981,246.45,0.781000018119812,0.01343606769884237
246.724138,,0.0005735974932365391,246.917,0.7860000133514404,0.023785515367562824
247.18965500000002,,0.0011885121974172547,247.382,0.7839999794960022,0.018909285195769194
247.655172,,0.0011729662770379658,247.846,0.777999997138977,0.005359195564126348
248.12069,,0.0002218808152430414,248.315,0.7580000162124634,-0.03863757429298238
248.586207,,0.0010357738383678199,248.776,0.7770000100135803,0.002399469518673727
249.051724,,0.0005374224737778564,249.245,0.765999972820282,-0.021845820892146164
249.517241,,0.00047460759634920834,249.705,0.7649999856948853,-0.02421927439335628
249.982759,,0.001505841352145304,250.175,0.7870000004768372,0.0236070511970029
250.44827600000002,,0.0029905817043871697,250.634,0.7820000052452087,0.012703994877759068
250.913793,,0.005121833133443065,251.106,0.7609999775886536,-0.03296382681769649
251.37931000000003,,0.007112393134223133,251.564,0.7639999985694885,-0.02625428491325557
251.844828,,0.007798604316746452,252.031,0.7609999775886536,-0.03253330724419468
252.31034499999998,,0.006543954500209339,252.497,0.8119999766349792,0.07891067184864917
252.77586200000002,,0.0037973387536289044,252.964,0.765999972820282,-0.0209081439689787
253.241379,,0.0011718851738790224,253.43,0.777999997138977,0.005687705444852044
253.706897,,0.00040646755488625623,253.895,0.5410000085830688,-0.5101662745197975
254.172414,,0.0015358322573108282,254.361,0.7630000114440918,-0.026005966464256722
254.63793099999998,,0.0026218225016007815,254.824,0.7870000004768372,0.02678522253173864
255.10344800000001,,0.0021766464532389953,255.286,0.765999972820282,-0.018469772299240808
255.56896600000002,,0.0012547300957453612,255.75,0.7739999890327454,-0.0005657134967912156
256.03448299999997,,0.0018493484245602442,256.219,0.777999997138977,0.008587821145017802
256.5,,0.003600509071514167,256.685,0.7950000166893005,0.046015649916008004
256.965517,,0.0037875959562784288,257.149,0.781000018119812,0.015846196099397105
257.431034,,0.0008713203437242537,257.615,0.7599999904632568,-0.029643185659374426
257.896552,,0.0033764711930200967,258.08,0.7739999890327454,0.001042603744609986
258.362069,,0.0058989358405644975,258.546,0.7820000052452087,0.018574061745786786
258.827586,,0.005562936155582512,259.005,0.7689999938011169,-0.009730990650226607
259.29310300000003,,0.0037116290678369935,259.471,0.7789999842643738,0.011987803052304078
259.758621,,0.002185207321525349,259.935,0.8029999732971191,0.06412557893916027
260.224138,,0.0015944973119511822,260.4,0.7820000052452087,0.018147641264846318
260.689655,,0.0014115209857436376,260.868,0.6370000243186951,-0.2980554198182248
261.155172,,0.000948081953651865,261.331,0.7609999775886536,-0.028268830154814885
261.62068999999997,,0.0003009726932236261,261.794,0.7820000052452087,0.017063850870072415
262.086207,,0.002785280180932599,262.264,0.7829999923706055,0.018786334473504678
262.551724,,0.006268049712462832,262.724,0.7910000085830688,0.03573687140689822
263.017241,,0.00899596826507067,263.194,0.7799999713897705,0.011285071251648366
263.482759,,0.008765497531184446,263.659,0.765999972820282,-0.019696325219791776
263.94827599999996,,0.00543567543375497,264.123,0.7630000114440918,-0.02669263334582333
264.413793,,0.0013588939423086444,264.589,0.7820000052452087,0.014274797787956015
264.87931,,0.0013799301554254734,265.054,0.7860000133514404,0.02260942809800658
265.34482799999995,,0.0030468636361753202,265.52,0.765999972820282,-0.021285464185717272
265.810345,,0.004633471140810571,265.979,0.765999972820282,-0.021540492033831165
266.27586199999996,,0.005463531543927883,266.445,0.781000018119812,0.010958256380234352
266.741379,,0.004268030113854147,266.909,0.7760000228881836,-3.667718150907745e-05
267.206897,,0.001993066363000259,267.375,0.7620000243186951,-0.03055767052506133
267.672414,,0.001302527313321246,267.846,0.7609999775886536,-0.032675074639007366
268.137931,,0.0030649888638944905,268.308,0.8259999752044678,0.10907831397586205
268.603448,,0.005244541868130366,268.776,0.7879999876022339,0.026507695317916802
269.06896600000005,,0.0058145578329681855,269.239,0.7730000019073486,-0.005884688209534689
269.53448299999997,,0.005099986925112224,269.702,0.7770000100135803,0.003176225847565998
270.0,,0.004440704459208229,270.164,0.777999997138977,0.005749162007568788
270.465517,,0.0039404643283180735,270.63,0.7599999904632568,-0.033036652343534464
270.931034,,0.002730331844556726,271.094,0.8029999732971191,0.061097634128185536
271.396552,,0.0007009193471566936,271.56,0.7820000052452087,0.015808087946631
271.86206899999996,,0.001325555161771908,272.028,0.7829999923706055,0.018444372699945144
272.327586,,0.00300830342726989,272.493,0.6050000190734863,-0.36891929740019497
272.793103,,0.0048109362377802235,272.957,0.7799999713897705,0.012741911669100367
273.258621,,0.006504710392077024,273.422,0.7609999775886536,-0.0283015235106542
273.724138,,0.006503760359512019,273.894,0.7820000052452087,0.01774726264423618
274.18965499999996,,0.003727074927493111,274.353,0.7839999794960022,0.02234002653350032
274.655172,,0.00045710651271040564,274.821,0.7829999923706055,0.02032944860034806
275.12069,,0.003278258476400007,275.282,0.7850000262260437,0.024783094634645956
275.586207,,0.003478676449403955,275.746,0.6110000014305115,-0.3542828068779195
276.051724,,0.0023249317072316896,276.216,0.7599999904632568,-0.029725626238713374
276.517241,,0.0016991844849658792,276.674,0.7580000162124634,-0.03422003490492269
276.98275900000004,,0.0020703796944966887,277.144,0.7820000052452087,0.017862933779637737
277.448276,,0.0027158173272135776,277.61,0.765999972820282,-0.017259972819206524
277.913793,,0.0031863107883039208,278.075,0.7789999842643738,0.010746954742266782
278.37931,,0.0036807066015607476,278.534,0.7879999876022339,0.029998592135687414
278.844828,,0.004091752223840289,279.001,0.7850000262260437,0.023077462849085354
279.31034500000004,,0.0035591266276020915,279.467,0.7609999775886536,-0.02961317005552368
279.77586199999996,,0.001486478389848757,279.931,0.7580000162124634,-0.03655857138956265
280.241379,,0.0013627043019922053,280.398,0.7829999923706055,0.017503506191068417
280.706897,,0.00342044772364869,280.86,0.7620000243186951,-0.028634440175729588
281.172414,,0.0040207716759477485,281.33,0.777999997138977,0.005866309004562212
281.637931,,0.00401640310683916,281.79,0.7789999842643738,0.007726466330035868
282.10344799999996,,0.004407424623041622,282.26,0.7620000243186951,-0.029581032206424763
282.568966,,0.004851559378751858,282.724,0.7839999794960022,0.018133547414443275
283.034483,,0.004140188984306892,283.186,0.7599999904632568,-0.03430910918788583
283.5,,0.0019073802377417004,283.652,0.777999997138977,0.004815496710994566
283.965517,,0.0008493433244451066,284.116,0.7689999938011169,-0.014817673857804897
284.431034,,0.0028959640018479606,284.581,0.7820000052452087,0.013545249396615267
284.89655200000004,,0.003656409660078869,285.046,0.5929999947547913,-0.39811861777308893
285.362069,,0.002981757024355272,285.512,0.7630000114440918,-0.027594388033961605
285.827586,,0.00104395500983758,285.979,0.7990000247955322,0.051042201033428006
286.293103,,0.0011630561966821328,286.445,0.7910000085830688,0.03386747943386722
286.758621,,0.0022431785471039535,286.91,0.7760000228881836,0.0014838951622658783
287.22413800000004,,0.0020408494598758266,287.376,0.7630000114440918,-0.026510738436855554
287.689655,,0.0020002811278132214,287.839,0.7829999923706055,0.017411566843427494
288.155172,,0.0030595171369061287,288.301,0.75,-0.05412336071365021
288.62069,,0.004121036881890755,288.768,0.7820000052452087,0.01595425989642277
289.086207,,0.0037784466269197153,289.23,0.7620000243186951,-0.027267679935150415
289.55172400000004,,0.0027229052597791043,289.702,0.7580000162124634,-0.03565133207384706
290.01724099999996,,0.002852871057680566,290.164,0.7870000004768372,0.027831111756052778
290.482759,,0.004375939330679219,290.63,0.7590000033378601,-0.03290657404360966
290.948276,,0.00549762658847024,291.09,0.777999997138977,0.008707737178056164
291.413793,,0.005131146803351043,291.555,0.7739999890327454,0.00016289369023308846
291.87931,,0.004337194256781692,292.02,0.7789999842643738,0.011171644032150426
292.344828,,0.004443230433611976,292.485,0.7570000290870667,-0.036700335047021505
292.81034500000004,,0.004957265227111718,292.949,0.7649999856948853,-0.019272006428465025
293.275862,,0.0042975912999551665,293.415,0.781000018119812,0.015527508628821745
293.74137900000005,,0.001928148131802436,293.879,0.8410000205039978,0.14613349518439345
294.206897,,0.0010747303554300132,294.349,0.7570000290870667,-0.03703531413232387
294.672414,,0.0032735558924636117,294.812,0.7910000085830688,0.036830744835870004
295.13793100000004,,0.0041366126591413244,295.275,0.7580000162124634,-0.03531299637792135
295.603448,,0.004288107045579002,295.743,0.7620000243186951,-0.026880291254516374
296.068966,,0.004839716117572807,296.205,0.7739999890327454,-0.0010441010995034038
296.534483,,0.006236180629491099,296.671,0.7599999904632568,-0.03186918639773901
297.0,,0.007550678633637656,297.134,0.7990000247955322,0.05276744374220092
297.46551700000003,,0.007260914583833756,297.599,0.7839999794960022,0.019760382018048146
297.931034,,0.005043429169402571,298.064,0.777999997138977,0.006374081203575155
298.396552,,0.002502408144985351,298.53,0.7950000166893005,0.043118028345774745
298.862069,,0.0016239406106217961,298.997,0.7649999856948853,-0.02250535185959346
299.327586,,0.0026522185469372785,299.463,0.7829999923706055,0.016482459213558377
299.79310300000003,,0.004100204999214556,299.927,0.7820000052452087,0.014118034977440994
300.258621,,0.004744693673652738,300.393,0.765999972820282,-0.020879321391896417
300.724138,,0.0046978469716086255,300.861,0.9940000176429749,0.4757679133624611
301.189655,,0.004368772338271882,301.323,0.7599999904632568,-0.03406129369614889
301.65517200000005,,0.0034289555897278876,301.79,0.7480000257492065,-0.06017537721482361
302.12069,,0.0013806039771645123,302.252,0.843999981880188,0.14905460984056731
302.586207,,0.001461718382907816,302.72,0.8029999732971191,0.059859392941904496
303.05172400000004,,0.003983306522101407,303.182,0.7789999842643738,0.0077462946387339415
303.517241,,0.00492883952841947,303.648,0.7630000114440918,-0.026900157713447552
303.982759,,0.00354612081819519,304.112,0.7839999794960022,0.01909346020287088
304.448276,,0.0003076366551626525,304.578,0.765999972820282,-0.01985712513195589
304.913793,,0.0026484927068037433,305.042,0.7699999809265137,-0.010862271647319954
305.37931000000003,,0.0026310012204656306,305.507,0.7789999842643738,0.009032957144486115
305.844828,,0.0010436277355117389,305.974,0.7599999904632568,-0.03207476223903605
306.310345,,0.005921125936122271,306.439,0.7990000247955322,0.053170883789691814
306.775862,,0.008793751465266519,306.905,0.9580000042915344,0.3998426723677635
307.241379,,0.008930054662908329,307.364,0.7590000033378601,-0.033457639988471954
307.70689699999997,,0.00796921224539071,307.834,0.7739999890327454,-0.0005536106943592614
308.172414,,0.007102281750402567,308.297,0.7760000228881836,0.0039925014338851985
308.637931,,0.005804722782917264,308.761,0.7599999904632568,-0.030717532934417546
309.103448,,0.0033168263118576314,309.23,0.7860000133514404,0.026031866631388376
309.568966,,5.4567730763446155e-06,309.689,0.7820000052452087,0.01737610831558834
310.034483,,0.00304250524487938,310.154,0.7609999775886536,-0.028363341811005503
310.5,,0.004880408517914352,310.62,0.781000018119812,0.01517525345266988
310.96551700000003,,0.00515143415227234,311.086,0.7620000243186951,-0.02629858011928555
311.431034,,0.004543718423639017,311.552,0.7889999747276306,0.032403393846348674
311.896552,,0.0045387692807033015,312.017,0.7829999923706055,0.019172751218782955
312.362069,,0.005687752398615232,312.482,0.7630000114440918,-0.02459139294534154
312.827586,,0.00649301566967535,312.949,0.777999997138977,0.007869943049605222
313.29310300000003,,0.005132047540912316,313.415,0.7620000243186951,-0.027227551382640502
313.758621,,0.0019314889147811658,313.876,0.7620000243186951,-0.027480861140771553
314.224138,,0.0010163607966682882,314.346,0.7789999842643738,0.009295917984643513
314.689655,,0.0023436643452401347,314.809,0.7649999856948853,-0.021464473776303762
315.155172,,0.002340910506074604,315.272,0.7789999842643738,0.008785440929229364
315.62068999999997,,0.0016310483730317983,315.735,0.765999972820282,-0.019773171630022623
316.086207,,0.00014780824153399265,316.205,0.7630000114440918,-0.026524094925218143
316.551724,,0.0022034305073090465,316.67,0.7860000133514404,0.023396610518390835
317.017241,,0.004514838930442596,317.133,0.7239999771118164,-0.11183663863093697
317.482759,,0.005154886476540273,317.599,0.7620000243186951,-0.029170728231638854
317.94827599999996,,0.0033545994577850124,318.064,0.7850000262260437,0.020853058603511943
318.413793,,0.00032305782198591864,318.53,0.7839999794960022,0.018630335113743672
318.87931000000003,,0.0017543555926370677,318.989,0.746999979019165,-0.06198205059006002
319.344828,,0.0018682879717930435,319.454,0.7829999923706055,0.016487430273378102
319.810345,,0.0007650378943724122,319.92,0.7839999794960022,0.01874370645639067
320.275862,,0.0004897944395767719,320.385,0.7599999904632568,-0.03342897678073706
320.741379,,0.0014733473382541739,320.853,0.7649999856948853,-0.02238805530963763
321.20689699999997,,0.0017643495745390475,321.315,0.7820000052452087,0.014825105465503788
321.672414,,0.0006447862708984225,321.783,0.7839999794960022,0.019382402945535532
322.137931,,0.0017013797435071313,322.245,0.7820000052452087,0.015243749063911146
322.603448,,0.0034809546381473658,322.709,0.7749999761581421,0.00022383672827986463
323.068966,,0.0028771901589831456,323.179,0.7649999856948853,-0.021326850403677343
323.53448299999997,,0.00022582524317339643,323.645,0.7870000004768372,0.02683764922621064
324.0,,0.002168401325900143,324.105,0.765999972820282,-0.018687688407984997
324.465517,,0.0023787948934164533,324.57,0.7789999842643738,0.009846992998139507
324.931034,,0.00040460900954196986,325.035,0.7839999794960022,0.02093277079361017
325.396552,,0.0023857433621410095,325.501,0.7599999904632568,-0.031187057533035207
325.86206899999996,,0.004375613663659139,325.965,0.7559999823570251,-0.039764015928254494
326.327586,,0.0043293976010507105,326.431,0.7820000052452087,0.016984900277846302
326.793103,,0.00215419166523649,326.898,0.7590000033378601,-0.033055748512635215
327.258621,,0.0005506360202555874,327.364,0.7870000004768372,0.027977685199460135
327.724138,,0.0016869098969762876,327.827,0.7960000038146973,0.04758011011535588
328.189655,,0.0008986582513842724,328.29,0.777999997138977,0.008323359513544768
328.655172,,0.00013206659089853783,328.761,0.7990000247955322,0.05399973197478951
329.12068999999997,,5.850834859464656e-05,329.223,0.7570000290870667,-0.03761111252127462
329.586207,,0.0010628520596962765,329.689,0.7870000004768372,0.02761100768271019
330.051724,,0.0015975420386945163,330.155,0.7570000290870667,-0.03791169184574197
330.517241,,0.0011947591037530523,330.62,0.7730000019073486,-0.0032382839100854677
330.982759,,0.0003444263867438949,331.079,0.7789999842643738,0.00963234053759338
331.44827599999996,,0.00024005828327087287,331.545,0.7649999856948853,-0.02108044696702848
331.913793,,7.199182254164314e-05,332.009,0.7620000243186951,-0.027833126108608393
332.37931,,0.0015070516290050019,332.475,0.7829999923706055,0.017702456944071642
332.844828,,0.003150633949053129,332.942,0.7620000243186951,-0.028258040379890926
333.310345,,0.0031239290254983154,333.407,0.9070000052452087,0.287452134060944
333.77586199999996,,0.0004700554147004121,333.875,0.7820000052452087,0.01494987863958069
334.241379,,0.003346929953079968,334.338,0.7820000052452087,0.014803954496231831
334.706897,,0.005848668935107144,334.805,0.7850000262260437,0.021220436775524917
335.17241399999995,,0.006501283249962669,335.267,0.7599999904632568,-0.03333655248415355
335.637931,,0.007117938324021069,335.735,0.7609999775886536,-0.03121864099272007
336.103448,,0.008857562103188854,336.197,0.7749999761581421,-0.0007472228938372079
336.56896600000005,,0.010078046434719606,336.663,0.7820000052452087,0.014505901068970858
337.034483,,0.008412198322875148,337.126,0.7789999842643738,0.008004735551397777
337.5,,0.0043440338994531836,337.592,0.7789999842643738,0.008070736275550047
337.965517,,0.0011859224978395771,338.057,0.7620000243186951,-0.028871353189473162
338.431034,,0.0013062905685588353,338.523,0.8809999823570251,0.23051047583726594
338.89655200000004,,0.0035045909614221625,338.987,0.7739999890327454,-0.002455761428033318
339.36206899999996,,0.004571882237178125,339.453,0.7820000052452087,0.015143480696553156
339.827586,,0.0026899627539241234,339.92,0.7839999794960022,0.01968518205377967
340.293103,,0.001187226328418114,340.385,0.7889999747276306,0.03077262437377014
340.758621,,0.0048364177506019105,340.846,0.781000018119812,0.013542328301426347
341.224138,,0.007008336642282324,341.315,0.7620000243186951,-0.02765445511790566
341.68965499999996,,0.007964285324753993,341.776,0.7820000052452087,0.016109070478819473
342.155172,,0.008219279574700297,342.245,0.7910000085830688,0.03589615804702077
342.62069,,0.00778499921386735,342.709,0.7739999890327454,-0.0009772383599866243
343.086207,,0.006959902782490313,343.171,0.781000018119812,0.014417000661449028
343.551724,,0.006623877642132906,343.637,0.7599999904632568,-0.0312151658087597
344.01724099999996,,0.006889417667194546,344.104,0.7409999966621399,-0.07251800112648929
344.48275900000004,,0.0065335856122564345,344.57,0.7710000276565552,-0.00709768130983002
344.948276,,0.004808400381912958,345.035,0.7850000262260437,0.02343324302475048
345.413793,,0.0029273176268261405,345.494,0.7860000133514404,0.025611449850294805
345.87931,,0.002558128674889069,345.961,0.7879999876022339,0.029938710910777225
346.344828,,0.0033555388009359473,346.427,0.7739999890327454,-0.0006210177716436938
346.81034500000004,,0.003283101699687335,346.894,0.7870000004768372,0.02761567110139509
347.275862,,0.0014826623175470592,347.36,0.7620000243186951,-0.026961232420130266
347.741379,,0.0002554724405724858,347.823,0.6449999809265137,-0.28199879926695853
348.206897,,0.00040931301411368203,348.286,0.765999972820282,-0.018541398893852812
348.672414,,0.0031744453756666845,348.754,0.7689999938011169,-0.012181299911133108
349.13793100000004,,0.004802358198980145,349.217,0.7749999761581421,0.0007053585653511709
349.60344799999996,,0.0024526958426629797,349.682,0.7860000133514404,0.02448172712281885
350.068966,,0.002970747404919912,350.146,0.777999997138977,0.00686554529556448
350.534483,,0.007493612708958965,350.611,0.7620000243186951,-0.028173184269194698
351.0,,0.008249590348536477,351.079,0.765999972820282,-0.019628430057855587
351.465517,,0.006276116058024671,351.544,0.7870000004768372,0.025968901965810327
351.93103399999995,,0.004756848741607886,352.009,0.7820000052452087,0.01494142946322512
352.396552,,0.0053325592025993485,352.474,0.7739999890327454,-0.0025984712524813607
352.862069,,0.007032039738028465,352.939,0.7590000033378601,-0.035363265904823526
353.32758600000005,,0.00823593482675631,353.406,0.7789999842643738,0.008151815685034782
353.793103,,0.008387411562382081,353.868,0.781000018119812,0.012480298599212377
354.258621,,0.007680298983777219,354.33,0.7639999985694885,-0.024556110566114484
354.72413800000004,,0.006179616797236575,354.798,0.7979999780654907,0.04954784826522625
355.189655,,0.003847987247678849,355.261,0.7820000052452087,0.01474824515544101
355.655172,,0.0009186499645939237,355.724,0.7630000114440918,-0.02656076470518585
356.12069,,0.002206891333221152,356.194,0.7580000162124634,-0.03734579085198866
356.586207,,0.005060842785589889,356.659,0.7739999890327454,-0.002359737565407505
357.05172400000004,,0.006819285270939058,357.123,0.7599999904632568,-0.03271692701554684
357.517241,,0.0065093759052409364,357.589,0.7820000052452087,0.015369697826383958
357.982759,,0.004171147390566421,358.053,0.7860000133514404,0.024249457068776088
358.448276,,0.0015125055174292487,358.519,0.7820000052452087,0.01570490245751059
358.913793,,0.0006935469002956887,358.979,0.777999997138977,0.007160601105453155
359.37931000000003,,0.002376355800071011,359.445,0.7789999842643738,0.009505088126674825
359.844828,,0.005253900568841529,359.909,0.7739999890327454,-0.0012312101153430844
360.310345,,0.007345175627613778,360.375,0.765999972820282,-0.01851683344057762
360.775862,,0.007444986923573682,360.846,0.7609999775886536,-0.02928397999551206
361.241379,,0.005606273610839499,361.308,0.777999997138977,0.007858460904759463
361.706897,,0.0028602341651775584,361.776,0.7889999747276306,0.03190632579624741
362.172414,,0.0005338290050987177,362.238,0.7820000052452087,0.01671462090726744
362.63793100000004,,0.0007033326589217751,362.706,0.6890000104904175,-0.18586815896432127
363.103448,,0.0013291224252566442,363.169,0.7950000166893005,0.04507080642727273
363.568966,,0.002197447950554228,363.634,0.777999997138977,0.008008517042765128
364.034483,,0.0033407261411649656,364.094,0.7609999775886536,-0.029079151222995904
364.5,,0.004103233766192186,364.559,0.7839999794960022,0.020954864554669196
364.96551700000003,,0.004429840424667908,365.024,0.7850000262260437,0.023037104273301242
365.431034,,0.00511724843088902,365.489,0.765999972820282,-0.018472638924961624
365.896552,,0.006313093882640324,365.957,0.7820000052452087,0.016254489995608957
366.362069,,0.006567808113398326,366.422,0.7599999904632568,-0.03181985251396456
366.827586,,0.004384243426765383,366.894,0.7990000247955322,0.052994825287263396
367.29310300000003,,0.0004691802963623766,367.352,0.7870000004768372,0.02669438034137113
367.758621,,0.00261180831324451,367.82,0.777999997138977,0.006930175648651342
368.224138,,0.003242358511409164,368.282,0.7570000290870667,-0.03897450118123468
368.689655,,0.0024059049502878566,368.746,0.7879999876022339,0.02841712763914868
369.155172,,0.0020903099923606228,369.216,0.7689999938011169,-0.013112827463233546
369.62068999999997,,0.0026064200173244708,369.674,0.7630000114440918,-0.026306416456659716
370.086207,,0.002225504417358701,370.144,0.765999972820282,-0.01987588971612411
370.55172400000004,,0.0004691250901895692,370.61,0.796999990940094,0.04757653686320605
371.017241,,0.004421733275728189,371.075,0.7870000004768372,0.025727084550665965
371.482759,,0.006757667267673274,371.541,0.7620000243186951,-0.02877804390774201
371.948276,,0.005579161508465022,372.006,0.7590000033378601,-0.035329216988823756
372.413793,,0.001833779677474402,372.464,0.843999981880188,0.1498658633384076
372.87931000000003,,0.001732881023526435,372.931,0.7599999904632568,-0.03310433469015577
373.344828,,0.003229995456217279,373.397,0.7850000262260437,0.021422574935684627
373.810345,,0.002810926550005589,373.865,0.7879999876022339,0.02804109972670002
374.275862,,0.0014379481996309447,374.327,0.7680000066757202,-0.015429109396224341
374.741379,,0.0004841724359978411,374.79,0.7870000004768372,0.026084985899882694
375.20689699999997,,0.002707785642772134,375.26,0.7620000243186951,-0.028247625241293532
375.672414,,0.0043339356534084165,375.724,0.7749999761581421,0.00021829274486733462
376.137931,,0.004506371910370872,376.186,0.765999972820282,-0.019239776887993745
376.603448,,0.003591403696569671,376.652,0.7760000228881836,0.002699103658960299
377.068966,,0.0027388465904524635,377.116,0.7789999842643738,0.009386173630521294
377.53448299999997,,0.0023355869716746025,377.581,0.7789999842643738,0.009532810057457373
378.0,,0.0016548161020597898,378.045,0.7789999842643738,0.0096712453403863
378.465517,,0.00012592458781017247,378.511,0.7609999775886536,-0.02941805092033352
378.931034,,0.0017555144486294532,378.976,0.765999972820282,-0.01841421564248199
379.396552,,0.003131465257181937,379.442,0.7820000052452087,0.016536399918026926
379.862069,,0.003822662753401135,379.909,0.7860000133514404,0.02532317479026113
380.327586,,0.004145654038664773,380.375,0.7580000162124634,-0.03562875150760522
380.79310300000003,,0.004180716126723526,380.838,0.7490000128746033,-0.05521072408871751
381.258621,,0.0038934000584723376,381.302,0.75,-0.053032120237987423
381.724138,,0.003609300749027524,381.764,0.7739999890327454,-0.0007701476795554703
382.189655,,0.00369014310156848,382.234,0.7730000019073486,-0.0029983386094835206
382.655172,,0.0040279688704198515,382.698,0.7599999904632568,-0.031392896300618
383.12068999999997,,0.004379037021012368,383.16,0.7820000052452087,0.01644456631505882
383.586207,,0.0047970019295803705,383.626,0.7789999842643738,0.009797859898626
384.051724,,0.005238919594449981,384.09,0.7820000052452087,0.01620844388279742
384.517241,,0.0052451823403450604,384.555,0.7490000128746033,-0.055824478156579774
384.982759,,0.004636551484834347,385.02,0.7599999904632568,-0.03200652068560805
385.44827599999996,,0.004066220898058449,385.485,0.7870000004768372,0.026664302545540086
385.913793,,0.004106984212969928,385.949,0.7609999775886536,-0.030134320861173236
386.37931,,0.004160073160990239,386.415,0.7860000133514404,0.024181259272616117
386.84482799999995,,0.003222490381618275,386.883,0.7599999904632568,-0.032607608642275
387.310345,,0.0015273098671721142,387.346,0.777999997138977,0.006474481600604554
387.775862,,0.00030056416992130865,387.809,0.7839999794960022,0.019426817250998527
388.241379,,0.00015418393975051922,388.278,0.7670000195503235,-0.017712204075091907
388.70689699999997,,0.0009219919243981184,388.739,0.7739999890327454,-0.002544059973825309
389.172414,,0.0026321757980354793,389.208,0.7820000052452087,0.014824861855361152
389.637931,,0.004228389178175844,389.674,0.7490000128746033,-0.0571073635361208
390.103448,,0.004291645590399316,390.137,0.7839999794960022,0.019132602286869187
390.56896600000005,,0.0028420534708790577,390.603,0.777999997138977,0.006073258098738644
391.03448299999997,,0.0010831329486394267,391.071,0.7649999856948853,-0.022211459996161045
391.5,,8.238803620930313e-05,391.529,0.7630000114440918,-0.02650715617796371
391.965517,,0.0005209249561937205,391.994,0.7639999985694885,-0.02424488752541635
392.431034,,0.0002984145082330148,392.46,0.7739999890327454,-0.0023544330217019497
392.896552,,0.00042476145554502765,392.927,0.7850000262260437,0.02173322923465755
393.36206899999996,,0.0009651554888663146,393.393,0.7739999890327454,-0.0020936866819930857
393.827586,,0.00043520933378436786,393.861,0.7680000066757202,-0.015015130147654402
394.293103,,0.0011289647297014784,394.323,0.828000009059906,0.11586323397991719
394.75862099999995,,0.002424169732319382,394.784,0.7710000276565552,-0.008154391593272558
395.224138,,0.0021575998464501115,395.253,0.7850000262260437,0.022512831748614768
395.68965499999996,,0.0006346943863321611,395.716,0.8489999771118164,0.1621093529157697
396.155172,,0.0003086292286250427,396.186,0.6549999713897705,-0.26039410934626567
396.62069,,0.0006318174147813639,396.644,0.7889999747276306,0.03168288511054501
397.086207,,0.0022689044680444556,397.109,0.7620000243186951,-0.027022089397931447
397.551724,,0.001767184781827047,397.575,0.7820000052452087,0.016648262922234043
398.017241,,0.0020354598365920394,398.039,0.7839999794960022,0.021079323274322107
398.48275900000004,,0.006784591329110495,398.505,0.781000018119812,0.014591836202342107
398.94827599999996,,0.008863268736066257,398.971,0.7850000262260437,0.023327779200580684
399.413793,,0.007116760118057365,399.437,0.7820000052452087,0.0167851849098989
399.87931,,0.003664580113390161,399.902,0.753000020980835,-0.046430912975872186
400.344828,,0.0012874071732253526,400.368,0.800000011920929,0.055901892449577155
400.810345,,0.0006658828792905112,400.831,0.7620000243186951,-0.0269769525725389
401.27586199999996,,0.00031307248821527264,401.301,0.781000018119812,0.014302574186883783
401.741379,,0.0011138651879948184,401.761,0.8009999990463257,0.05773930709517057
402.206897,,0.0029975061544510206,402.23,0.7820000052452087,0.01619152708772656
402.672414,,0.003680180163327628,402.689,0.7609999775886536,-0.029727690295303758
403.137931,,0.002746765681088279,403.154,0.7620000243186951,-0.02772729909188591
403.60344799999996,,0.0013379409687525679,403.619,0.7820000052452087,0.015661210352358425
404.068966,,0.00017150660606039326,404.086,0.7649999856948853,-0.021560912316502433
404.534483,,0.00150406315200246,404.552,0.7770000100135803,0.0044023706916939825
405.0,,0.004484470861968203,405.02,0.7910000085830688,0.03473287210430168
405.465517,,0.008146979990347431,405.479,0.7580000162124634,-0.037318105452233664
405.931034,,0.011050138247126171,405.946,0.75,-0.0548844399968629
406.39655200000004,,0.012296629572800923,406.411,0.7599999904632568,-0.033213176473127146
406.862069,,0.011847492538827355,406.879,0.7609999775886536,-0.031123951743804844
407.327586,,0.01022059124071575,407.341,0.777999997138977,0.005853135797077692
407.793103,,0.008453746590321057,407.809,0.7820000052452087,0.014540185723224741
408.258621,,0.007742723605001586,408.272,0.8209999799728394,0.09951491755908048
408.72413800000004,,0.008261438969692503,408.735,0.7850000262260437,0.021127393034443824
409.18965499999996,,0.00847248294600902,409.205,0.7630000114440918,-0.026724630858126236
409.655172,,0.0064564734552158935,409.67,0.7870000004768372,0.02567297028940351
410.12069,,0.0022929644279685818,410.133,0.7680000066757202,-0.015582114523403719
410.586207,,0.0015132173889759147,410.599,0.8109999895095825,0.07826516181382534
411.05172400000004,,0.0026252500788879678,411.065,0.7820000052452087,0.01527222556155185
411.51724099999996,,0.0014362023111411974,411.53,0.7609999775886536,-0.03027498923372872
411.982759,,0.000290945494729263,411.99,0.765999972820282,-0.019167629376928036
412.448276,,0.0006567902308546874,412.456,0.7609999775886536,-0.0298434859055224
412.913793,,0.002097695752976294,412.92,0.7699999809265137,-0.010021171309629732
413.37931,,0.0037045732874332418,413.386,0.7860000133514404,0.025043151997123633
413.844828,,0.005295872120365926,413.849,0.765999972820282,-0.018338322224721235
414.31034500000004,,0.007004521018887165,414.319,0.7730000019073486,-0.0029164361445161695
414.775862,,0.00844775723103645,414.783,0.7870000004768372,0.02773052995095233
415.241379,,0.008691191826497986,415.245,0.7630000114440918,-0.024440906105758643
415.706897,,0.007053719427601169,415.709,0.7889999747276306,0.03228633504616501
416.172414,,0.004196177769334818,416.178,0.7699999809265137,-0.00906190968087911
416.63793100000004,,0.0023420896816039325,416.644,0.7820000052452087,0.01708980682372327
417.103448,,0.0035397796788314267,417.108,0.7789999842643738,0.010522757166759874
417.568966,,0.007114134878249728,417.574,0.7789999842643738,0.010453238671674473
418.034483,,0.009615785965181853,418.038,0.777999997138977,0.008168033998739315
418.5,,0.008324960685260112,418.504,0.765999972820282,-0.018117150601627774
418.96551700000003,,0.004453646724256747,418.969,0.7699999809265137,-0.009575401093564822
419.43103399999995,,0.0019286283294674591,419.434,0.7820000052452087,0.01636881747094071
419.896552,,0.0031716474984495053,419.894,0.765999972820282,-0.01871032646558662
420.362069,,0.006801423232698862,420.36,0.7860000133514404,0.024627176686609187
420.827586,,0.009325985375291139,420.831,0.7879999876022339,0.028741153883462073
421.293103,,0.008539020759103743,421.294,0.7590000033378601,-0.03468367946662528
421.758621,,0.00533901985876054,421.757,0.777999997138977,0.006472266490791691
422.22413800000004,,0.0024705404848421736,422.219,0.7620000243186951,-0.02861182788508186
422.689655,,0.0014672044346127917,422.685,0.7630000114440918,-0.026639761426224883
423.15517200000005,,0.0011291901490748189,423.149,0.8029999732971191,0.06032564566598182
423.62069,,0.0005805846729584303,423.615,0.7860000133514404,0.023141193374548216
424.086207,,0.003608147644948958,424.079,0.7820000052452087,0.014316873711227321
424.55172400000004,,0.005686076111038645,424.545,0.7630000114440918,-0.02714647441225266
425.017241,,0.0051034584641822195,425.016,0.7570000290870667,-0.040245026781302956
425.482759,,0.002705571454875534,425.474,0.7620000243186951,-0.029335285104694603
425.948276,,0.0007278255388284782,425.946,0.7870000004768372,0.02519127718960834
426.413793,,0.0002187288395865704,426.404,0.7839999794960022,0.01875937265006395
426.87931000000003,,0.0003214104283941786,426.872,0.7699999809265137,-0.011596290298827767
427.344828,,6.2093067038363945e-06,427.334,0.7820000052452087,0.014730216725331069
427.810345,,0.0002983657434051637,427.802,0.7490000128746033,-0.05695061902883931
428.275862,,0.0005987928807845862,428.265,0.7860000133514404,0.023899660002904236
428.741379,,0.0025905301052797382,428.735,0.765999972820282,-0.019413817159075107
429.20689699999997,,0.003749261587971938,429.197,0.7850000262260437,0.022252468910275394
429.672414,,0.002421371213266633,429.664,0.7599999904632568,-0.031937770575078094
430.137931,,0.0005261723406229343,430.127,0.7789999842643738,0.009728521474322006
430.603448,,0.002473314684999615,430.593,0.7630000114440918,-0.024870089967726286
431.068966,,0.0022841700030297196,431.06,0.7950000166893005,0.04508667498915433
431.534483,,0.0018290908538576415,431.525,0.7620000243186951,-0.0265955836388499
432.0,,0.0034851001685137447,431.984,0.7990000247955322,0.054194128187142705
432.46551700000003,,0.006808276310453401,432.449,0.781000018119812,0.015119283069506696
432.931034,,0.008915694770756205,432.916,0.7829999923706055,0.019573849335849103
433.396552,,0.007989102101428497,433.382,0.7620000243186951,-0.02612812723470343
433.862069,,0.005043772653296147,433.85,0.7580000162124634,-0.03484389319045375
434.327586,,0.001913613424465788,434.312,0.7990000247955322,0.05442840117678277
434.79310300000003,,0.0010966433023062412,434.775,0.7789999842643738,0.010753733745120283
435.258621,,0.004454524226927273,435.245,0.7789999842643738,0.01060523159735001
435.724138,,0.0071877796840716345,435.706,0.7649999856948853,-0.020088155763532897
436.189655,,0.007088341577326416,436.175,0.7699999809265137,-0.009426339360838532
436.655172,,0.003477813187649397,436.634,0.7630000114440918,-0.024941189712449664
437.12068999999997,,0.0011485286074556754,437.102,0.7620000243186951,-0.027409850945409313
437.586207,,0.0029846828869951733,437.567,0.7839999794960022,0.02021324335114968
438.051724,,0.0005765353860500629,438.035,0.7839999794960022,0.019898924306409327
438.517241,,0.003447091952282051,438.5,0.7770000100135803,0.004336534970127639
438.982759,,0.004743457784629063,438.964,0.781000018119812,0.01275085501681245
439.448276,,0.0018611362164238732,439.43,0.7590000033378601,-0.03545936673537603
439.913793,,0.0019313938234569623,439.898,0.7559999823570251,-0.04224700396012267
440.37931000000003,,0.002205383043943223,440.356,0.7649999856948853,-0.02285491976807585
440.844828,,0.0016936504974063515,440.824,0.7639999985694885,-0.025206136092029825
441.310345,,0.006376000935334167,441.286,0.7919999957084656,0.035673116249699904
441.775862,,0.008733130422450757,441.75,0.7649999856948853,-0.02321872400780904
442.241379,,0.008999931235192491,442.219,0.7820000052452087,0.013807358039601125
442.70689699999997,,0.009112970631867182,442.686,0.7850000262260437,0.020390955156925752
443.172414,,0.009431115113444374,443.149,0.7590000033378601,-0.036148477244903846
443.637931,,0.008414218508712077,443.615,0.777999997138977,0.005406249360291188
444.103448,,0.005242993359492785,444.075,0.7580000162124634,-0.03795565160511452
444.568966,,0.0015200036055571958,444.541,0.7789999842643738,0.00805189075930676
445.03448299999997,,0.00020489744356803175,445.005,0.7829999923706055,0.01706077118050185
445.5,,0.0007730414952478366,445.47,0.7789999842643738,0.008670779562854072
445.965517,,0.0024375572155593455,445.935,0.5699999928474426,-0.44632533436491656
446.431034,,0.0020517102059736387,446.401,0.8050000071525574,0.06600228620735447
446.896552,,0.0009647788182039793,446.864,0.7310000061988831,-0.09487581450838668
447.36206899999996,,0.004195009376541617,447.334,0.7760000228881836,0.003494793035213704
447.827586,,0.004442543989417573,447.797,0.7620000243186951,-0.026695283732618973
448.29310300000003,,0.0008283346520083449,448.26,0.7879999876022339,0.030231656495652584
448.758621,,0.00445421132931957,448.731,0.7789999842643738,0.010868991262716348
449.224138,,0.00818354551102121,449.193,0.753000020980835,-0.04557561116906989
449.689655,,0.008362169078713661,449.659,0.7870000004768372,0.028646619170545874
450.155172,,0.004830597784154887,450.123,0.7609999775886536,-0.027906882105320552
450.62068999999997,,0.0009690995706314096,450.588,0.7950000166893005,0.046198744203141545
451.086207,,0.006244241147930378,451.053,0.7839999794960022,0.02220381236769721
451.551724,,0.007993770450986896,451.518,0.7889999747276306,0.03300642750470051
452.017241,,0.005264145123613204,451.984,0.7599999904632568,-0.030324757556252527
452.482759,,0.0003192655486592709,452.449,0.7829999923706055,0.019576925037822435
452.94827599999996,,0.0031894790859992327,452.909,0.6200000047683716,-0.3358045135432055
453.413793,,0.003498333528764441,453.375,0.7689999938011169,-0.011497724775640624
453.87931,,0.001830242127294442,453.843,0.7919999957084656,0.03826069200819297
454.344828,,0.00013769297782363353,454.305,0.777999997138977,0.007383952501415051
454.810345,,0.001392558953646889,454.775,0.777999997138977,0.00699401127633949
455.27586199999996,,0.0035935073508832553,455.238,0.7649999856948853,-0.021721708695454894
455.741379,,0.0057214806909348746,455.701,0.7789999842643738,0.008394295556248902
456.206897,,0.005572097506326792,456.164,0.7620000243186951,-0.029007991365751967
456.672414,,0.002683129906248143,456.63,0.7820000052452087,0.014230520085667957
457.137931,,0.00036451600446658634,457.094,0.777999997138977,0.00522310487731693
457.603448,,0.0009805183240778207,457.56,0.7630000114440918,-0.027698588416322265
458.06896600000005,,0.0003273067388607203,458.027,0.781000018119812,0.011333462744764725
458.53448299999997,,0.0011118624490383034,458.493,0.7620000243186951,-0.030179968766661933
459.0,,0.00039023994596732554,458.957,0.7369999885559082,-0.08469738004153754
459.465517,,0.0004850899287601289,459.422,0.7699999809265137,-0.012783393775146005
459.931034,,1.783189546533647e-05,459.895,0.777999997138977,0.004735336069240527
460.39655200000004,,0.0016562265896943372,460.353,0.7749999761581421,-0.001641157644787214
460.86206899999996,,0.0033255817712743935,460.816,0.7820000052452087,0.013835198522514046
461.327586,,0.004088127700863496,461.279,0.777999997138977,0.0054067348814327825
461.793103,,0.003821179788083176,461.749,0.7839999794960022,0.018817351050764257
462.258621,,0.0028497324249025656,462.212,0.7620000243186951,-0.028731319103344984
462.724138,,0.001573414115432022,462.678,0.781000018119812,0.013075911479500931
463.18965499999996,,0.0003090382488168874,463.141,0.7620000243186951,-0.02788625377870227
463.655172,,0.0006416700783827253,463.606,0.7879999876022339,0.029197268679180648
464.12069,,0.0009414831784945407,464.071,0.7879999876022339,0.02963000539699777
464.58620699999994,,0.00062182085341666,464.537,0.7599999904632568,-0.030958615850680642
465.051724,,0.00048396906537958776,465.001,0.7599999904632568,-0.030578051143825176
465.517241,,0.0012920737628006641,465.467,0.7649999856948853,-0.019349559916025993
465.98275900000004,,0.002262803809800976,465.931,0.7260000109672546,-0.10403805315679972
466.448276,,0.0014388250117020169,466.397,0.7820000052452087,0.018179259937684215
466.913793,,0.0014895090792671388,466.865,0.7860000133514404,0.02703541069891985
467.37931,,0.003692500463472952,467.328,0.7649999856948853,-0.018650357602709226
467.844828,,0.0021117971515078097,467.79,0.7789999842643738,0.011837824360389985
468.31034500000004,,0.002505861126247069,468.26,0.7739999890327454,0.0008524614830699726
468.77586199999996,,0.006119798964975179,468.724,0.765999972820282,-0.016746243214137504
469.241379,,0.005863094753534868,469.186,0.7870000004768372,0.028762926939331638
469.706897,,0.0025107995513608244,469.652,0.7889999747276306,0.032811814199075084
470.172414,,0.0012487129849383248,470.116,0.7820000052452087,0.01719606427834588
470.63793100000004,,0.0032372489812872627,470.582,0.7609999775886536,-0.02896807868543638
471.10344799999996,,0.002660490884024008,471.045,0.7789999842643738,0.009799295995515114
471.568966,,0.0005725264923387667,471.511,0.7609999775886536,-0.029887568832032637
472.034483,,0.000250652464559003,471.975,0.7609999775886536,-0.030367970386633032
472.5,,0.0023423732088816806,472.441,0.7870000004768372,0.025801855480752787
472.965517,,0.007003858054189119,472.905,0.7829999923706055,0.016632725427198704
473.43103399999995,,0.009533488032669065,473.371,0.7829999923706055,0.01621305093926631
473.89655200000004,,0.007132161888710328,473.839,0.7739999890327454,-0.0037668847798626747
474.362069,,0.0014375011819635322,474.301,0.765999972820282,-0.02150941712460313
474.827586,,0.003136732509953711,474.764,0.7710000276565552,-0.010860916592490936
475.293103,,0.0036442655326507085,475.234,0.7910000085830688,0.03254409194078481
475.758621,,0.0008275492438977582,475.698,0.765999972820282,-0.022007002645860547
476.22413800000004,,0.002383980581717721,476.16,0.777999997138977,0.00413825436566912
476.689655,,0.003876289661290133,476.626,0.8650000095367432,0.19377079848618564
477.155172,,0.0038550219109530913,477.09,0.9259999990463257,0.3268497380914215
477.62069,,0.0039022603728409155,477.556,0.7699999809265137,-0.012750777702086394
478.086207,,0.004922989167875999,478.021,0.7889999747276306,0.028987700679119783
478.55172400000004,,0.006049331182076976,478.487,0.7739999890327454,-0.003285159738000534
479.01724099999996,,0.005515926570661535,478.954,0.7850000262260437,0.021137459029385214
479.482759,,0.002683916008178515,479.419,0.7549999952316284,-0.043728308724958295
479.948276,,0.0007886430790739674,479.88,0.777999997138977,0.006895401476810327
480.413793,,0.002107438548657703,480.349,0.777999997138977,0.0074158895241745295
480.87931000000003,,0.00010750831745345334,480.812,0.7549999952316284,-0.04218265355204734
481.344828,,0.0031894736587647033,481.275,0.7649999856948853,-0.01991211189590824
481.810345,,0.004383158208379307,481.746,0.765999972820282,-0.017290573304406566
482.275862,,0.0023678004819616977,482.208,0.7820000052452087,0.017956599724894187
482.74137900000005,,0.00042078225542454173,482.674,0.7620000243186951,-0.025293558356996374
483.206897,,0.0011152203080312167,483.136,0.777999997138977,0.009811464108102345
483.672414,,0.00012221955461582906,483.602,0.6449999809265137,-0.27978830966516743
484.13793100000004,,0.00031013243210274634,484.064,0.7350000143051147,-0.0836433421662408
484.603448,,0.0026191097418996846,484.529,0.7409999966621399,-0.07060026066571258
485.068966,,0.004430430354195679,484.994,0.7879999876022339,0.03167592127981476
485.534483,,0.0032655187566569253,485.46,0.777999997138977,0.009683006540007894
486.0,,0.0004626583840673194,485.924,0.777999997138977,0.009397250462917865
486.46551700000003,,0.0005816643962385561,486.39,0.7630000114440918,-0.02363931558249897
486.931034,,0.0009980647395074502,486.86,0.765999972820282,-0.01752111264919793
487.396552,,0.002647731184559343,487.323,0.7850000262260437,0.023407698705317295
487.862069,,0.002075200755915094,487.79,0.7879999876022339,0.02944483637447923
488.327586,,8.665960312114321e-05,488.253,0.7820000052452087,0.015856559945553433
488.79310300000003,,0.0009405762798882634,488.716,0.7820000052452087,0.015337805722843736
489.258621,,0.0001922223849346258,489.179,0.7850000262260437,0.021368213888932886
489.724138,,0.0011362661435718624,489.644,0.7609999775886536,-0.03139709527377434
490.189655,,0.0020146951755478917,490.116,0.8799999952316284,0.2274281938183615
490.655172,,0.002927001495852138,490.574,0.7879999876022339,0.026617224673252966
491.12069,,0.004802563544127921,491.045,0.777999997138977,0.004523923902914774
491.586207,,0.007492776698974566,491.511,0.5419999957084656,-0.5098733454234389
492.05172400000004,,0.009930433207979287,491.969,0.7820000052452087,0.012839608701459653
492.517241,,0.01138482134049093,492.434,0.7630000114440918,-0.028635258580358845
492.982759,,0.01186952891237292,492.902,0.7699999809265137,-0.013376428818556848
493.448276,,0.01143890842824568,493.367,0.7839999794960022,0.017222090149391286
493.913793,,0.00994216449785256,493.835,0.7860000133514404,0.021764017547626906
494.37931000000003,,0.007788078327278507,494.297,0.7889999747276306,0.028566664919581927
494.844828,,0.006134572841850792,494.761,0.777999997138977,0.004942733028127964
495.310345,,0.005635803140615751,495.231,0.7580000162124634,-0.03822547487356909
495.775862,,0.0054924523816956144,495.69,0.765999972820282,-0.020340881712237323
496.241379,,0.004347420022698523,496.155,0.7850000262260437,0.021546554156783613
496.70689699999997,,0.0018223901220915152,496.621,0.7599999904632568,-0.032403585660053094
497.172414,,0.0011495823202527413,497.086,0.7870000004768372,0.026943812862583277
497.637931,,0.0031767599511026237,497.553,0.765999972820282,-0.018291909356126256
498.103448,,0.003413134334927048,498.02,0.7620000243186951,-0.026514163966985936
498.568966,,0.0021075927060192814,498.479,0.7789999842643738,0.01097621557518792
499.03448299999997,,0.0004769078548645372,498.946,0.7739999890327454,0.00048437819920245503
499.5,,9.266855962684732e-05,499.412,0.777999997138977,0.009536390252182603
499.96551700000003,,0.0009417007815972227,499.879,0.7820000052452087,0.01851423564689972
500.431034,,0.002843317788040717,500.342,0.777999997138977,0.009980722471302942
500.89655200000004,,0.0042146739154603815,500.805,0.7710000276565552,-0.005176675614703001
501.362069,,0.004149303197596662,501.275,0.7599999904632568,-0.029140451276934234
501.827586,,0.0026896394831821308,501.739,0.7820000052452087,0.018699226111732498
502.293103,,0.00019947106397201885,502.201,0.777999997138977,0.00980488374716108
502.758621,,0.0030629536967777095,502.666,0.7820000052452087,0.018256148866282157
503.224138,,0.006062124969834783,503.129,0.777999997138977,0.009202207025484696
503.68965499999996,,0.006287680836524884,503.594,0.7620000243186951,-0.02606186464641274
504.15517200000005,,0.0016706731035499665,504.061,0.6579999923706055,-0.2531042652144181
504.62068999999997,,0.0061715096756106745,504.527,0.7570000290870667,-0.037926327193538195
505.08620699999994,,0.012071365005428698,504.993,0.7390000224113464,-0.07767927708963472
505.55172400000004,,0.01209993653559274,505.459,0.796999990940094,0.048134856404691624
506.017241,,0.007698568070018683,505.924,0.7730000019073486,-0.004692229358857616
506.48275899999993,,0.003961344214805324,506.389,0.7820000052452087,0.014400905859304312
506.948276,,0.004136034521326629,506.85,0.7820000052452087,0.013926678508148778
507.413793,,0.006880700226583477,507.32,0.7620000243186951,-0.030065645026342302
507.87931,,0.008816997082883754,507.783,0.7839999794960022,0.01751257900275534
508.344828,,0.008387076242019018,508.245,0.7630000114440918,-0.028512597964071885
508.810345,,0.006497989736126535,508.709,0.777999997138977,0.003980254712224976
509.27586199999996,,0.004467797658730977,509.179,0.7519999742507935,-0.05275921724805211
509.74137900000005,,0.0026933950258774208,509.644,0.7870000004768372,0.023494373604399533
510.20689699999997,,0.0011997197747993852,510.108,0.7820000052452087,0.012698211907000673
510.67241399999995,,0.0004274988434430035,510.574,0.7620000243186951,-0.030684065128816634
511.13793100000004,,0.0009146530840197426,511.038,0.7739999890327454,-0.004262349717619027
511.603448,,0.0023974397514028483,511.504,0.7860000133514404,0.022238815006834233
512.0689659999999,,0.003693144076917652,511.964,0.7590000033378601,-0.03615868480904246
512.534483,,0.0037897349402939637,512.43,0.7889999747276306,0.029682401890515964
513.0,,0.0029498892722683327,512.895,0.7749999761581421,-0.00029565069840172903
513.465517,,0.002390678186939013,513.361,0.7620000243186951,-0.028069714202239623
513.931034,,0.002846926176064879,513.824,0.777999997138977,0.007344948919529729
514.396552,,0.0038383496869153523,514.294,0.7580000162124634,-0.03568061516187095
514.862069,,0.004492651070148301,514.757,0.765999972820282,-0.017730141933580267
515.327586,,0.004612141922941405,515.22,0.8069999814033508,0.07207458079668974
515.793103,,0.0044943232370968315,515.686,0.7760000228881836,0.004961693283812595
516.258621,,0.004023171003953636,516.149,0.781000018119812,0.01621170430276729
516.724138,,0.0026148693283713394,516.615,0.7620000243186951,-0.024906065735049776
517.189655,,0.00016351872458031358,517.082,0.4790000021457672,-0.641282089840749
517.655172,,0.0025207053808761876,517.548,0.7710000276565552,-0.005040575068495314
518.1206900000001,,0.004594388705978316,518.012,0.7390000224113464,-0.07478439553373328
518.5862070000001,,0.006172043082201143,518.478,0.7820000052452087,0.01877384824432954
519.051724,,0.007917651192045516,518.946,0.7820000052452087,0.0185588290412354
519.517241,,0.009720919450369209,519.404,0.781000018119812,0.016081549344544966
519.982759,,0.01039424496307063,519.875,0.7820000052452087,0.01788729051516898
520.448276,,0.009007875683649734,520.338,0.7710000276565552,-0.006513474714143499
520.9137929999999,,0.006084759539998353,520.805,0.7649999856948853,-0.020070985112534297
521.37931,,0.002981729862611913,521.267,0.7799999713897705,0.01208808874802019
521.844828,,0.0004961744533989411,521.731,0.7599999904632568,-0.032024634509028385
522.310345,,0.00119497798787105,522.201,0.7820000052452087,0.015363097003367217
522.7758620000001,,0.0016733429418727274,522.659,0.7860000133514404,0.023549259975862033
523.241379,,0.0005777746036846705,523.13,0.7580000162124634,-0.03795129271687013
523.7068969999999,,0.0013291922800820336,523.596,0.7990000247955322,0.050919740133785835
524.172414,,0.0027099589069174627,524.061,0.7900000214576721,0.03091738408419265
524.637931,,0.003377621144791515,524.519,0.7910000085830688,0.032772653882839245
525.103448,,0.004169005896480916,524.987,0.7850000262260437,0.01945772088325881
525.568966,,0.004984823991276257,525.452,0.781000018119812,0.01058689010981505
526.034483,,0.004552176215578346,525.917,0.7400000095367432,-0.07880393912796217
526.5,,0.002733436805942553,526.383,0.7839999794960022,0.017081080107105004
526.9655170000001,,0.001558174122003705,526.846,0.7770000100135803,0.0019453436914067242
527.4310340000001,,0.0027373354736281567,527.315,0.7870000004768372,0.023933599993761184
527.8965519999999,,0.0050468859134250805,527.776,0.753000020980835,-0.04985852652954345
528.362069,,0.005660794110592566,528.245,0.8009999990463257,0.05506951817511532
528.827586,,0.00388781802099703,528.706,0.7820000052452087,0.014088967541774985
529.293103,,0.0020628849849503215,529.169,0.7609999775886536,-0.031201091326706478
529.7586210000001,,0.0021609811392128224,529.634,0.8009999990463257,0.056439878361448766
530.224138,,0.0028441592144789096,530.101,0.7620000243186951,-0.02801382062918588
530.689655,,0.001248323215946175,530.567,0.7990000247955322,0.05311279662320137
531.155172,,0.0028321839874212457,531.034,0.753000020980835,-0.04660124040168781
531.62069,,0.006097451103771155,531.501,0.7620000243186951,-0.026518284490681707
532.086207,,0.005414906072289538,531.961,0.777999997138977,0.008772051946153065
532.5517239999999,,0.0014284154940864325,532.427,0.7620000243186951,-0.025709638052782355
533.017241,,0.0020249173029357036,532.899,0.7879999876022339,0.031245631637488183
533.482759,,0.0017870853215596273,533.357,0.7860000133514404,0.02712439643919152
533.9482760000001,,0.0016788356352648822,533.82,0.7599999904632568,-0.02936571498071836
534.413793,,0.005137611516127094,534.29,0.781000018119812,0.01645480819488194
534.87931,,0.005937551576482004,534.753,0.7860000133514404,0.027329703190320218
535.344828,,0.004108454772599453,535.215,0.7789999842643738,0.011975082409885304
535.810345,,0.0014220598400475491,535.681,0.765999972820282,-0.01653387977609704
536.275862,,0.0006114520276535286,536.144,0.7820000052452087,0.01806132749155359
536.7413789999999,,0.0013176892994128018,536.61,0.7580000162124634,-0.03455800759067924
537.206897,,0.0003123135823912002,537.075,0.7609999775886536,-0.028412649914797507
537.672414,,0.0023593414412394526,537.54,0.7870000004768372,0.02779526132202637
538.137931,,0.0054574275041209255,538.005,0.7770000100135803,0.005539510324247554
538.6034480000001,,0.00696993162308012,538.471,0.7620000243186951,-0.027627607289242892
539.0689659999999,,0.005900894109693093,538.938,0.7609999775886536,-0.03029790679387002
539.5344829999999,,0.0031658644384342607,539.404,0.906000018119812,0.28512783734564634
540.0,,0.0004655908861664544,539.865,0.7630000114440918,-0.02686743066002406
540.465517,,0.001069235310401427,540.335,0.7820000052452087,0.014119435031734393
540.931034,,0.0010449808660006053,540.798,0.7649999856948853,-0.0232746300166961
541.396552,,0.00017606611071314439,541.26,0.777999997138977,0.0047515020956666685
541.862069,,0.0011303051565050102,541.724,0.7870000004768372,0.024132368148579216
542.327586,,0.000137432261149824,542.194,0.7739999890327454,-0.004341149374576363
542.7931030000001,,0.002635542999402572,542.659,0.7850000262260437,0.01955278574026849
543.258621,,0.00483164042038558,543.123,0.7870000004768372,0.02392025999414127
543.7241379999999,,0.004441232186940543,543.589,0.7649999856948853,-0.023919321324783423
544.189655,,0.002187576600209205,544.053,0.7839999794960022,0.017642538341902467
544.655172,,0.0006922341390298915,544.519,0.7599999904632568,-0.03440633905217123
545.12069,,0.0014268995732725847,544.983,0.7620000243186951,-0.029747210881445493
545.5862070000001,,0.0029322631700621055,545.449,0.7839999794960022,0.018538497431080356
546.051724,,0.0021934464362164847,545.913,0.781000018119812,0.012401883735315603
546.517241,,0.002102700389196538,546.379,0.8730000257492065,0.21327056494707514
546.982759,,0.007592748100721433,546.842,0.7879999876022339,0.02854067588426171
547.448276,,0.009908517006206867,547.305,0.7820000052452087,0.015931353943227766
547.9137929999999,,0.006882103026766976,547.775,0.7839999794960022,0.020742609738043673
548.3793099999999,,0.0009829611660093006,548.238,0.765999972820282,-0.018041536118704814
548.844828,,0.0029912693622058187,548.706,0.7639999985694885,-0.022003147251743307
549.310345,,0.002617742990180606,549.168,0.781000018119812,0.015381941951788627
549.775862,,0.00034365678847463933,549.634,0.7580000162124634,-0.0344365093575749
550.241379,,0.0026618760081845647,550.094,0.7820000052452087,0.01807565993425385
550.706897,,0.0030125832545399934,550.56,0.7630000114440918,-0.023166016311450165
551.172414,,0.0022887099450460712,551.028,0.7599999904632568,-0.029625635661817012
551.637931,,0.0017284019928395075,551.493,0.7649999856948853,-0.01873432431738787
552.103448,,0.00171265413306179,551.954,0.7630000114440918,-0.02317096303526679
552.568966,,0.001889415438036661,552.419,0.7820000052452087,0.018069935491033685
553.034483,,0.0016861084977093618,552.894,0.5669999718666077,-0.4505652369757024
553.5,,0.000900810025019629,553.353,0.7559999823570251,-0.039094749053466375
553.965517,,0.00016735846464197344,553.816,0.7789999842643738,0.010664422592190016
554.4310340000001,,0.0004891567086825657,554.286,0.765999972820282,-0.01804775649910182
554.896552,,0.0019852293643918134,554.746,0.746999979019165,-0.05985964056228799
555.3620689999999,,0.0034305760057467723,555.216,0.7850000262260437,0.02249669148105302
555.827586,,0.0033585224289039766,555.674,0.7879999876022339,0.02859985955726978
556.293103,,0.0014434673297516294,556.144,0.7820000052452087,0.01510907643023139
556.758621,,0.0013939652673323085,556.61,0.7820000052452087,0.014716420744905045
557.224138,,0.004040275066448026,557.069,0.765999972820282,-0.020497182199969575
557.689655,,0.006005940844725179,557.534,0.7139999866485596,-0.13409579851974338
558.155172,,0.00726374614894474,558.001,0.7609999775886536,-0.0319545191889604
558.6206900000001,,0.007818566981828706,558.467,0.777999997138977,0.004889186317938218
559.0862070000001,,0.007789422760672703,558.931,0.796999990940094,0.046158945265142554
559.5517239999999,,0.007608609086116745,559.396,0.7839999794960022,0.01778440742812672
560.017241,,0.007669011825982694,559.864,0.7829999923706055,0.01562663269045747
560.482759,,0.00778575793347773,560.326,0.7609999775886536,-0.03221232386544416
560.948276,,0.007351636614606048,560.794,0.7680000066757202,-0.016804437149464925
561.413793,,0.006149774072369666,561.257,0.7820000052452087,0.01391410385878801
561.87931,,0.004738709573746102,561.72,0.7620000243186951,-0.029388551372575532
562.344828,,0.003778439436262661,562.19,0.7820000052452087,0.014498257175811529
562.8103450000001,,0.0032173982599910268,562.655,0.7570000290870667,-0.03962092425917398
563.275862,,0.0025327463714063274,563.114,0.796999990940094,0.04789406348707837
563.7413789999999,,0.0015279140845890276,563.58,0.7730000019073486,-0.004013439200929879
564.206897,,0.0003980445934471564,564.046,0.7599999904632568,-0.03195719149656131
564.672414,,0.0007092234871334255,564.512,0.7860000133514404,0.025052976440954895
565.137931,,0.0016426209729943355,564.979,0.7910000085830688,0.036287717768627714
565.603448,,0.0020733983590363048,565.445,0.7789999842643738,0.010451909162142399
566.068966,,0.001934985885820985,565.909,0.7820000052452087,0.01725315202241426
566.534483,,0.001796012753199325,566.375,0.7570000290870667,-0.0369987089817071
567.0,,0.002316347251860342,566.835,0.7820000052452087,0.0176245779848972
567.465517,,0.003362810993360302,567.304,0.7739999890327454,0.000291577775964039
567.931034,,0.003930762348204334,567.765,0.7609999775886536,-0.027997637990610922
568.396552,,0.0031822598060047545,568.234,0.7860000133514404,0.026438744152440106
568.862069,,0.0016317026273792977,568.698,0.7990000247955322,0.05467098862506384
569.327586,,0.0008740898419831984,569.16,0.7820000052452087,0.017487808176176463
569.793103,,0.0017450556747833949,569.626,0.7609999775886536,-0.028461226534060375
570.2586210000001,,0.003295931010028883,570.09,0.7919999957084656,0.03883475752391245
570.724138,,0.004291510104328156,570.555,0.7649999856948853,-0.020267345434296636
571.189655,,0.005125476669621563,571.02,0.7870000004768372,0.027357238471170185
571.655172,,0.007061728511755896,571.486,0.7760000228881836,0.003069251975808346
572.12069,,0.0097320602234612,571.95,0.777999997138977,0.007096751833100431
572.586207,,0.010791804104933835,572.416,0.7620000243186951,-0.02808827899603617
573.051724,,0.008640243461560594,572.879,0.7789999842643738,0.008634829993613306
573.517241,,0.004494317114355555,573.348,0.7689999938011169,-0.013442957340898965
573.982759,,0.0009888434576775919,573.809,0.7609999775886536,-0.031132514162109926
574.4482760000001,,0.0005524336530129746,574.279,0.7820000052452087,0.014397324494017042
574.913793,,0.0006901402624915398,574.742,0.7049999833106995,-0.1535366275907814
575.37931,,0.0004923619945064741,575.205,0.7829999923706055,0.01626787760586594
575.844828,,0.0006323787201420745,575.67,0.7570000290870667,-0.040454988874935295
576.310345,,0.0013854423078245822,576.14,0.7860000133514404,0.022702554331214386
576.775862,,0.0024306506127929743,576.606,0.765999972820282,-0.020838762437910188
577.241379,,0.0028315314654655385,577.064,0.7699999809265137,-0.012039272803092648
577.706897,,0.0022148046279810824,577.53,0.777999997138977,0.005524479609017814
578.172414,,0.0018855886222267958,577.994,0.7879999876022339,0.027490780271332133
578.6379310000001,,0.0034474135582554725,578.46,0.7200000286102295,-0.12043915664921485
579.1034480000001,,0.00579574750216439,578.927,0.7710000276565552,-0.009080403315444678
579.5689659999999,,0.005043168802819933,579.392,0.7599999904632568,-0.032776174935436816
580.034483,,0.0008415810024013339,579.861,0.7720000147819519,-0.006348985583640585
580.5,,0.008121501796136184,580.323,0.7870000004768372,0.026619506749067247
580.965517,,0.010227565726837858,580.784,0.7839999794960022,0.020369438935453833
581.431034,,0.00478831260755125,581.253,0.7599999904632568,-0.03164416964814895
581.896552,,0.003941947566651638,581.716,0.7850000262260437,0.023075268269930244
582.362069,,0.009812069415403949,582.179,0.7369999885559082,-0.08127567460834012
582.827586,,0.010259377119738558,582.644,0.7860000133514404,0.025666677477154926
583.2931030000001,,0.006870114865839829,583.109,0.7739999890327454,-0.0003291370442741028
583.758621,,0.002564355410907727,583.575,0.7839999794960022,0.021561553065319178
584.2241379999999,,0.0003923089453113297,584.039,0.777999997138977,0.008547540429775572
584.689655,,0.0007779510194222245,584.505,0.7620000243186951,-0.026300788618800416
585.155172,,0.0012561127537011054,584.971,0.7829999923706055,0.019412979726651677
585.6206900000001,,0.00400161375221181,585.437,0.7639999985694885,-0.022064948459411114
586.0862070000001,,0.005401955196086592,585.902,0.7739999890327454,-0.00040476619752454444
586.551724,,0.00492919713639513,586.368,0.7820000052452087,0.016860205200334245
587.017241,,0.0037496177949150277,586.831,0.7710000276565552,-0.007301168294755675
587.482759,,0.002785385070966958,587.301,0.7730000019073486,-0.0031658782458918247
587.948276,,0.0013440715639363068,587.761,0.7829999923706055,0.01838030451376501
588.4137929999999,,0.0016452215616165168,588.23,0.765999972820282,-0.018907564821124066
588.87931,,0.00556302197300035,588.689,0.7630000114440918,-0.02569727098765436
589.344828,,0.008349563814228314,589.154,0.7789999842643738,0.008911971085996688
589.810345,,0.008864044038400432,589.62,0.7620000243186951,-0.028361397705093022
590.2758620000001,,0.00797396799660427,590.087,0.7820000052452087,0.014995016428231624
590.741379,,0.006844379310964198,590.553,0.7620000243186951,-0.028768047676558446
591.2068969999999,,0.005067361725601777,591.02,0.7730000019073486,-0.0049612919771826166
591.672414,,0.0015530816503272116,591.486,0.7799999713897705,0.010167274658024255
592.137931,,0.003025680705230063,591.95,0.7639999985694885,-0.02477310329700121
592.603448,,0.005952643727905873,592.415,0.7839999794960022,0.01875952726141229
593.068966,,0.0051717474065994485,592.876,0.7730000019073486,-0.005203270061605196
593.534483,,0.0016055669176851636,593.345,0.7630000114440918,-0.02694578698223083
594.0,,0.0018813345836952314,593.809,0.7789999842643738,0.007995852581743583
594.4655170000001,,0.003564645024806883,594.271,0.75,-0.05506562568073397
594.9310340000001,,0.00421663692800285,594.739,0.7730000019073486,-0.004806015946124388
595.3965519999999,,0.005318937019793394,595.201,0.7260000109672546,-0.1070262293316609
595.862069,,0.006751510040507489,595.666,0.7799999713897705,0.01081643739064407
596.327586,,0.006982301500060561,596.13,0.7609999775886536,-0.030368345652166215
596.793103,,0.0051719999754930865,596.595,0.7929999828338623,0.03956605275048708
597.2586210000001,,0.0022569443232686166,597.063,0.7739999890327454,-0.0016089273323694835
597.724138,,8.662337380579264e-05,597.529,0.7689999938011169,-0.012288097523832385
598.189655,,0.000994539263709933,597.994,0.7580000162124634,-0.0360517004811309
598.655172,,0.000838912444342147,598.459,0.7839999794960022,0.020775935542440928
599.12069,,0.0005803786544865476,598.924,0.7860000133514404,0.025292908973690853
599.586207,,0.001037511264917058,599.39,0.7839999794960022,0.02106782905378806
600.0517239999999,,0.002544878075218462,599.853,0.7850000262260437,0.023347834285094776
600.517241,,0.00467736916383921,600.316,0.7620000243186951,-0.02669403588732555
600.982759,,0.006002276736324028,600.779,0.75,-0.05280769684408582
601.448276,,0.004717158361824176,601.249,0.7739999890327454,-0.0005277118948295335
601.913793,,0.0004680293158665257,601.709,0.7599999904632568,-0.031072945051343576
602.37931,,0.004428943048418352,602.179,0.7820000052452087,0.0167789059139581
602.844828,,0.0063963388630565625,602.644,0.7649999856948853,-0.020367739735871915
603.310345,,0.003638764880830015,603.108,0.7739999890327454,-0.0008967100562012667
603.775862,,0.0024550812944615138,603.574,0.7689999938011169,-0.01194939676138571
604.2413789999999,,0.008747488844848357,604.038,0.7739999890327454,-0.001232826907388217
604.706897,,0.012520276238431749,604.504,0.7879999876022339,0.029080532502564618
605.172414,,0.012497743503601114,604.969,0.777999997138977,0.007101750239966846
605.637931,,0.009068665229067893,605.435,0.765999972820282,-0.019233247782060515
606.1034480000001,,0.004193377305848322,605.895,0.7739999890327454,-0.0019885684081644315
606.5689659999999,,0.0004944510536148719,606.361,0.7620000243186951,-0.028304741938258878
607.0344829999999,,0.00024473160094729,606.824,0.7850000262260437,0.02164913080971743
607.5,,0.0020685790814584278,607.293,0.8119999766349792,0.08034057283327078
607.965517,,0.006050399639520501,607.757,0.7620000243186951,-0.028696451167652876
608.431034,,0.009526099878124429,608.219,0.7850000262260437,0.021336964841324673
608.896552,,0.010458678817523341,608.685,0.7630000114440918,-0.026638421365548105
609.362069,,0.008104064147645437,609.149,0.7820000052452087,0.014742047651306996
609.827586,,0.00368152228525862,609.615,0.7620000243186951,-0.028813788556141976
610.293103,,0.00021416669119261777,610.082,0.7549999952316284,-0.04401799440860461
610.758621,,0.0013070978578334112,610.548,0.7820000052452087,0.014879107400619504
611.2241379999999,,0.0005143788808715409,611.013,0.7820000052452087,0.014977880801511934
611.689655,,0.00274222561100005,611.479,0.7480000257492065,-0.058975821223298495
612.155172,,0.002393915711243662,611.939,0.777999997138977,0.006520623659319949
612.62069,,0.0007861684571900671,612.404,0.765999972820282,-0.01947378945053847
613.0862070000001,,0.004005253644363505,612.875,0.7599999904632568,-0.03238866347091086
613.551724,,0.004956642031803787,613.338,0.7620000243186951,-0.027872143148153714
614.017241,,0.004691200235846968,613.805,0.7620000243186951,-0.027715790188674736
614.4827590000001,,0.005791619977706788,614.267,0.7839999794960022,0.020363686079740033
614.948276,,0.008398199459482574,614.735,0.7820000052452087,0.016145063459882637
615.4137929999999,,0.009729487202098673,615.198,0.7599999904632568,-0.031661365741699546
615.8793099999999,,0.0077511477958115615,615.664,0.777999997138977,0.007659500039177349
616.344828,,0.003824473757215551,616.127,0.8009999990463257,0.05785275453695027
616.810345,,0.0008168609009334861,616.592,0.7680000066757202,-0.013980739051722776
617.275862,,0.0002861546406657296,617.058,0.7839999794960022,0.020915160986365117
617.741379,,0.0004874190314902735,617.523,0.7570000290870667,-0.037896232498211516
618.206897,,0.0002770782749218293,617.99,0.7739999890327454,-0.0008730718916356078
618.672414,,0.0010563154180789664,618.456,0.7599999904632568,-0.03141297495815116
619.137931,,0.003643431637809996,618.92,0.7639999985694885,-0.022760649139235745
619.603448,,0.006334689292194261,619.385,0.7649999856948853,-0.02066548813671509
620.068966,,0.008148033402879298,619.846,0.7620000243186951,-0.027302908599825787
620.534483,,0.009047399109931091,620.316,0.7990000247955322,0.05319159086821123
621.0,,0.00896697748763323,620.779,0.800000011920929,0.05524595533342054
621.465517,,0.007370940753195141,621.242,0.7710000276565552,-0.008063606212918469
621.9310340000001,,0.004395798966671224,621.705,0.7829999923706055,0.017950028287027485
622.396552,,0.0014923196336563273,622.175,0.753000020980835,-0.047537463529032695
622.862069,,7.939675126182464e-05,622.64,0.7870000004768372,0.02641404390346337
623.327586,,9.554676654103037e-05,623.105,0.7850000262260437,0.021944069160512142
623.793103,,0.000555516697485711,623.57,0.7990000247955322,0.052346201751274496
624.258621,,0.002181674719096068,624.035,0.7910000085830688,0.03483476900967296
624.724138,,0.004356785860167708,624.501,0.7699999809265137,-0.010980793804721849
625.189655,,0.0059433765460848815,624.961,0.7900000214576721,0.03254755805838623
625.655172,,0.00626784508610247,625.427,0.7670000195503235,-0.017586286769795137
626.1206900000001,,0.004962464830498346,625.898,0.777999997138977,0.006373541130841228
626.5862070000001,,0.001823077949257596,626.356,0.7860000133514404,0.023816792998785023
627.0517239999999,,0.002420299906988243,626.82,0.765999972820282,-0.019723895104603532
627.5172409999999,,0.005684333914137188,627.29,0.7820000052452087,0.01518343075067229
627.982759,,0.0058841485219086,627.753,0.7770000100135803,0.004353652778122833
628.448276,,0.0030964003229601023,628.216,0.7509999871253967,-0.05221599530062461
628.913793,,6.97217328231558e-06,628.681,0.8040000200271606,0.06333686313448963
629.37931,,0.0004439550134097565,629.144,0.7820000052452087,0.015498282551378157
629.844828,,0.0021398146561244654,629.61,0.7649999856948853,-0.02144280975899457
630.3103450000001,,0.004957066502004002,630.075,0.7829999923706055,0.017869433182310098
630.7758620000001,,0.004780724272468277,630.541,0.7820000052452087,0.01578535844688643
631.2413789999999,,0.0012996310465726501,631.006,0.7950000166893005,0.044198197602470325
631.706897,,0.0025100974097985447,631.471,0.7990000247955322,0.052997050579218254
632.172414,,0.00372971632894836,631.939,0.7630000114440918,-0.025358783679707397
632.637931,,0.0027899095882631666,632.405,0.7839999794960022,0.020456869988607043
633.103448,,0.0025296509239820515,632.868,0.8019999861717224,0.059724124162586656
633.568966,,0.004218386064098667,633.33,0.7789999842643738,0.00965376373054913
634.034483,,0.006010608664299426,633.798,0.7789999842643738,0.009678174334286886
634.5,,0.005841483124411901,634.26,0.8050000071525574,0.06633318405909441
634.9655170000001,,0.0042935837786283616,634.728,0.765999972820282,-0.01863800886070473
635.431034,,0.0033423148349348156,635.19,0.7680000066757202,-0.01429863815001068
635.8965519999999,,0.003422663360459845,635.656,0.7789999842643738,0.009634826563921577
636.362069,,0.0034704995215046664,636.122,0.7620000243186951,-0.027445822724375454
636.827586,,0.0033350969886314034,636.588,0.7789999842643738,0.009537003300236753
637.293103,,0.004238188847801704,637.053,0.7820000052452087,0.016010855172934175
637.7586210000001,,0.0064984548907692586,637.518,0.7590000033378601,-0.03416602935821943
638.224138,,0.008215807489401929,637.983,0.7609999775886536,-0.0298809934458399
638.689655,,0.007115666864021755,638.449,0.7829999923706055,0.01797529478385424
639.155172,,0.0032602469891001673,638.913,0.7749999761581421,0.0004732961141817689
639.62069,,0.0006653947365123066,639.378,0.7860000133514404,0.024369563100301212
640.086207,,0.0017853459665041892,639.842,0.7839999794960022,0.019949292576500965
640.551724,,0.0003476142935184766,640.304,0.7820000052452087,0.015537030410030636
641.017241,,0.003420613537035631,640.772,0.6949999928474426,-0.17405297172252623
641.482759,,0.004504276046354908,641.235,0.765999972820282,-0.019409727478424097
641.9482760000001,,0.0026135554945326523,641.705,0.765999972820282,-0.019441888430790838
642.413793,,0.000662362100638589,642.168,0.7860000133514404,0.024110049026838942
642.87931,,0.002937029666783183,642.633,0.8199999928474426,0.09817565757575263
643.344828,,0.003331101620988214,643.097,0.7820000052452087,0.015392093596144464
643.810345,,0.002919919649074831,643.563,0.7620000243186951,-0.02816406656283931
644.275862,,0.0030216259157150012,644.031,0.7649999856948853,-0.021602147734347186
644.7413789999999,,0.003506288992559977,644.489,0.8510000109672546,0.16579712168451866
645.206897,,0.0031963356307781075,644.957,0.7609999775886536,-0.030236667933084882
645.672414,,0.0017631576377029907,645.422,0.7820000052452087,0.015565820879894351
646.1379310000001,,0.0005789616947497652,645.894,0.7730000019073486,-0.0039882722992918285
646.6034480000001,,0.0011671223278090037,646.353,0.7689999938011169,-0.01264825828516978
647.0689659999999,,0.00296950745267878,646.816,0.7900000214576721,0.03315699785029909
647.534483,,0.003558905886111926,647.279,0.7620000243186951,-0.027794378283745924
648.0,,0.0017528774908989265,647.746,0.7599999904632568,-0.03210611372406027
648.465517,,0.0002391197454461465,648.216,0.7839999794960022,0.020220348352196153
648.931034,,0.0008086283473347667,648.674,0.7820000052452087,0.015895007817075257
649.396552,,0.004793031124443928,649.144,0.6880000233650208,-0.1888752376253176
649.862069,,0.007991299933862906,649.609,0.7850000262260437,0.02246523531581799
650.327586,,0.007539259806807208,650.071,0.7789999842643738,0.009395401170069593
650.7931030000001,,0.0046386381470905624,650.536,0.7680000066757202,-0.014574940351280131
651.258621,,0.0024676596488675535,651.001,0.7990000247955322,0.052951461954448324
651.7241379999999,,0.0022920966725493487,651.467,0.7820000052452087,0.01589779268050308
652.189655,,0.002994116827881687,651.931,0.7850000262260437,0.022413556768464873
652.655172,,0.0035809822451219253,652.397,0.7789999842643738,0.00931864475880761
653.12069,,0.004429812479524327,652.864,0.7630000114440918,-0.02556447461727327
653.5862070000001,,0.005889358546750214,653.327,0.847000002861023,0.15741754610805686
654.051724,,0.006905746405249819,653.79,0.7950000166893005,0.04410667706305862
654.517241,,0.005878018964119935,654.26,0.7870000004768372,0.02666007588608278
654.982759,,0.002630183450887956,654.72,0.7239999771118164,-0.11061026629534723
655.448276,,0.0011198239298045817,655.19,0.6859999895095825,-0.19341501284995924
655.9137929999999,,0.0035208640053695757,655.656,0.8029999732971191,0.06147022999825455
656.37931,,0.004408434513662964,656.114,0.7879999876022339,0.02877721710969751
656.844828,,0.004876595960651038,656.58,0.7739999890327454,-0.0017320410646269526
657.310345,,0.005415838843774101,657.046,0.7639999985694885,-0.023522426350339735
657.7758620000001,,0.0053432844787463735,657.511,0.7829999923706055,0.017871852046535536
658.241379,,0.004006130252795252,657.976,0.781000018119812,0.013518618447652689
658.7068969999999,,0.0016912540145944007,658.442,0.7649999856948853,-0.021332304799978948
659.172414,,0.0007164383464978989,658.909,0.6549999713897705,-0.2609760586429697
659.637931,,0.0022895172451087107,659.374,0.777999997138977,0.007002938389562453
660.103448,,0.0023236601075789084,659.835,0.7710000276565552,-0.008243133492534024
660.568966,,0.0007609793587199803,660.304,0.7820000052452087,0.015727512294007564
661.034483,,0.001606353643430431,660.768,0.7689999938011169,-0.012588681218917031
661.5,,0.0039062569704779795,661.231,0.7860000133514404,0.024454927655650684
661.965517,,0.006110504227484758,661.701,0.7820000052452087,0.015746908694366624
662.4310340000001,,0.008532152274135982,662.164,0.7599999904632568,-0.03217749986563946
662.8965519999999,,0.01041465457611915,662.629,0.7739999890327454,-0.0016723066785078642
663.362069,,0.01006135390891137,663.094,0.7699999809265137,-0.010384955996543915
663.827586,,0.006997172079180018,663.559,0.7820000052452087,0.015758783238928948
664.293103,,0.0031730951420517453,664.023,0.753000020980835,-0.0474245073133228
