Trial: ,21
Threshold: ,0.0
Maximum EMG: ,0.037712428086514475
Success: ,True

EMG Time,Raw EMG,Filtered EMG,Force Time,Raw Force (V),Filtered Force (N)
0.0,samples,1.783206375267971e-08,0.466,0.7570000290870667,-0.01055364416192454
0.46551699999999996,time,1.2922436507857245e-08,0.932,0.6520000100135803,-0.23976803769871802
0.9310339999999999,value,7.754716336093579e-09,1.398,0.75,-0.026776063798139925
1.396552,,2.336175546863206e-09,1.864,0.75,-0.027333819333591334
1.862069,,3.324705505370265e-09,2.328,0.753000020980835,-0.02137873927419712
2.327586,,9.218216474176303e-09,2.794,0.7710000276565552,0.017251244895163616
2.793103,,1.5333398510263633e-08,3.257,0.753000020980835,-0.02253643431207897
3.258621,,2.165802940104286e-08,3.72,0.7739999890327454,0.022674753053766462
3.724138,,2.8178612571265297e-08,4.191,0.7680000066757202,0.009111363152512212
4.189654999999999,,3.4880370150692254e-08,4.654,0.7480000257492065,-0.03488901558173943
4.655172,,4.174724030914808e-08,5.124,0.7879999876022339,0.051906957495574675
5.12069,,4.876187905275334e-08,5.579,0.753000020980835,-0.024606424058891775
5.586207,,5.59056666676037e-08,6.045,0.8360000252723694,0.15605937706894227
6.051723999999999,,6.315871898863985e-08,6.51,0.7730000019073486,0.018747635731226675
6.517241,,7.049990366193238e-08,6.975,0.7739999890327454,0.020976075225421442
6.982759,,7.790686155807332e-08,7.443,0.7549999952316284,-0.020264575536397045
7.448276,,8.53560334828169e-08,7.909,0.7559999823570251,-0.017833587447907952
7.913793000000001,,9.282269231854322e-08,8.369,0.7739999890327454,0.021725656375910323
8.379309999999998,,1.0028098071653068e-07,8.834,0.7300000190734863,-0.07371062262484626
8.844828000000001,,1.0770395444542067e-07,9.302,0.7820000052452087,0.04007079837277027
9.310345,,1.1506363148565002e-07,9.765,0.7519999742507935,-0.024743999352652597
9.775862,,1.2233104694302377e-07,10.235,0.753000020980835,-0.02198422381104352
10.241379,,1.294763138370207e-07,10.698,0.7739999890327454,0.024366704072475303
10.706897,,1.3646868980088634e-07,11.161,0.7519999742507935,-0.022963932229406545
11.172414,,1.4327664971109707e-07,11.624,0.7699999809265137,0.016833189616103014
11.637931,,1.4986796424340604e-07,12.089,0.4650000035762787,-0.6471150118362843
12.103447999999998,,1.5620978433143704e-07,12.56,0.7699999809265137,0.017849143721484103
12.568966000000001,,1.6226873148171678e-07,13.026,0.7760000228881836,0.03132519577722004
13.034483,,1.6801099387617155e-07,13.49,0.7490000128746033,-0.02717303798534879
13.5,,1.7340242816950715e-07,13.949,0.7549999952316284,-0.013865091223979848
13.965517,,1.784086668645956e-07,14.414,0.7990000247955322,0.0821359164294097
14.431034,,1.8299523112406332e-07,14.879,0.7710000276565552,0.021175458809872885
14.896552,,1.8712764885077567e-07,15.35,0.7710000276565552,0.02111700366430137
15.362069,,1.9077157784390727e-07,15.809,0.7739999890327454,0.027495440212697984
15.827586000000002,,1.9389293381085003e-07,16.279,0.765999972820282,0.009814368892418525
16.293103,,1.9645802298841143e-07,16.742,0.902999997138977,0.3079528145783371
16.758621,,1.9843367909968052e-07,17.21,0.7549999952316284,-0.014896507319776132
17.224138,,1.9978740434566872e-07,17.672,0.7480000257492065,-0.030620135967385494
17.689655,,2.0048751410345726e-07,18.136,0.7580000162124634,-0.009359848240397902
18.155172,,2.0050328497519515e-07,18.605,0.765999972820282,0.007505790997440164
18.62069,,1.9980510580498805e-07,19.064,0.7699999809265137,0.015636768792388234
19.086207,,1.9836463125360185e-07,19.535,0.7720000147819519,0.01940785976885823
19.551724,,1.9615493749407745e-07,20.001,0.753000020980835,-0.02255826570913156
20.017241000000002,,1.931506795649255e-07,20.466,0.7519999742507935,-0.02527807242515203
20.482758999999998,,1.8932824989165162e-07,20.924,0.7519999742507935,-0.025772638988446853
20.948276,,1.8466593746206902e-07,21.395,0.753000020980835,-0.024027115589973475
21.413793000000002,,1.791440871163038e-07,21.86,0.7739999890327454,0.021366110523433866
21.87931,,1.7274525838870616e-07,22.325,0.7739999890327454,0.021094433580419427
22.344828,,1.654543833161737e-07,22.784,0.7730000019073486,0.01873960391811518
22.810344999999998,,1.5725892260578936e-07,23.254,0.7739999890327454,0.020843080291072038
23.275862,,1.4814901953430656e-07,23.717,0.7409999966621399,-0.05102438954896007
23.741379,,1.3811765093299853e-07,24.18,0.7799999713897705,0.03407297773852387
24.206897,,1.271607745938577e-07,24.65,0.7480000257492065,-0.03541462685151299
24.672414,,1.1527747241720813e-07,25.121,0.7540000081062317,-0.022021522781492442
25.137931,,1.0247008860660831e-07,25.576,0.7649999856948853,0.0023476944732547488
25.603448,,8.874436220459609e-08,26.041,0.7720000147819519,0.018074328887221786
26.068966,,7.410955325248774e-08,26.505,0.753000020980835,-0.022785766926826694
26.534483,,5.857856184921238e-08,26.971,0.7730000019073486,0.021363789392619292
27.0,,4.2168039378160275e-08,27.436,0.765999972820282,0.0067155075475026724
27.465517,,2.4898491167366716e-08,27.902,0.75,-0.02753275037566161
27.931034,,6.7943698471578785e-09,28.365,0.7739999890327454,0.025354248395613465
28.396552,,1.211584132923993e-08,28.831,0.7409999966621399,-0.04597022156054177
28.862069,,3.179955593257326e-08,29.294,0.7710000276565552,0.019914452549120554
29.327586,,5.2220023295531395e-08,29.764,0.7950000166893005,0.07266649521713056
29.793103000000002,,7.333627965572262e-08,30.224,0.7480000257492065,-0.029339656281047666
30.258620999999998,,9.510311220489732e-08,30.694,0.7710000276565552,0.021072631692481913
30.724138,,1.1747103672994305e-07,31.158,0.7910000085830688,0.06485283783245302
31.189655000000002,,1.4038628951233933e-07,31.62,0.7710000276565552,0.02138521448734811
31.655172000000004,,1.6379083413073257e-07,32.086,0.753000020980835,-0.017831515564363205
32.12069,,1.8762238378601513e-07,32.549,0.7710000276565552,0.021275530791792348
32.586207,,2.1181443973971774e-07,33.015,0.753000020980835,-0.018153808294428683
33.051724,,2.3629634642460938e-07,33.48,0.7559999823570251,-0.011931055471609175
33.517241000000006,,2.609933637511122e-07,33.945,0.7730000019073486,0.024702337833674353
33.982759,,2.858267570944637e-07,34.409,0.753000020980835,-0.019352984778376284
34.448276,,3.107139054054842e-07,34.875,0.7699999809265137,0.017136759430736358
34.913793,,3.3556842784233757e-07,35.339,0.7739999890327454,0.02525567361179772
35.37931,,3.6030032927182356e-07,35.805,0.7710000276565552,0.01809355110986678
35.844828,,3.8481616493653705e-07,36.273,0.7630000114440918,2.583555489430291e-05
36.310345,,4.0901922452871774e-07,36.735,0.7580000162124634,-0.01149958718363016
36.775862,,4.328097358528441e-07,37.205,0.7490000128746033,-0.03171493270536086
37.241378999999995,,4.5608508819707103e-07,37.668,0.9160000085830688,0.3315576462519889
37.706897000000005,,4.787400754685513e-07,38.132,0.7450000047683716,-0.04148772546303148
38.172414,,5.006671590796156e-07,38.594,0.7559999823570251,-0.01794159721063944
38.637931,,5.217567505008287e-07,39.06,0.7649999856948853,0.0013347293999492187
39.103448,,5.418975133232129e-07,39.525,0.7450000047683716,-0.04247195484189352
39.568965999999996,,5.609766845955867e-07,39.991,0.8820000290870667,0.2558764163767522
40.034483,,5.788804151241589e-07,40.458,0.7480000257492065,-0.03607568195647838
40.5,,5.954941283404201e-07,40.924,0.7699999809265137,0.011953649356648475
40.965517,,6.107028972601796e-07,41.384,0.7509999871253967,-0.02923393754789427
41.431034,,6.24391838971506e-07,41.85,0.777999997138977,0.02989836294128827
41.896552,,6.364465260025766e-07,42.314,0.7739999890327454,0.021586294046985467
42.362069000000005,,6.46753413832244e-07,42.78,0.753000020980835,-0.023680563147236773
42.827586000000004,,6.552002837167565e-07,43.25,0.765999972820282,0.0051939602618747095
43.293103,,6.616766999157846e-07,43.712,0.8050000071525574,0.09076575611502759
43.758621,,6.660744803099825e-07,44.18,0.7480000257492065,-0.03277765854055743
44.224138,,6.682881793110647e-07,44.643,0.9430000185966492,0.39271704058965545
44.689655,,6.682155818740988e-07,45.109,0.7480000257492065,-0.03145983735240756
45.155172,,6.657582073307402e-07,45.572,0.7820000052452087,0.043252658818208535
45.620689999999996,,6.60821821671793e-07,46.038,0.7720000147819519,0.02206151078856476
46.086206999999995,,6.533169568181327e-07,46.503,0.7710000276565552,0.020417192252675218
46.551724,,6.431594353310196e-07,46.968,0.7509999871253967,-0.022699551456925114
47.017241,,6.302708989265533e-07,47.436,0.7519999742507935,-0.020157374813632407
47.482759,,6.145793390748304e-07,47.894,0.7490000128746033,-0.026434124042380967
47.948276,,5.960196278826844e-07,48.359,0.7419999837875366,-0.04153840580990046
48.413793,,5.745340473800864e-07,48.824,0.7580000162124634,-0.006651130537739356
48.879310000000004,,5.500728152547881e-07,49.295,0.753000020980835,-0.017633816470454384
49.344828,,5.225946050079962e-07,49.757,0.7720000147819519,0.023555715799007518
49.810345,,4.920670584361992e-07,50.224,0.7639999985694885,0.005812780934590098
50.275862,,4.5846728828115063e-07,50.687,0.7739999890327454,0.027186126126341963
50.741379,,4.2178236883185213e-07,51.15,0.7630000114440918,0.0027207657553580313
51.206897,,3.8200981220961077e-07,51.62,0.7580000162124634,-0.008745290797693492
51.672414,,3.391580280202864e-07,52.086,0.7739999890327454,0.02548469587608462
52.137931,,2.932467640171055e-07,52.549,0.7540000081062317,-0.01875313965340111
52.603448,,2.443075253833244e-07,53.015,0.7260000109672546,-0.08043774086859068
53.068966,,1.923839702169789e-07,53.48,0.7870000004768372,0.05178018119416504
53.534483,,1.3753227878035853e-07,53.945,0.7720000147819519,0.01844564453985686
54.0,,7.982149406508748e-08,54.41,0.7620000243186951,-0.003950562239278959
54.465517,,1.9333831220157695e-08,54.875,0.75,-0.030641389545932363
54.931034,,4.383504660468587e-08,55.34,0.7490000128746033,-0.03328820953364043
55.396552,,1.0957578843381258e-07,55.806,0.7739999890327454,0.020803129145272027
55.862069,,1.777651540691574e-07,56.269,0.7509999871253967,-0.02957520561884336
56.327586,,2.482658534997177e-07,56.731,0.753000020980835,-0.02537370257662174
56.793102999999995,,3.2092642945179437e-07,57.199,0.75,-0.031947405735611806
57.258621000000005,,3.955811853617444e-07,57.661,0.7609999775886536,-0.007900229729453569
57.724138,,4.7205016098966376e-07,58.128,0.7730000019073486,0.01844396885274974
58.189655,,5.501391578184271e-07,58.591,0.8029999732971191,0.0841175359408761
58.655172,,6.296398162976791e-07,59.057,0.7509999871253967,-0.028753058039117128
59.120689999999996,,7.103297468965372e-07,59.525,0.7480000257492065,-0.03477867926415483
59.586207,,7.91972716821793e-07,59.99,0.7730000019073486,0.020272991189889036
60.051724,,8.743188941401892e-07,60.45,0.7490000128746033,-0.03137094625277961
60.517241,,9.571051509138337e-07,60.916,0.6790000200271606,-0.18319571911274168
60.982758999999994,,1.040055426816973e-06,61.381,0.7739999890327454,0.024471822533661657
61.448276,,1.1228811545501902e-06,61.847,0.7360000014305115,-0.05762499250713044
61.913793,,1.2052817482046753e-06,62.309,0.7720000147819519,0.021474362517271712
62.379310000000004,,1.2869451555546263e-06,62.779,0.7730000019073486,0.02427758345262531
62.84482800000001,,1.3675484750702366e-06,63.243,0.7720000147819519,0.022662001025228872
63.310345000000005,,1.4467586382472728e-06,63.705,0.7480000257492065,-0.0291416801225795
63.775862000000004,,1.5242331576421813e-06,64.169,0.7680000066757202,0.014820613422914054
64.241379,,1.599620940784279e-06,64.638,0.7580000162124634,-0.0066829475827092566
64.706897,,1.6725631699091952e-06,65.104,0.7689999938011169,0.017449958208773732
65.172414,,1.7426942472207241e-06,65.567,0.75,-0.023897214685851216
65.637931,,1.809642805142051e-06,66.032,0.734000027179718,-0.05883168494795704
66.103448,,1.873032780762393e-06,66.499,0.753000020980835,-0.01763548991377472
66.56896599999999,,1.932484553422011e-06,66.965,0.753000020980835,-0.01794957100575566
67.03448300000001,,1.987616144107865e-06,67.424,0.7789999842643738,0.038275189555356026
67.5,,2.0380444750545327e-06,67.89,0.7580000162124634,-0.007989420101267835
67.965517,,2.0833866876611117e-06,68.354,0.7549999952316284,-0.015116624372205522
68.431034,,2.123261516545369e-06,68.82,0.7609999775886536,-0.002696948825053963
68.896552,,2.157290717262247e-06,69.288,0.8399999737739563,0.16872430177794798
69.362069,,2.1851005449157514e-06,69.75,0.7699999809265137,0.015509436277964908
69.827586,,2.206323280592194e-06,70.22,0.7739999890327454,0.02351733124100514
70.293103,,2.220598802239645e-06,70.683,0.7490000128746033,-0.0316333717610096
70.75862099999999,,2.2275761963142803e-06,71.146,0.7739999890327454,0.022190582413611427
71.22413800000001,,2.2269154062100993e-06,71.609,0.7760000228881836,0.02596783126663313
71.689655,,2.2182889131853667e-06,72.075,0.7089999914169312,-0.12050297361012172
72.15517200000001,,2.2013834451981623e-06,72.539,0.7409999966621399,-0.051195198436739975
72.62069,,2.175901708765842e-06,73.004,0.7990000247955322,0.07486332607580135
73.086207,,2.1415641386701675e-06,73.469,0.7559999823570251,-0.019004615043681103
73.551724,,2.0981106600426265e-06,73.934,0.765999972820282,0.002718834571025055
74.017241,,2.0453024570843e-06,74.399,0.7739999890327454,0.020209983672211922
74.482759,,1.9829237424028587e-06,74.865,0.7570000290870667,-0.016641361778223583
74.94827599999999,,1.9107835206871893e-06,75.333,0.753000020980835,-0.02505239051562032
75.41379300000001,,1.8287173401891524e-06,75.798,0.7839999794960022,0.042898637683431516
75.87931,,1.736589025243384e-06,76.261,0.7570000290870667,-0.015413797636650248
76.344828,,1.6342923828313153e-06,76.724,0.7580000162124634,-0.012641589396989011
76.810345,,1.521752875986045e-06,77.191,0.7480000257492065,-0.03377003744161974
77.275862,,1.3989292566418023e-06,77.661,0.7689999938011169,0.012684538139503617
77.741379,,1.2658151503568534e-06,78.124,0.7699999809265137,0.01559088638972225
78.206897,,1.1224405851832723e-06,78.587,0.7760000228881836,0.029394150352579966
78.67241399999999,,9.68873456822375e-07,79.052,0.75,-0.026538107801363113
79.137931,,8.05220922092211e-07,79.517,0.753000020980835,-0.019330298451444534
79.603448,,6.316307126446503e-07,79.983,0.7739999890327454,0.027031952992779676
80.068966,,4.4829236080566427e-07,80.45,0.753000020980835,-0.01818812889136735
80.53448300000001,,2.554383293746524e-07,80.915,0.7739999890327454,0.0279994924235988
81.0,,5.334503720839221e-08,81.375,0.6150000095367432,-0.31808105726822533
81.465517,,1.5766622756639966e-07,81.84,0.7540000081062317,-0.015048606915368409
81.931034,,3.7722851481962397e-07,82.31,0.7490000128746033,-0.02587013056173827
82.396552,,6.049285481919403e-07,82.772,0.7480000257492065,-0.028105427695405836
82.86206899999999,,8.403061972936603e-07,83.235,0.7390000224113464,-0.04789707113769459
83.327586,,1.0828540941012344e-06,83.705,0.7590000033378601,-0.004629628503740655
83.79310299999999,,1.3320174011459131e-06,84.166,0.7580000162124634,-0.007225844700655249
84.258621,,1.5871937388761332e-06,84.635,0.7900000214576721,0.061974599700488006
84.72413800000001,,1.84773327932664e-06,85.094,0.7699999809265137,0.01780258817242666
85.189655,,2.112939012942667e-06,85.564,0.7419999837875366,-0.04386400860302814
85.65517200000001,,2.382067195086087e-06,86.03,0.7730000019073486,0.022963134660736
86.12069,,2.654327978391917e-06,86.495,0.7509999871253967,-0.025703438611767118
86.586207,,2.9288862367475414e-06,86.954,0.7590000033378601,-0.009013884567899848
87.051724,,3.20486258623334e-06,87.421,0.7490000128746033,-0.03152170882807037
87.517241,,3.481334607891942e-06,87.886,0.7620000243186951,-0.0038807271328843524
87.98275899999999,,3.7573382766842e-06,88.351,0.7870000004768372,0.04996497808414667
88.448276,,4.031869600443289e-06,88.817,0.7699999809265137,0.01238786035250482
88.913793,,4.30388647205448e-06,89.28,0.753000020980835,-0.025093022539211855
89.37931,,4.572310737467552e-06,89.75,0.777999997138977,0.02903813046600884
89.844828,,4.836030481492123e-06,90.21,0.7739999890327454,0.02010799010191034
90.310345,,5.093902532634189e-06,90.68,0.7519999742507935,-0.02791196020562566
90.775862,,5.344755187505814e-06,91.143,0.7699999809265137,0.011342163535192849
91.241379,,5.5873911545803e-06,91.606,0.753000020980835,-0.0255294414034552
91.706897,,5.820590716273547e-06,92.071,0.7699999809265137,0.011794941142015675
92.17241399999999,,6.043115107510136e-06,92.535,0.7559999823570251,-0.01830505290294564
92.63793100000001,,6.253710108081586e-06,93.001,0.7720000147819519,0.017056380275998952
93.103448,,6.451109845225962e-06,93.466,0.7710000276565552,0.015468022376186953
93.568966,,6.63404080195454e-06,93.931,0.7570000290870667,-0.014373042342513532
94.03448300000001,,6.801226025724695e-06,94.396,0.7269999980926514,-0.07902353751050772
94.5,,6.951389531110889e-06,94.861,0.7559999823570251,-0.01510658556573147
94.965517,,7.083260889160046e-06,95.328,0.7490000128746033,-0.029615258409202663
95.431034,,7.195579995136437e-06,95.794,0.7609999775886536,-0.0027455920594491806
95.896552,,7.287102005367116e-06,96.254,0.7509999871253967,-0.023843366788910216
96.36206899999999,,7.3566024328951685e-06,96.724,0.7739999890327454,0.026896857143746608
96.827586,,7.402882390637497e-06,97.187,0.7730000019073486,0.025274019516130345
97.293103,,7.424773969730051e-06,97.65,0.7739999890327454,0.02791678630015416
97.758621,,7.421145739729658e-06,98.121,0.7720000147819519,0.02391815714689147
98.224138,,7.390908356331644e-06,98.583,0.7689999938011169,0.01762434069450652
98.689655,,7.333020261259947e-06,99.049,0.7540000081062317,-0.014937431905874673
99.155172,,7.2464934579953165e-06,99.514,0.5080000162124634,-0.550900346572802
99.62069,,7.130399346031536e-06,99.979,0.7739999890327454,0.028467814303148216
100.086207,,6.983874595393524e-06,100.439,0.7480000257492065,-0.028457115108320302
100.551724,,6.806127042218864e-06,100.905,0.7739999890327454,0.027793057924904423
101.017241,,6.596441585300234e-06,101.37,0.7730000019073486,0.025117836570758535
101.482759,,6.3541860626146864e-06,101.835,0.7480000257492065,-0.02993189345029873
101.948276,,6.07881708603139e-06,102.306,0.7509999871253967,-0.024049857638728186
102.413793,,5.7698858115967626e-06,102.768,0.7549999952316284,-0.016040003234331888
102.87931,,5.427043622049626e-06,103.232,0.7710000276565552,0.018084373916366088
103.344828,,5.050047697523652e-06,103.694,0.753000020980835,-0.02187246351403056
103.810345,,4.6387664497547395e-06,104.165,0.7480000257492065,-0.033492279385465694
104.275862,,4.193184794531642e-06,104.628,0.7689999938011169,0.01156872889522231
104.741379,,3.7134092366139413e-06,105.094,0.7450000047683716,-0.041352633292154155
105.206897,,3.199672740896833e-06,105.557,0.7739999890327454,0.021269896716030304
105.672414,,2.6523393632319224e-06,106.022,0.7649999856948853,0.001196252068494122
106.13793100000001,,2.0719086140216825e-06,106.488,0.7559999823570251,-0.018771225329551947
106.603448,,1.4590195274969791e-06,106.953,0.777999997138977,0.02891599428910134
107.068966,,8.144544094663691e-07,107.42,0.7480000257492065,-0.036562935276273544
107.534483,,1.3914223629698656e-07,107.886,0.7739999890327454,0.020088960147490505
108.0,,5.658383220461889e-07,108.344,0.7549999952316284,-0.021172125179692542
108.46551699999999,,1.2992562819091492e-06,108.809,0.7689999938011169,0.009584096829867715
108.931034,,2.0597261555420092e-06,109.279,0.7739999890327454,0.0208467286059711
109.396552,,2.845706216735534e-06,109.742,0.7699999809265137,0.01260485102097714
109.862069,,3.6554972483725956e-06,110.21,0.7720000147819519,0.017523920586527273
110.32758600000001,,4.487241797165328e-06,110.672,0.7490000128746033,-0.03195178245905903
110.793103,,5.338923960131923e-06,111.135,0.7739999890327454,0.023199723499142195
111.258621,,6.208369726531697e-06,111.605,0.7889999747276306,0.05659704851159811
111.724138,,7.09324789802107e-06,112.064,0.7820000052452087,0.04207585992224584
112.189655,,7.991071608714654e-06,112.535,0.7739999890327454,0.02536560936274367
112.655172,,8.899200465633306e-06,113.0,0.7720000147819519,0.021695038993019913
113.12069,,9.8148433286937e-06,113.465,0.7739999890327454,0.02668592548560373
113.586207,,1.0735061747941022e-05,113.931,0.7490000128746033,-0.02721898160944987
114.051724,,1.1656774074147572e-05,114.395,0.7509999871253967,-0.022390403510161378
114.51724100000001,,1.2576760257195525e-05,114.86,0.8270000219345093,0.14355549075120255
114.982759,,1.3491667344832484e-05,115.325,0.7730000019073486,0.02616502774993974
115.448276,,1.4398015692434931e-05,115.784,0.7739999890327454,0.028480342074667462
115.913793,,1.5292205892338825e-05,116.254,0.7549999952316284,-0.012902522164929238
116.37931,,1.6170526429100567e-05,116.716,0.7760000228881836,0.03273489251559538
116.84482799999999,,1.702916206473786e-05,117.184,0.7739999890327454,0.028141472989004712
117.310345,,1.78642029555719e-05,117.647,0.7580000162124634,-0.007067427960160291
117.77586199999999,,1.867165449975352e-05,118.113,0.7480000257492065,-0.029309169290634776
118.241379,,1.9447447911910665e-05,118.578,0.7620000243186951,0.0006453389239824604
118.70689700000001,,2.018745151860785e-05,119.043,0.7440000176429749,-0.03919169015835897
119.172414,,2.0887482765464942e-05,119.509,0.8489999771118164,0.18889067600978132
119.63793100000001,,2.154332092384952e-05,119.975,0.7720000147819519,0.02042721749205151
120.103448,,2.215072048203992e-05,120.439,0.7710000276565552,0.017529537164094406
120.568966,,2.2705425202662495e-05,120.904,0.7739999890327454,0.02335493730626812
121.034483,,2.3203182825044225e-05,121.369,0.7699999809265137,0.01395970619166571
121.5,,2.3639760387898898e-05,121.835,0.7549999952316284,-0.019350835292951715
121.96551699999999,,2.401096014449046e-05,122.295,0.7739999890327454,0.021480957676880356
122.431034,,2.43126360391002e-05,122.765,0.765999972820282,0.0035745382196576145
122.896552,,2.4540710710275325e-05,123.228,0.7630000114440918,-0.0033389858953546563
123.362069,,2.469119298296568e-05,123.691,0.7739999890327454,0.02035912667816729
123.827586,,2.4760195808273906e-05,124.154,0.6579999923706055,-0.2325143917526042
124.293103,,2.474395460616389e-05,124.624,0.7720000147819519,0.015820687002906904
124.758621,,2.4638845963104818e-05,125.089,0.7590000033378601,-0.012410668936491093
125.22413800000001,,2.44414066332864e-05,125.552,0.7099999785423279,-0.11895318198303584
125.68965500000002,,2.414835278873749e-05,126.018,0.7699999809265137,0.012090287224122297
126.15517200000001,,2.375659946042927e-05,126.484,0.8370000123977661,0.15849062840185182
126.62069000000001,,2.3263280109258885e-05,126.95,0.777999997138977,0.03047716948243002
127.086207,,2.2665766262704134e-05,127.409,0.7480000257492065,-0.034276438185128946
127.55172400000001,,2.1961687149929437e-05,127.875,0.7739999890327454,0.023033260036419714
128.017241,,2.1148949265221965e-05,128.34,0.7730000019073486,0.021559127146752417
128.48275900000002,,2.02257557868603e-05,128.806,0.7710000276565552,0.01792526235927129
128.948276,,1.9190625775881042e-05,129.269,0.7990000247955322,0.07964840669106737
129.413793,,1.8042413076727057e-05,129.738,0.777999997138977,0.034594182473566173
129.87931,,1.6780324839450252e-05,130.199,0.7919999957084656,0.0657481527786929
130.344828,,1.540393958101702e-05,130.668,0.7580000162124634,-0.007737901981571133
130.81034499999998,,1.3913224701341932e-05,131.136,0.753000020980835,-0.01812709697142317
131.275862,,1.2308553367970158e-05,131.598,0.7820000052452087,0.045458108478996714
131.741379,,1.0590720681857072e-05,132.064,0.7720000147819519,0.023964802974739453
132.206897,,8.760959035469827e-06,132.529,0.7739999890327454,0.028495081174346862
132.67241399999997,,6.82095257347534e-06,132.994,0.7570000290870667,-0.008494883676822882
133.13793099999998,,4.772850665597121e-06,133.461,0.7699999809265137,0.019746337413074678
133.60344800000001,,2.619280300834039e-06,133.919,0.6069999933242798,-0.3355833596664479
134.06896600000002,,3.6335731215144275e-07,134.384,0.753000020980835,-0.01783612302912964
134.53448300000002,,1.9913036590072753e-06,134.85,0.5849999785423279,-0.3843011494072366
135.0,,4.440580548469692e-06,135.317,0.753000020980835,-0.018842572531143114
135.465517,,6.979836694508434e-06,135.783,0.7620000243186951,0.00012853808773623915
135.931034,,9.603915190330967e-06,136.25,0.777999997138977,0.03429161294821014
136.396552,,1.230713485013369e-05,136.712,0.7710000276565552,0.01830962221969515
136.862069,,1.5083287872948542e-05,137.18,0.7699999809265137,0.015385777765221908
137.327586,,1.7925639286102593e-05,137.643,0.7490000128746033,-0.03110202497990885
137.793103,,2.082692824730772e-05,138.108,0.7739999890327454,0.02265909158363452
138.258621,,2.3779371281191325e-05,138.572,0.7480000257492065,-0.03463789728705804
138.724138,,2.6774667522464212e-05,139.038,0.7730000019073486,0.0192488898142926
139.189655,,2.9804006033893394e-05,139.505,0.7870000004768372,0.04926176018743638
139.655172,,3.285807526280221e-05,139.964,0.7760000228881836,0.02491521017341419
140.12069,,3.592707469495554e-05,140.429,0.7739999890327454,0.020294385092237847
140.586207,,3.9000728759403104e-05,140.895,0.7170000076293945,-0.10402763737785055
141.05172399999998,,4.206830303214974e-05,141.362,0.7490000128746033,-0.03432318392997967
141.51724099999998,,4.5118622780400035e-05,141.828,0.7739999890327454,0.02025801980630601
141.982759,,4.814009388258998e-05,142.291,0.7739999890327454,0.02049808956306416
142.44827600000002,,5.112072615247529e-05,142.761,0.7739999890327454,0.020855981102768727
142.913793,,5.404815908820192e-05,143.224,0.7480000257492065,-0.03532491007093371
143.37931,,5.69096900595477e-05,143.687,0.7739999890327454,0.021874769028438545
143.844828,,5.9692304938406324e-05,144.155,0.7739999890327454,0.022503782633567823
144.310345,,6.238271116909692e-05,144.617,0.7409999966621399,-0.048708174578453015
144.77586200000002,,6.49673732662402e-05,145.083,0.7580000162124634,-0.010955317756490736
145.241379,,6.743255071876032e-05,145.546,0.7739999890327454,0.0246293151648847
145.706897,,6.976433826906866e-05,146.012,0.7519999742507935,-0.022586036495406255
146.172414,,7.194870852668162e-05,146.476,0.7480000257492065,-0.03061946332435442
146.637931,,7.397155686544125e-05,146.942,0.765999972820282,0.009222180491779973
147.103448,,7.581874854316811e-05,147.409,0.7509999871253967,-0.022905212850383997
147.568966,,7.747616797200664e-05,147.875,0.7689999938011169,0.016772391295925285
148.034483,,7.89297700569519e-05,148.34,0.7699999809265137,0.019308979589598218
148.5,,8.016563350910148e-05,148.805,0.75,-0.024020645538185843
148.965517,,8.117001602909077e-05,149.265,0.7710000276565552,0.02185221217279138
149.43103399999998,,8.192941124497485e-05,149.735,0.753000020980835,-0.0173678011456654
149.89655199999999,,8.243060727755213e-05,150.195,0.7730000019073486,0.026075914520777912
150.362069,,8.266074679482066e-05,150.665,0.7739999890327454,0.028005122936973142
150.82758600000003,,8.260738840595488e-05,151.128,0.753000020980835,-0.01810805498674465
151.293103,,8.225856923393031e-05,151.591,0.7789999842643738,0.03807402697857929
151.758621,,8.160286849474588e-05,152.056,0.7689999938011169,0.01573856945723494
152.224138,,8.062947190014359e-05,152.521,0.7739999890327454,0.026013797546353752
152.68965500000002,,7.932823668984566e-05,152.986,0.753000020980835,-0.020406092493201928
153.155172,,7.768975708866797e-05,153.453,0.7730000019073486,0.02246847465378297
153.62069,,7.570542997346999e-05,153.919,0.7519999742507935,-0.023990223536075984
154.086207,,7.336752052481646e-05,154.384,0.7549999952316284,-0.018148537469069758
154.551724,,7.066922762850185e-05,154.85,0.7739999890327454,0.022585503706059936
155.017241,,6.76047487827751e-05,155.317,0.7749999761581421,0.024158831019200147
155.482759,,6.41693442582506e-05,155.775,0.7739999890327454,0.021448711364889638
155.948276,,6.0359400249152346e-05,156.243,0.7730000019073486,0.018828459865279836
156.413793,,5.61724907467632e-05,156.705,0.7739999890327454,0.020668580674987384
156.87931,,5.1607437858791314e-05,157.169,0.7609999775886536,-0.007879387973457247
157.34482799999998,,4.666437029187304e-05,157.639,0.753000020980835,-0.02541501384517418
157.81034499999998,,4.134477970865695e-05,158.104,0.7720000147819519,0.01599451852043584
158.275862,,3.5651574665908373e-05,158.567,0.8629999756813049,0.2143899446601893
158.741379,,2.9589131835887683e-05,159.033,0.7870000004768372,0.04907204198410109
159.20689700000003,,2.3163344209938965e-05,159.498,0.8289999961853027,0.140946875166711
159.672414,,1.638166598082631e-05,159.963,0.7739999890327454,0.021592106058865294
160.137931,,9.253153798920952e-06,160.428,0.765999972820282,0.004716775590491428
160.60344800000001,,1.788504096919119e-06,160.894,0.75,-0.0295238719426037
161.06896600000002,,5.999913821597565e-06,161.358,0.7630000114440918,-0.0005398541376088206
161.534483,,1.4098029232718083e-05,161.823,0.753000020980835,-0.021641535884268585
162.0,,2.2490046281966313e-05,162.284,0.7730000019073486,0.022618457247802048
162.465517,,3.115842540932294e-05,162.754,0.7720000147819519,0.021108524581296806
162.931034,,4.0083870200300994e-05,163.214,0.75,-0.026192025306977368
163.396552,,4.9245319947374855e-05,163.683,0.7739999890327454,0.026666803245716693
163.862069,,5.8619948198293776e-05,164.147,0.753000020980835,-0.01858915814361139
164.327586,,6.818316755874411e-05,164.609,0.7730000019073486,0.025388920979253993
164.793103,,7.790864100643679e-05,165.075,0.7739999890327454,0.02787061789029194
165.258621,,8.776829996196995e-05,165.546,0.753000020980835,-0.01768867813342193
165.72413799999998,,9.773236934873606e-05,166.005,0.753000020980835,-0.017613295966433958
166.189655,,0.00010776939985969858,166.476,0.7580000162124634,-0.006763533872573857
166.655172,,0.00011784630763304936,166.934,0.7570000290870667,-0.009102295359222391
167.12069,,0.00012792842152157342,167.399,0.7670000195503235,0.012413232692901068
167.58620699999997,,0.0001379795381219958,167.865,0.7710000276565552,0.020755540850063658
168.051724,,0.0001479619847106764,168.332,0.777999997138977,0.035544893852975476
168.517241,,0.00015783669021076616,168.797,0.7680000066757202,0.013223353266063007
168.98275900000002,,0.00016756326429336098,169.265,0.7720000147819519,0.021345682443417856
169.44827600000002,,0.0001771000846913158,169.728,0.7990000247955322,0.07953874015436528
169.913793,,0.00018640439277924008,170.191,0.7739999890327454,0.02442392608008899
170.37931,,0.00019543239744682452,170.661,0.7710000276565552,0.017241035812831464
170.844828,,0.00020413938726509173,171.124,0.75,-0.029137392167112093
171.310345,,0.00021247985091646873,171.587,0.7739999890327454,0.022562381395836745
171.775862,,0.0002204076058298049,172.053,0.7519999742507935,-0.02589891752335778
172.241379,,0.00022787593493066492,172.52,0.7739999890327454,0.021573179069917788
172.706897,,0.00023483773138548074,172.986,0.7480000257492065,-0.0354435338484119
173.172414,,0.00024124565118552755,173.451,0.7549999952316284,-0.020468184756860932
173.637931,,0.0002470522733832746,173.909,0.7580000162124634,-0.014102800326880782
174.103448,,0.00025221026775954256,174.381,0.7739999890327454,0.020694666668002203
174.568966,,0.00025667256966516687,174.839,0.7739999890327454,0.020745514150285027
175.034483,,0.0002603925617456237,175.309,0.7739999890327454,0.020906237667391504
175.5,,0.00026332426222142724,175.772,0.765999972820282,0.0037419516228206764
175.96551699999998,,0.0002654225193611688,176.235,0.753000020980835,-0.02422044882807512
176.43103399999998,,0.00026664321174795565,176.705,0.753000020980835,-0.02377770754846541
176.896552,,0.0002669434539038506,177.169,0.7739999890327454,0.022485547593038925
177.36206900000002,,0.0002662818068008335,177.632,0.753000020980835,-0.02270101328610367
177.827586,,0.0002646184927509499,178.097,0.7749999761581421,0.025829934282813962
178.293103,,0.0002619156141328114,178.56,0.7490000128746033,-0.030196974179981503
178.758621,,0.00025813737537661756,179.026,0.7770000100135803,0.03142118656609088
179.224138,,0.0002532503075955313,179.49,0.7710000276565552,0.01894502874325706
179.68965500000002,,0.0002472234952177076,179.956,0.7730000019073486,0.02385989381485462
180.155172,,0.00024002880394071447,180.42,0.7730000019073486,0.02436252029926438
180.62069,,0.00023164110929865028,180.886,0.7699999809265137,0.018259009179538745
181.086207,,0.0002220385251021211,181.35,0.7620000243186951,0.001179066590727378
181.551724,,0.0002112026309825621,181.816,0.753000020980835,-0.01817378466257098
182.01724099999998,,0.00019911869824533373,182.28,0.8299999833106995,0.1497365525783242
182.482759,,0.00018577591321077065,182.75,0.765999972820282,0.010354080214197994
182.948276,,0.00017116759719907997,183.21,0.7590000033378601,-0.004950846513954164
183.413793,,0.00015529142229384256,183.68,0.7480000257492065,-0.02907552905821631
183.87931,,0.00013814962200003655,184.143,0.7710000276565552,0.02077386999877864
184.34482799999998,,0.00011974919589614651,184.605,0.7630000114440918,0.002994032801197095
184.81034499999998,,0.00010010210736622152,185.071,0.7549999952316284,-0.014865750788810552
185.27586200000002,,7.922547348686454e-05,185.535,0.7570000290870667,-0.011005730370817363
185.74137900000002,,5.714174613622135e-05,186.001,0.7889999747276306,0.058162873857729024
186.206897,,3.3878883387234555e-05,186.466,0.7749999761581421,0.027081073542122774
186.672414,,9.470510245911812e-06,186.932,0.7279999852180481,-0.07591162148465554
187.137931,,1.604393220268406e-05,187.399,0.7730000019073486,0.021533144379273686
187.60344800000001,,4.261905017245009e-05,187.865,0.753000020980835,-0.022613860981906354
188.06896600000002,,7.020337400078122e-05,188.325,0.7739999890327454,0.022602148405852892
188.534483,,9.873924932922631e-05,188.791,0.75,-0.03016614706816917
189.0,,0.00012816274353295227,189.258,0.7369999885559082,-0.05890067781423711
189.465517,,0.00015840356827047936,189.72,0.7559999823570251,-0.017837871427710067
189.931034,,0.0001893850189996303,190.184,0.7549999952316284,-0.020257039411612533
190.39655199999999,,0.0002210239322763235,190.653,0.7739999890327454,0.020995535389454412
190.862069,,0.00025323066161987245,191.125,0.7739999890327454,0.020957371675282676
191.327586,,0.00028590907269074057,191.58,0.7699999809265137,0.012309325127069254
191.793103,,0.0003189565584829498,192.045,0.765999972820282,0.003763395319744945
192.25862099999998,,0.00035226407518464884,192.509,0.7630000114440918,-0.0025074998938709515
192.72413799999998,,0.0003857161993101792,192.975,0.746999979019165,-0.03701370791334262
193.189655,,0.00041919120665579303,193.439,0.7400000095367432,-0.05183661386658349
193.655172,,0.0004525611735722278,193.905,0.9179999828338623,0.3364551093812315
194.12069000000002,,0.0004856921009743256,194.37,0.7739999890327454,0.02327487406751787
194.586207,,0.000518444061429749,194.836,0.7730000019073486,0.021675249627642095
195.051724,,0.000550671369605796,195.306,0.7490000128746033,-0.03002101345503036
195.517241,,0.0005822227763032583,195.769,0.7480000257492065,-0.03161557979527187
195.98275900000002,,0.0006129416862261939,196.232,0.7739999890327454,0.025587753877863842
196.448276,,0.0006426663994966622,196.694,0.7369999885559082,-0.05450638161502875
196.913793,,0.0006712303767889533,197.162,0.7390000224113464,-0.04969259134223322
197.37931,,0.0006984625279420228,197.625,0.7720000147819519,0.02258576636369088
197.844828,,0.0007241875239688356,198.09,0.7739999890327454,0.027242190616824827
198.310345,,0.0007482261322502601,198.554,0.7549999952316284,-0.01394531927398606
198.775862,,0.0007703955742548534,199.019,0.7739999890327454,0.027557102647426633
199.241379,,0.000790509904814667,199.491,0.7820000052452087,0.04499330382978453
199.706897,,0.000808380412426289,199.949,0.7699999809265137,0.018755966460619694
200.172414,,0.0008238160408012306,200.414,0.7329999804496765,-0.06204566420636561
200.63793099999998,,0.0008366238313496095,200.88,0.7559999823570251,-0.012221235590391203
201.103448,,0.0008466093840552426,201.347,0.7559999823570251,-0.012589177391255334
201.568966,,0.0008535773332902912,201.812,0.7630000114440918,0.0022225100900413277
202.034483,,0.0008573318387221425,202.281,0.7720000147819519,0.021334965376709113
202.5,,0.0008576770959647597,202.743,0.7739999890327454,0.025156619991218675
202.965517,,0.000854417867558063,203.206,0.753000020980835,-0.02115392443814505
203.431034,,0.0008473600221170064,203.676,0.746999979019165,-0.03479154696082857
203.896552,,0.0008363110674531805,204.139,0.7739999890327454,0.023477339747024338
204.36206900000002,,0.0008210806878095078,204.602,0.7409999966621399,-0.04894414768477832
204.827586,,0.0008014813187243018,205.067,0.7559999823570251,-0.01674600937515019
205.293103,,0.0007773287614197027,205.531,0.75,-0.030240164567453064
205.758621,,0.0007484427651047096,205.997,0.7720000147819519,0.017340622471558806
206.224138,,0.0007146475117662017,206.461,0.9279999732971191,0.3569473779120425
206.689655,,0.0006757720939058896,206.927,0.7760000228881836,0.025628683711007808
207.155172,,0.0006316511871360492,207.392,0.7739999890327454,0.02120722797239069
207.62069,,0.0005821258877523523,207.857,0.7580000162124634,-0.013617109902114516
208.086207,,0.0005270442711768791,208.324,0.7369999885559082,-0.05923960555504759
208.551724,,0.00046626137324269954,208.79,0.7490000128746033,-0.03287699685459023
209.01724099999998,,0.00039963926446262137,209.251,0.75,-0.03039747255046735
209.482759,,0.00032704835926836785,209.72,0.7739999890327454,0.02226386355949661
209.948276,,0.00024836948772930315,210.183,0.7519999742507935,-0.025231450494863344
210.413793,,0.00016349399914806825,210.646,0.7879999876022339,0.05368249718083259
210.87930999999998,,7.232068542952255e-05,211.112,0.7549999952316284,-0.01769787190531614
211.344828,,2.5245833311837055e-05,211.577,0.7440000176429749,-0.04113248819994781
211.810345,,0.000129289070665779,212.042,0.824999988079071,0.1358677810879158
212.27586200000002,,0.0002398715968490193,212.509,0.75,-0.027016977067049017
212.741379,,0.00035703933662392125,212.975,0.8370000123977661,0.16300797674893863
213.206897,,0.0004808428539673466,213.439,0.7490000128746033,-0.028276903836349117
213.672414,,0.0006113447580087155,213.904,0.7699999809265137,0.017850002834855213
214.137931,,0.0007485811869815131,214.369,0.777999997138977,0.03558148143915837
214.60344800000001,,0.0008925152810186438,214.834,0.7649999856948853,0.0074795126616693935
215.068966,,0.0010430787777085373,215.295,0.7720000147819519,0.022862165548357096
215.534483,,0.001200300464605596,215.765,0.7570000290870667,-0.009777884882122074
216.0,,0.0013643228063099182,216.228,0.7710000276565552,0.02066956189508513
216.465517,,0.001535150864469136,216.69,0.7409999966621399,-0.044835023082610975
216.93103399999998,,0.0017124177084897896,217.158,0.753000020980835,-0.018923154517623116
217.39655199999999,,0.0018957135517654986,217.62,0.722000002861023,-0.08677307052136889
217.862069,,0.0020853307550106714,218.086,0.7730000019073486,0.023956911127335674
218.327586,,0.002282181498368831,218.549,0.7620000243186951,-0.00044500375102536974
218.793103,,0.0024862004689640963,219.016,0.7739999890327454,0.02522122618722493
219.25862099999998,,0.002695240357473074,219.481,0.75,-0.027569220633691476
219.724138,,0.002907475745525594,219.946,0.753000020980835,-0.021545967056876884
220.18965500000002,,0.003125592347650841,220.414,0.75,-0.028588546536846154
220.65517200000002,,0.0033551863569779156,220.879,0.7559999823570251,-0.01600094193544994
221.12069,,0.003594874186814026,221.344,0.7739999890327454,0.022768679848186268
221.586207,,0.003831695236369999,221.81,0.7480000257492065,-0.03426969466379669
222.051724,,0.00405778242126016,222.273,0.7350000143051147,-0.06292183470998848
222.517241,,0.004293114031090383,222.736,0.8360000252723694,0.15686708004400812
222.98275900000002,,0.004569384768453561,223.206,0.7739999890327454,0.021621146090667547
223.448276,,0.004870357393324425,223.668,0.7749999761581421,0.023719714416286425
223.913793,,0.005117448512767187,224.132,0.7730000019073486,0.01937273832488744
224.37931,,0.005280883461456819,224.594,0.7210000157356262,-0.0938184321082852
224.844828,,0.005497996273924447,225.06,0.8399999737739563,0.1656240198525784
225.31034499999998,,0.005939001638949289,225.525,0.7739999890327454,0.022096952365464183
225.775862,,0.006456615487389762,225.991,0.7699999809265137,0.013717141680996737
226.241379,,0.006582778124355042,226.458,0.7739999890327454,0.022824949864268747
226.706897,,0.006248224271378652,226.924,0.7519999742507935,-0.024667284019913145
227.172414,,0.0063683000358398445,227.391,0.7739999890327454,0.023731151579959923
227.63793099999998,,0.007830583969492773,227.849,0.7739999890327454,0.024214357451103327
228.103448,,0.009412016533026158,228.321,0.7519999742507935,-0.0232334022640485
228.56896600000002,,0.007870487706772206,228.779,0.7490000128746033,-0.029303834828943588
229.03448300000002,,0.0017491742816026607,229.247,0.753000020980835,-0.020156266017224405
229.5,,0.005405140294292836,229.709,0.7730000019073486,0.02380391313361123
229.965517,,0.007821852664997958,230.18,0.6980000138282776,-0.13926591966171317
230.431034,,0.0043340174660109814,230.643,0.7730000019073486,0.02439206337483309
230.896552,,0.0013539003287489225,231.108,0.7699999809265137,0.01803950726126241
231.362069,,0.007917551159261986,231.572,0.7699999809265137,0.018143181984325202
231.827586,,0.027138824629008487,232.038,0.7519999742507935,-0.02105156951688009
232.293103,,0.05231717844251664,232.502,0.75,-0.025471184989778923
232.758621,,0.07177605700793557,232.967,0.7580000162124634,-0.008185101277453912
233.224138,,0.07769555420705918,233.431,0.7519999742507935,-0.02147544404517131
233.689655,,0.07023300059860278,233.897,0.7710000276565552,0.019633529390332125
234.155172,,0.05426469817327336,234.361,0.7739999890327454,0.025827357591156206
234.62069,,0.034063829692890096,234.827,0.7570000290870667,-0.011596396800163679
235.086207,,0.011360837607050197,235.295,0.7710000276565552,0.018485761547729105
235.55172399999998,,0.013112237840096602,235.757,0.7490000128746033,-0.02988193425935485
236.01724099999998,,0.0374321371918471,236.221,0.7699999809265137,0.015427973972573238
236.482759,,0.05768605743018124,236.69,0.5419999957084656,-0.4817394738788103
236.94827600000002,,0.0692355683586741,237.151,0.7490000128746033,-0.03117840644481794
237.413793,,0.06954049058794592,237.621,0.765999972820282,0.005472785172978332
237.87931,,0.060419500500303855,238.079,0.7720000147819519,0.018209858674190442
238.344828,,0.04719909505545206,238.544,0.7490000128746033,-0.032172184525021505
238.810345,,0.03485383124077603,239.01,0.777999997138977,0.030805810973856467
239.27586200000002,,0.024814969538604858,239.477,0.7490000128746033,-0.032501061285012935
239.741379,,0.015853252047295634,239.943,0.7770000100135803,0.028455422472746166
240.206897,,0.007600699099175058,240.41,0.7480000257492065,-0.03468973423672452
240.672414,,0.0018119136006912056,240.875,0.7699999809265137,0.013355506814056962
241.137931,,0.00034811865303714044,241.34,0.7730000019073486,0.02008190481428745
241.603448,,0.0007951985681813637,241.806,0.7580000162124634,-0.012338717482665745
242.068966,,0.002680990298197569,242.269,0.7739999890327454,0.02283798467071089
242.534483,,0.0064842638427554215,242.731,0.7649999856948853,0.003596814600978689
243.0,,0.009569952231378196,243.199,0.7630000114440918,-0.000358216003316399
243.465517,,0.009907684465727293,243.661,0.75,-0.028257254759464053
243.93103399999998,,0.008847294961403018,244.128,0.7739999890327454,0.024460405077031386
244.39655199999999,,0.00925695127399943,244.591,0.7559999823570251,-0.01433280390891707
244.862069,,0.011545162737294097,245.056,0.7720000147819519,0.02092634050364043
245.327586,,0.01283486315414258,245.521,0.7860000133514404,0.05179336419586505
245.793103,,0.010579002348102367,245.986,0.765999972820282,0.008539685213840919
246.258621,,0.0060671613501122965,246.454,0.7720000147819519,0.02187350876149162
246.724138,,0.0031405547501704902,246.919,0.7210000157356262,-0.08904308579130071
247.18965500000002,,0.0037871461310151774,247.384,0.7490000128746033,-0.027921325089276614
247.655172,,0.0064439396944175765,247.85,0.7739999890327454,0.026586350939757357
248.12069,,0.008696830475544868,248.317,0.7519999742507935,-0.021380545552292136
248.586207,,0.010017144270122683,248.775,0.753000020980835,-0.01931516645127898
249.051724,,0.011030180496577361,249.244,0.7699999809265137,0.01753579636087647
249.517241,,0.011315721382870078,249.706,0.7590000033378601,-0.006680759625048161
249.982759,,0.009422134584992227,250.169,0.7490000128746033,-0.02877556218131512
250.44827600000002,,0.005008058282445054,250.639,0.7739999890327454,0.02533609977095461
250.913793,,9.842722299023519e-05,251.105,0.7639999985694885,0.003161818291898641
251.37931000000003,,0.0034456822699147857,251.568,0.7699999809265137,0.015826194900840602
251.844828,,0.004091813550020907,252.033,0.75,-0.028160204665915435
252.31034499999998,,0.002921221042392764,252.494,0.7839999794960022,0.045508578803555785
252.77586200000002,,0.0013619938833905336,252.959,0.753000020980835,-0.022412313911765742
253.241379,,0.00021099548499588168,253.424,0.7549999952316284,-0.018402974718855023
253.706897,,0.0006579340542963612,253.889,0.7870000004768372,0.051012781875603444
254.172414,,0.0019182467977633566,254.355,0.7739999890327454,0.022447346533955272
254.63793099999998,,0.004001337908189817,254.82,0.7490000128746033,-0.03219592705235592
255.10344800000001,,0.006303934191843376,255.291,0.7720000147819519,0.017806934672149586
255.56896600000002,,0.007203250874618607,255.753,0.7480000257492065,-0.034512273529602365
256.03448299999997,,0.005349746611999483,256.221,0.7549999952316284,-0.01921843396954752
256.5,,0.0013241791557997843,256.683,0.5789999961853027,-0.40254741311428366
256.965517,,0.0023717793263627555,257.151,0.7490000128746033,-0.0320009546535233
257.431034,,0.0037389462278214717,257.614,0.7739999890327454,0.02270173281324806
257.896552,,0.0036123369613235866,258.079,0.7509999871253967,-0.027114364117121162
258.362069,,0.004596973891308756,258.545,0.7369999885559082,-0.057276663956992734
258.827586,,0.007407916751666035,259.01,0.7739999890327454,0.02370652604903594
259.29310300000003,,0.009410752279493517,259.476,0.7519999742507935,-0.02382802019578202
259.758621,,0.007739937157146924,259.934,0.7450000047683716,-0.03867368653698049
260.224138,,0.0031198379898156026,260.399,0.7519999742507935,-0.023023544891952123
260.689655,,0.000721844356437622,260.865,0.7739999890327454,0.025288313209658752
261.155172,,0.0013013520030236965,261.332,0.6949999928474426,-0.1464750245855903
261.62068999999997,,0.00020051315285139705,261.797,0.7739999890327454,0.025943607047422084
262.086207,,0.0010088664373367304,262.265,0.7720000147819519,0.021838116999624693
262.551724,,7.771753183107513e-05,262.727,0.753000020980835,-0.019365689551184912
263.017241,,0.0014214023471495233,263.191,0.7739999890327454,0.02650810461035284
263.482759,,0.0021422147301763364,263.661,0.7549999952316284,-0.014836651948868948
263.94827599999996,,0.0019056400603340584,264.121,0.777999997138977,0.035247239341460616
264.413793,,0.0010612932167507966,264.591,0.7739999890327454,0.02643380677058076
264.87931,,0.00030556941432080846,265.049,0.7820000052452087,0.04369372338370029
265.34482799999995,,0.00186823346388523,265.514,0.7739999890327454,0.02602994251218475
265.810345,,0.0025913024762424033,265.98,0.75,-0.026550652613606042
266.27586199999996,,0.0019173183301997951,266.446,0.7760000228881836,0.029751520617205835
266.741379,,0.0011147649349191157,266.912,0.7490000128746033,-0.029453449060070865
267.206897,,0.0021344459200845945,267.38,0.7609999775886536,-0.003717716020379765
267.672414,,0.004909889949407418,267.845,0.753000020980835,-0.021568191234073827
268.137931,,0.0069087920154320154,268.306,0.7749999761581421,0.025941483399546127
268.603448,,0.005857522720222613,268.769,0.7649999856948853,0.003749848397476699
269.06896600000005,,0.00221408433279066,269.24,0.7739999890327454,0.02298166710214448
269.53448299999997,,0.0013489402448856095,269.702,0.7540000081062317,-0.020925703599730946
270.0,,0.0023305567969087696,270.165,0.8360000252723694,0.15744310094808447
270.465517,,0.00023786447875414048,270.635,0.753000020980835,-0.023600505749166494
270.931034,,0.00315724604836013,271.101,0.7760000228881836,0.026363872567418033
271.396552,,0.005149492369458288,271.564,0.7739999890327454,0.021937572589436263
271.86206899999996,,0.004333410109577248,272.029,0.7739999890327454,0.02194737172551115
272.327586,,0.0018758306237353062,272.495,0.7570000290870667,-0.015001252295740947
272.793103,,0.00016241019087108005,272.96,0.7739999890327454,0.02219980170634949
273.258621,,0.00010514577134958971,273.425,0.7730000019073486,0.020256430502605307
273.724138,,0.0008228025871973065,273.884,0.7570000290870667,-0.01430282212606495
274.18965499999996,,0.0036531005377695666,274.35,0.7739999890327454,0.023087287481847716
274.655172,,0.006842287690375639,274.816,0.7580000162124634,-0.011375030630145666
275.12069,,0.0066097441722037615,275.28,0.7720000147819519,0.019552157330943024
275.586207,,0.0020870460804482535,275.749,0.75,-0.027935952602622546
276.051724,,0.0028619543745733,276.209,0.5339999794960022,-0.4980849139013911
276.517241,,0.0037733127474960325,276.679,0.7739999890327454,0.02520910693227194
276.98275900000004,,0.00038582399966626566,277.14,0.7889999747276306,0.058277654650777784
277.448276,,0.00358762062278396,277.61,0.7620000243186951,-0.00019418679688110738
277.913793,,0.004575560719929479,278.069,0.7490000128746033,-0.028214669462976308
278.37931,,0.0021612563224668825,278.535,0.7680000066757202,0.013421541285561353
278.844828,,0.0013988051303112372,279.001,0.7490000128746033,-0.02779887084725724
279.31034500000004,,0.0036929913551054278,279.466,0.75,-0.025520530255706952
279.77586199999996,,0.0040581778513045395,279.931,0.8050000071525574,0.09432789301904686
280.241379,,0.0034312775844842673,280.395,0.7519999742507935,-0.021194946863813853
280.706897,,0.0028348529516278092,280.86,0.7789999842643738,0.03749801934189571
281.172414,,0.0023617445243482712,281.325,0.7739999890327454,0.026401575944191947
281.637931,,0.0016048069538524968,281.791,0.7549999952316284,-0.015262634026124624
282.10344799999996,,0.0007262764602438186,282.254,0.7739999890327454,0.025802779731832776
282.568966,,0.0007394449103943086,282.724,0.7570000290870667,-0.011612041499705926
283.034483,,0.002405100301119314,283.187,0.7649999856948853,0.005401717639586311
283.5,,0.004831200798349012,283.65,0.7559999823570251,-0.014646247319717365
283.965517,,0.005887502066133965,284.121,0.7519999742507935,-0.023812262562658004
284.431034,,0.004570572651137991,284.583,0.7739999890327454,0.02366966404347231
284.89655200000004,,0.002066981222327302,285.049,0.7519999742507935,-0.0246914846950748
285.362069,,0.000605502193286852,285.513,0.7730000019073486,0.020660654807826806
285.827586,,0.004941354117427352,285.979,0.7490000128746033,-0.031982414582357996
286.293103,,0.012875518867008003,286.439,0.7770000100135803,0.02871983788122459
286.758621,,0.022565511720649047,286.905,0.7490000128746033,-0.032516741412053005
287.22413800000004,,0.02842522170747612,287.372,0.7519999742507935,-0.026142399977669938
287.689655,,0.026288234762194385,287.838,0.7540000081062317,-0.02186844086204653
288.155172,,0.01750617996833559,288.299,0.7239999771118164,-0.08723053026520466
288.62069,,0.007376555084387616,288.769,0.6990000009536743,-0.1416192445041293
289.086207,,0.0004584078026220683,289.232,0.7739999890327454,0.021935047227165785
289.55172400000004,,0.0020838541151784328,289.694,0.7710000276565552,0.015631082704382786
290.01724099999996,,0.0019057574099551975,290.162,0.7689999938011169,0.011576537193149114
290.482759,,0.0017993495234743264,290.625,0.7480000257492065,-0.033810715959402354
290.948276,,0.003958530834818289,291.091,0.7739999890327454,0.023248591544604548
291.413793,,0.008166627012531931,291.561,0.7519999742507935,-0.024229487853127292
291.87931,,0.01153075750656442,292.019,0.9340000152587891,0.3727638416289643
292.344828,,0.011251147755705255,292.484,0.746999979019165,-0.034149842768750625
292.81034500000004,,0.007775684899887101,292.949,0.765999972820282,0.007733995774858786
293.275862,,0.004085375002913379,293.416,0.7739999890327454,0.02562997127072292
293.74137900000005,,0.001966443357941829,293.882,0.5419999957084656,-0.47939158978984336
294.206897,,0.0005352855127744007,294.347,0.6980000138282776,-0.13915844704797367
294.672414,,0.0013556773073302917,294.813,0.7490000128746033,-0.02775411288732804
295.13793100000004,,0.003044053718544955,295.276,0.4909999966621399,-0.5896324850931022
295.603448,,0.003268551065623422,295.739,0.753000020980835,-0.018703813649295284
296.068966,,0.0021474812068574124,296.206,0.75,-0.025206733714821756
296.534483,,0.0008156149336906804,296.669,0.7699999809265137,0.01831419962303998
297.0,,0.00023210290517919232,297.139,0.7870000004768372,0.05521702639635801
297.46551700000003,,0.0014792250341075636,297.602,0.7699999809265137,0.017968465871958262
297.931034,,0.003438680415807359,298.067,0.75,-0.025887240377836435
298.396552,,0.0061142901394605435,298.531,0.9240000247955322,0.35285469730827435
298.862069,,0.009078806941334765,298.997,0.7739999890327454,0.025667666810346913
299.327586,,0.011292168067171277,299.461,0.7549999952316284,-0.016153676788718603
299.79310300000003,,0.01114516589769408,299.927,0.7749999761581421,0.026964415998528887
300.258621,,0.007858141747790794,300.392,0.7730000019073486,0.022138444034361642
300.724138,,0.0031144968985988212,300.857,0.7480000257492065,-0.03279650556861866
301.189655,,0.0002491829179934043,301.324,0.7739999890327454,0.023393007327776293
301.65517200000005,,0.0010232920600602138,301.79,0.7519999742507935,-0.024965394814822132
302.12069,,0.003692332769323471,302.25,0.765999972820282,0.005147557082328128
302.586207,,0.004944224645920312,302.72,0.753000020980835,-0.02351144076640912
303.05172400000004,,0.003399465798806257,303.18,0.753000020980835,-0.023786723556523365
303.517241,,0.0005487267063462673,303.65,0.7739999890327454,0.021759410585136293
303.982759,,0.001364103867070268,304.121,0.7739999890327454,0.02163087042478149
304.448276,,0.0013614410649434203,304.576,0.7829999923706055,0.041191577369051845
304.913793,,0.0002907587755687901,305.041,0.7720000147819519,0.017262353019000087
305.37931000000003,,0.0027448683960700814,305.505,0.7739999890327454,0.021737238040953226
305.844828,,0.0044874188393050915,305.971,0.7400000095367432,-0.05214164664121981
306.310345,,0.0037892782494152568,306.435,0.7609999775886536,-0.006124106037134967
306.775862,,0.0006188147916038291,306.901,0.7570000290870667,-0.014509638619252275
307.241379,,0.0025055194290391166,307.365,0.75,-0.029378003845067828
307.70689699999997,,0.003000660625157047,307.83,0.7609999775886536,-0.0049888880255316475
308.172414,,0.0012395712225877096,308.298,0.7559999823570251,-0.01542875074118606
308.637931,,0.00024129091136738376,308.76,0.7860000133514404,0.050400604789435845
309.103448,,0.00023181491033594077,309.228,0.7710000276565552,0.018193893069421648
309.568966,,1.4684128094588612e-05,309.69,0.7269999980926514,-0.07720551430972986
310.034483,,0.0007726811079271221,310.158,0.7739999890327454,0.025625584688304413
310.5,,0.001788145007382748,310.621,0.7480000257492065,-0.030623774789137408
310.96551700000003,,0.0012165706508919835,311.087,0.7730000019073486,0.02418723209762787
311.431034,,0.0013440882942117379,311.55,0.753000020980835,-0.019101742789111264
311.896552,,0.00427017355267161,312.015,0.7739999890327454,0.02686452505285432
312.362069,,0.005684545336085559,312.48,0.7799999713897705,0.04007587787058798
312.827586,,0.0054851090178757445,312.945,0.7730000019073486,0.02488592250495049
313.29310300000003,,0.005319662671350197,313.409,0.7739999890327454,0.027044027151462677
313.758621,,0.006510985274121592,313.875,0.765999972820282,0.009513447863687442
314.224138,,0.00841967020968433,314.34,0.7519999742507935,-0.02116752364344677
314.689655,,0.009265090699684373,314.805,0.765999972820282,0.009079916075240686
315.155172,,0.008218626827934804,315.276,0.7519999742507935,-0.021741171783704605
315.62068999999997,,0.006038345171105258,315.738,0.7620000243186951,-0.00033158920916294453
316.086207,,0.003876690234591668,316.199,0.7519999742507935,-0.022541153783565675
316.551724,,0.0023405126235906846,316.668,0.765999972820282,0.007503658103388915
317.017241,,0.001722237100534981,317.132,0.7850000262260437,0.04842280698860839
317.482759,,0.0021028926195455727,317.594,0.765999972820282,0.006548819353665787
317.94827599999996,,0.002759746787522674,318.06,0.7549999952316284,-0.017886292669874272
318.413793,,0.0023174176133256437,318.525,0.7599999904632568,-0.007440185954530469
318.87931000000003,,0.00025233886187385636,318.991,0.7739999890327454,0.022650306889033484
319.344828,,0.002222230634957378,319.458,0.777999997138977,0.03100389936385233
319.810345,,0.0035786142523805513,319.924,0.765999972820282,0.00455966637754248
320.275862,,0.004049460101217376,320.391,0.7739999890327454,0.021757982072792906
320.741379,,0.005330409281099931,320.849,0.7720000147819519,0.017246336938478112
321.20689699999997,,0.008046808879099877,321.321,0.7699999809265137,0.012815825278020216
321.672414,,0.010495764654484502,321.779,0.7689999938011169,0.010647484083313338
322.137931,,0.010612123618901109,322.25,0.7590000033378601,-0.011045754575405471
322.603448,,0.008651941854993092,322.712,0.753000020980835,-0.023944607621501898
323.068966,,0.007088044056922202,323.18,0.7480000257492065,-0.03459061614069838
323.53448299999997,,0.007766680312753831,323.642,0.7720000147819519,0.018011308752015526
324.0,,0.009603545632824732,324.108,0.7549999952316284,-0.01865299863655734
324.465517,,0.009498624825594522,324.572,0.7739999890327454,0.02316170221265758
324.931034,,0.005685932878593079,325.038,0.7490000128746033,-0.030848967926057753
325.396552,,0.00011027525311107429,325.505,0.7099999785423279,-0.11534049733385106
325.86206899999996,,0.004260894120874902,325.971,0.746999979019165,-0.03424953969002199
326.327586,,0.004834895959747941,326.435,0.7490000128746033,-0.029419630312246696
326.793103,,0.003215108973619314,326.894,0.7570000290870667,-0.01153923099914904
327.258621,,0.0022880913108566376,327.365,0.7789999842643738,0.036808244665912974
327.724138,,0.003553895431307314,327.824,0.7749999761581421,0.02846564312301964
328.189655,,0.0060154688284833405,328.291,0.7789999842643738,0.03749631031625101
328.655172,,0.007428537891049492,328.754,0.7620000243186951,0.0007097690575885399
329.12068999999997,,0.006510287192968122,329.224,0.7720000147819519,0.022673065156323884
329.586207,,0.004234312698865702,329.687,0.753000020980835,-0.018623756362492448
330.051724,,0.003012334826145762,330.154,0.7480000257492065,-0.029502561616818725
330.517241,,0.004300209501475863,330.616,0.7519999742507935,-0.02085786406600252
330.982759,,0.007020860844207408,331.082,0.7940000295639038,0.07049418244488347
331.44827599999996,,0.008648132928882982,331.545,0.753000020980835,-0.01905824327113651
331.913793,,0.0076753012660483975,332.011,0.7710000276565552,0.01985928246913793
332.37931,,0.004658681860655368,332.476,0.7739999890327454,0.02603509671234894
332.844828,,0.001298142255889166,332.941,0.7730000019073486,0.023445369444051616
333.310345,,0.0006997152463970843,333.406,0.7699999809265137,0.016459079043321702
333.77586199999996,,0.00011391516137381376,333.872,0.753000020980835,-0.021054729105604242
334.241379,,0.0031686538381469607,334.339,0.753000020980835,-0.02154493852753296
334.706897,,0.007319801101490347,334.805,0.7990000247955322,0.07818427697001283
335.17241399999995,,0.009339664836740933,335.267,0.7730000019073486,0.021067842881482585
335.637931,,0.008512240931838699,335.729,0.7590000033378601,-0.009874082242139629
336.103448,,0.009277110778689892,336.199,0.7620000243186951,-0.003736201131412277
336.56896600000005,,0.01826838121835822,336.661,0.7689999938011169,0.011170688199850787
337.034483,,0.036561815883985826,337.124,0.8169999718666077,0.11546822026707226
337.5,,0.05606205864334818,337.594,0.7480000257492065,-0.035061060219526284
337.965517,,0.0656441642791468,338.06,0.7710000276565552,0.01492513838125037
338.431034,,0.06053525704734206,338.524,0.7929999828338623,0.06281623424616553
338.89655200000004,,0.044450694086739274,338.99,0.7749999761581421,0.023647369365114718
339.36206899999996,,0.0237310042775843,339.454,0.7739999890327454,0.021600050484133666
339.827586,,0.001782420225218822,339.92,0.7739999890327454,0.021811768545335564
340.293103,,0.02081780471880531,340.385,0.7519999742507935,-0.025832892924083167
340.758621,,0.043161104472349325,340.85,0.7580000162124634,-0.01241025091604883
341.224138,,0.06243890495530606,341.317,0.7490000128746033,-0.03161292160609144
341.68965499999996,,0.07511637152716093,341.776,0.7509999871253967,-0.026807867567298756
342.155172,,0.07912785929062155,342.243,0.753000020980835,-0.02197304969008226
342.62069,,0.07509313224517893,342.705,0.753000020980835,-0.02147966055404974
343.086207,,0.06567257090447101,343.169,0.7480000257492065,-0.03187789219247237
343.551724,,0.05377782790972778,343.639,0.7739999890327454,0.02524949691746769
344.01724099999996,,0.0412431583127752,344.105,0.7490000128746033,-0.02876008837824845
344.48275900000004,,0.02886926232767391,344.568,0.7710000276565552,0.01958751498777317
344.948276,,0.017421222710748988,345.033,0.6060000061988831,-0.3395265653890368
345.413793,,0.008396033353275883,345.498,0.5789999961853027,-0.39805801438028465
345.87931,,0.0033623928666646186,345.964,0.7580000162124634,-0.007867622549914792
346.344828,,0.0019758384286160083,346.428,0.7580000162124634,-0.007734930440594043
346.81034500000004,,0.0011265138860989529,346.894,0.7870000004768372,0.05549970037470983
347.275862,,0.0024522057879545925,347.358,0.8360000252723694,0.16222944851201848
347.741379,,0.008303265217315003,347.823,0.7710000276565552,0.02051732756410315
348.206897,,0.012342473544093392,348.284,0.8149999976158142,0.1162043777555082
348.672414,,0.011688091504204813,348.753,0.753000020980835,-0.01911462193470983
349.13793100000004,,0.008253782628633655,349.221,0.7559999823570251,-0.012885593263391299
349.60344799999996,,0.006376391606493763,349.683,0.7519999742507935,-0.021963709378063263
350.068966,,0.00767237600436465,350.146,0.7739999890327454,0.025556824215677888
350.534483,,0.00966934702289759,350.609,0.7440000176429749,-0.040247111224960386
351.0,,0.009388595692698629,351.075,0.7760000228881836,0.029002623330452372
351.465517,,0.0069847702583637,351.546,0.7680000066757202,0.011097247006056512
351.93103399999995,,0.005316742906897369,352.004,0.7820000052452087,0.0411268525532021
352.396552,,0.006616972979209301,352.469,0.7720000147819519,0.018886808639915435
352.862069,,0.010327429293518466,352.934,0.7480000257492065,-0.03382443141588767
353.32758600000005,,0.014104708478415414,353.399,0.7490000128746033,-0.03202894622255672
353.793103,,0.016212240990842116,353.865,0.7680000066757202,0.009033372180388202
354.258621,,0.016451455017452862,354.333,0.8399999737739563,0.16562652049547333
354.72413800000004,,0.015232946765224846,354.798,0.7760000228881836,0.025995403527614643
355.189655,,0.012783190700619155,355.261,0.75,-0.030771417115976054
355.655172,,0.009614591521810973,355.731,0.7699999809265137,0.012756961899683237
356.12069,,0.007010259980661719,356.191,0.7739999890327454,0.021505903784723442
356.586207,,0.00626084501122995,356.654,0.7770000100135803,0.02815476488364982
357.05172400000004,,0.007480836034268913,357.125,0.7720000147819519,0.01744993216082088
357.517241,,0.009493360697796115,357.587,0.7739999890327454,0.022065830329776468
357.982759,,0.010795504792707487,358.053,0.7789999842643738,0.03328091505140711
358.448276,,0.010522300744600446,358.518,0.7699999809265137,0.014049273185898686
358.913793,,0.00871953834468028,358.983,0.7369999885559082,-0.05742683040929593
359.37931000000003,,0.006042694347127424,359.45,0.7739999890327454,0.02363329871776091
359.844828,,0.0033715644136044576,359.916,0.753000020980835,-0.021649391601209843
360.310345,,0.0015857252385163656,360.38,0.7519999742507935,-0.023353525999525192
360.775862,,0.0012928695041716778,360.839,0.75,-0.027243937765272272
361.241379,,0.0024647424967026077,361.306,0.8029999732971191,0.08867152401770534
361.706897,,0.004366072783209198,361.769,0.8320000171661377,0.15227001378930463
362.172414,,0.005857957056189974,362.239,0.7509999871253967,-0.02382365446921973
362.63793100000004,,0.0057776644804351926,362.702,0.7739999890327454,0.026609030776545528
363.103448,,0.003486074763398571,363.165,0.7519999742507935,-0.021061028591254295
363.568966,,0.00036142058313719185,363.635,0.7670000195503235,0.011808003486982611
364.034483,,0.0037266907824266694,364.101,0.7570000290870667,-0.009865873100110148
364.5,,0.0045610920502027995,364.563,0.7710000276565552,0.020667991863253
364.96551700000003,,0.002598752988565954,365.029,0.7730000019073486,0.024977393682439186
365.431034,,0.00032063278834586206,365.494,0.7519999742507935,-0.02090176554141892
365.896552,,0.0017670824284138995,365.96,0.7649999856948853,0.007216368320535925
366.362069,,0.0006681849252019258,366.424,0.7739999890327454,0.02654870564874548
366.827586,,0.001850753172606674,366.89,0.7739999890327454,0.026210017284682002
367.29310300000003,,0.0033760252931827207,367.35,0.753000020980835,-0.019934431862169515
367.758621,,0.0023667585086091076,367.816,0.7710000276565552,0.018844485092612204
368.224138,,0.00022024586905681554,368.284,0.7739999890327454,0.024912026527756218
368.689655,,0.0017538711245281846,368.746,0.753000020980835,-0.02132638327587476
369.155172,,0.0006488603775361387,369.214,0.7870000004768372,0.05225571980236457
369.62068999999997,,0.002153171961036573,369.676,0.7739999890327454,0.02345062752217484
370.086207,,0.004615192900271797,370.139,0.7720000147819519,0.018633706739254498
370.55172400000004,,0.005738763612750935,370.609,0.7689999938011169,0.011673557953095081
371.017241,,0.005799245266733784,371.075,0.7630000114440918,-0.001775174546153019
371.482759,,0.005329853905025427,371.539,0.7739999890327454,0.021871014929881777
371.948276,,0.004773081806161383,372.004,0.7609999775886536,-0.006703110132627212
372.413793,,0.004732983767773388,372.471,0.7739999890327454,0.02144229585008592
372.87931000000003,,0.005648820431759398,372.929,0.7749999761581421,0.023524080584845133
373.344828,,0.006997951442722975,373.394,0.7720000147819519,0.016974974911185083
373.810345,,0.007306157593866505,373.86,0.7480000257492065,-0.03524195140303241
374.275862,,0.005532085120526005,374.324,0.7519999742507935,-0.02637535070173573
374.741379,,0.0025570744831278367,374.79,0.7739999890327454,0.02178491120172049
375.20689699999997,,0.0007505172673864261,375.259,0.7699999809265137,0.013372956060426334
375.672414,,0.0014874482443294832,375.722,0.7570000290870667,-0.014582000516848142
376.137931,,0.0033138511300696287,376.184,0.7739999890327454,0.02287692257230408
376.603448,,0.003269716731637198,376.653,0.7490000128746033,-0.031124239518851304
377.068966,,0.00017648945501809232,377.124,0.7480000257492065,-0.03280819407385871
377.53448299999997,,0.00396792651998553,377.579,0.753000020980835,-0.02140471191618797
378.0,,0.006138949024285131,378.045,0.7919999957084656,0.06407511157864018
378.465517,,0.005189397061759076,378.51,0.781000018119812,0.04061189909965007
378.931034,,0.0021364305080475926,378.976,0.7739999890327454,0.02583849208135794
379.396552,,0.0015906018933235636,379.443,0.7699999809265137,0.017562201377991155
379.862069,,0.005015374039967074,379.908,0.746999979019165,-0.03216070202909096
380.327586,,0.007105634054732373,380.373,0.7480000257492065,-0.029660465095026352
380.79310300000003,,0.006850081315326557,380.839,0.7739999890327454,0.02723177402706082
381.258621,,0.004268778695002792,381.302,0.7580000162124634,-0.00746003537157143
381.724138,,0.0005665531443545853,381.765,0.765999972820282,0.010049356959439646
382.189655,,0.0029385176713775,382.235,0.7580000162124634,-0.007388781031168256
382.655172,,0.005337024924810944,382.698,0.7739999890327454,0.027370872646545596
383.12068999999997,,0.005639405782571924,383.161,0.7549999952316284,-0.014209591488255652
383.586207,,0.0031646765061340604,383.624,0.7730000019073486,0.02473699086830896
384.051724,,0.0007824829001977613,384.09,0.7570000290870667,-0.010466458903216036
384.517241,,0.0028834028256654147,384.56,0.7680000066757202,0.013086624286167022
384.982759,,0.001059291270316456,385.019,0.7699999809265137,0.01697626933869594
385.44827599999996,,0.0026753386533707284,385.49,0.7580000162124634,-0.00967774600166872
385.913793,,0.00417079595231617,385.949,0.7519999742507935,-0.023289106092698443
386.37931,,0.001963037610576621,386.421,0.765999972820282,0.006658473569314037
386.84482799999995,,0.001284344935212614,386.879,0.7739999890327454,0.0235363097723283
387.310345,,0.002400948184504006,387.35,0.7699999809265137,0.014288675221145509
387.775862,,0.001336295682155126,387.809,0.7710000276565552,0.01596818213041283
388.241379,,0.00046307892740382264,388.276,0.7720000147819519,0.017695866856946442
388.70689699999997,,0.0013791170235342514,388.746,0.7540000081062317,-0.02190944662703216
389.172414,,0.003460510176870626,389.206,0.765999972820282,0.0039172169950804645
389.637931,,0.005082389938053842,389.675,0.7739999890327454,0.021111935545308522
390.103448,,0.005258225893911944,390.136,0.753000020980835,-0.024784017307991145
390.56896600000005,,0.00410611652337059,390.599,0.7739999890327454,0.02091798183141688
391.03448299999997,,0.002510982732038838,391.065,0.7549999952316284,-0.020428762616841376
391.5,,0.0015592920990271017,391.531,0.7720000147819519,0.016752562927807343
391.965517,,0.0015827217005941483,391.997,0.746999979019165,-0.037476265030650144
392.431034,,0.0011775067287169419,392.461,0.7680000066757202,0.008599976600718155
392.896552,,0.0021882568014079625,392.927,0.7599999904632568,-0.008425958900292919
393.36206899999996,,0.009311444266151924,393.392,0.7910000085830688,0.05958409159563175
393.827586,,0.01687163917595752,393.858,0.7739999890327454,0.02307525524859587
394.293103,,0.01936520234110511,394.325,0.7720000147819519,0.0192878097509777
394.75862099999995,,0.014536110377828294,394.791,0.7450000047683716,-0.03894137679916377
395.224138,,0.006207466668523258,395.254,0.7720000147819519,0.020483601423173042
395.68965499999996,,0.0005423664451057933,395.717,0.7390000224113464,-0.05082075405796414
396.155172,,0.00033134653424277886,396.18,0.7720000147819519,0.02163803932299613
396.62069,,3.747999618152652e-05,396.65,0.753000020980835,-0.01923683816935314
397.086207,,0.0027547074169611122,397.121,0.7570000290870667,-0.010062157435257076
397.551724,,0.008558897522906717,397.575,0.7480000257492065,-0.029283539316205184
398.017241,,0.012975694392203845,398.041,0.7889999747276306,0.060342507846912016
398.48275900000004,,0.01264396229787437,398.506,0.7630000114440918,0.0039057025813162465
398.94827599999996,,0.008886380571246695,398.971,0.7730000019073486,0.025799701177424375
399.413793,,0.005550949267085125,399.439,0.7739999890327454,0.027981199749398434
399.87931,,0.004411175985796013,399.905,0.753000020980835,-0.017873421696086304
400.344828,,0.004005411543191599,400.369,0.7509999871253967,-0.022438656462023317
400.810345,,0.002460591047990759,400.834,0.7559999823570251,-0.011853455359542107
401.27586199999996,,0.0001342741241617174,401.295,0.7620000243186951,0.0008185789840570064
401.741379,,0.0023901088150437935,401.765,0.7689999938011169,0.01558839870857244
402.206897,,0.0034072717686490666,402.228,0.7490000128746033,-0.028532684378940503
402.672414,,0.003232347512561414,402.69,0.7739999890327454,0.025333050263085882
403.137931,,0.002153323351458892,403.158,0.7699999809265137,0.015983184593876043
403.60344799999996,,0.00033234501835679244,403.62,0.4020000100135803,-0.786418080201699
404.068966,,0.0017166113228315719,404.087,0.7710000276565552,0.01683429991779627
404.534483,,0.0026984289684060933,404.55,0.7129999995231628,-0.11018146337391768
405.0,,0.0012551833094195664,405.015,0.753000020980835,-0.0236487058207506
405.465517,,0.002476303941189788,405.48,0.7570000290870667,-0.015486925996889691
405.931034,,0.006348768916557041,405.945,0.7739999890327454,0.0210763561328126
406.39655200000004,,0.007857228656452353,406.409,0.7590000033378601,-0.011982140885577156
406.862069,,0.006330662381601258,406.875,0.765999972820282,0.0029968288064794943
407.327586,,0.003146478934201784,407.34,0.7720000147819519,0.015914025170779455
407.793103,,4.714744144596717e-05,407.805,0.7519999742507935,-0.027691289920302446
408.258621,,0.0021305744427191258,408.269,0.7730000019073486,0.018152610932743878
408.72413800000004,,0.0033001389010580808,408.739,0.7720000147819519,0.016189386239162294
409.18965499999996,,0.003640431918460908,409.202,0.746999979019165,-0.03794390085701184
409.655172,,0.00346675082777889,409.665,0.8420000076293945,0.16947018940110992
410.12069,,0.0029701912720780333,410.136,0.7900000214576721,0.05672165884394091
410.586207,,0.0019786434751259494,410.598,0.781000018119812,0.03773769309837337
411.05172400000004,,0.0005320844879533515,411.064,0.753000020980835,-0.02257832637320365
411.51724099999996,,0.0003449583590700665,411.529,0.7609999775886536,-0.004422554332755978
411.982759,,0.0007182521850266138,411.994,0.7739999890327454,0.024645027589786435
412.448276,,0.0036265100093219177,412.454,0.6620000004768372,-0.21862438752471852
412.913793,,0.006163893403323005,412.92,0.8859999775886536,0.27010388360601456
413.37931,,0.005822512591454323,413.385,0.7739999890327454,0.026759832232188533
413.844828,,0.0024988394835580513,413.85,0.7390000224113464,-0.04889596983662499
414.31034500000004,,0.0009121052632002266,414.317,0.7739999890327454,0.027863973318602058
414.775862,,0.0011892847933150693,414.783,0.6439999938011169,-0.2549608461048732
415.241379,,0.00164482905157795,415.247,0.7789999842643738,0.03943382542752191
415.706897,,0.003930040920177438,415.709,0.4269999861717224,-0.7273094611058922
416.172414,,0.002236370848759656,416.177,0.7839999794960022,0.05046481415538168
416.63793100000004,,0.002692140805751992,416.639,0.7480000257492065,-0.02810880099654553
417.103448,,0.006801368993874384,417.105,0.7699999809265137,0.019550116444014397
417.568966,,0.007341420863110218,417.575,0.7950000166893005,0.07362499107351496
418.034483,,0.005312048439763576,418.034,0.7739999890327454,0.027374444742593783
418.5,,0.003173214621498589,418.506,0.7730000019073486,0.02460425612892985
418.96551700000003,,0.0018151432039575726,418.964,0.7850000262260437,0.05008145876650661
419.43103399999995,,0.0007369206757478654,419.436,0.7490000128746033,-0.02907177002858509
419.896552,,0.0002080774948682471,419.894,0.7369999885559082,-0.05597214762118817
420.362069,,0.0007771292105651714,420.361,0.753000020980835,-0.021882813140383213
420.827586,,0.0013061960252126199,420.828,0.7739999890327454,0.023111208985207507
421.293103,,0.0022214330775328912,421.291,0.7519999742507935,-0.025541275813312805
421.758621,,0.002812517346648009,421.76,0.7739999890327454,0.021724311047424734
422.22413800000004,,0.0017135553051115836,422.221,0.7739999890327454,0.021137812844760035
422.689655,,0.001204837059009625,422.691,0.7480000257492065,-0.03599730669115686
423.15517200000005,,0.004063742869280294,423.154,0.7649999856948853,0.000659968113090972
423.62069,,0.0044392668165391695,423.617,0.753000020980835,-0.02574106361368049
424.086207,,0.0018166593212010675,424.082,0.7580000162124634,-0.014974729767813274
424.55172400000004,,0.0012397694093969009,424.546,0.7509999871253967,-0.03021783940299156
425.017241,,0.0009312729540110153,425.012,0.7839999794960022,0.04181999882639538
425.482759,,0.003884009928258903,425.476,0.753000020980835,-0.02544417785222357
425.948276,,0.009740522381989013,425.942,0.7739999890327454,0.020704474171717797
426.413793,,0.011429651871753802,426.409,0.7739999890327454,0.021213161011662828
426.87931000000003,,0.00729619580881202,426.875,0.5730000138282776,-0.4160936283823882
427.344828,,0.001301758412227664,427.34,0.7480000257492065,-0.03415765383296158
427.810345,,0.0008165371771790343,427.806,0.777999997138977,0.031928074372571294
428.275862,,0.00238716450774207,428.269,0.753000020980835,-0.021775516495184766
428.741379,,0.006354663923869621,428.731,0.7739999890327454,0.024752122502081905
429.20689699999997,,0.005448297119087372,429.195,0.7480000257492065,-0.031126596996047067
429.672414,,0.0007480798326380657,429.665,0.7699999809265137,0.017536398574827975
430.137931,,0.006984343492379589,430.125,0.7730000019073486,0.024750123837579564
430.603448,,0.008213361762065082,430.595,0.753000020980835,-0.018220657922318126
431.068966,,0.0048115140082238,431.054,0.7609999775886536,-0.00028397319137602394
431.534483,,0.001445825807887413,431.52,0.7549999952316284,-0.012958697228847483
432.0,,0.001639216048081659,431.986,0.7519999742507935,-0.0192205595346316
432.46551700000003,,0.004439549008498424,432.45,0.75,-0.02343568569258756
432.931034,,0.006327869885681517,432.915,0.7549999952316284,-0.012537176337883526
433.396552,,0.005517382881271897,433.38,0.7549999952316284,-0.012669262852435819
433.862069,,0.0036654086175933716,433.845,0.7739999890327454,0.028459544165793393
434.327586,,0.003373451092622327,434.318,0.7519999742507935,-0.019861898294903417
434.79310300000003,,0.004749190623909433,434.776,0.722000002861023,-0.08572775472265681
435.258621,,0.00522935244501031,435.239,0.7730000019073486,0.024775884281694038
435.724138,,0.0026888987994354357,435.709,0.7559999823570251,-0.012950662320219276
436.189655,,0.0020871062118854172,436.173,0.7070000171661377,-0.12045590671693016
436.655172,,0.006130365370426955,436.635,0.753000020980835,-0.021030343204134355
437.12068999999997,,0.006808758801370548,437.1,0.7749999761581421,0.026091843984412562
437.586207,,0.004083057388739898,437.571,0.75,-0.029172326018614914
438.051724,,0.0019530187422318508,438.036,0.7739999890327454,0.022351425108747474
438.517241,,0.007407328499498436,438.496,0.7559999823570251,-0.017570517657494747
438.982759,,0.024719343850105983,438.961,0.7559999823570251,-0.01819781059544499
439.448276,,0.04887732055916165,439.428,0.753000020980835,-0.025263127422294498
439.913793,,0.06690363137746887,439.894,0.7979999780654907,0.07236149649700581
440.37931000000003,,0.06832151158188024,440.358,0.7490000128746033,-0.03467813208998279
440.844828,,0.053730137050097555,440.824,0.7739999890327454,0.019639290430420144
441.310345,,0.03193765746048729,441.284,0.7549999952316284,-0.021762083711918487
441.775862,,0.010349685258552831,441.754,0.7519999742507935,-0.02816310503238512
442.241379,,0.009780596893169924,442.214,0.7820000052452087,0.03746984793578106
442.70689699999997,,0.029964811938682886,442.684,0.7620000243186951,-0.005698448662125601
443.172414,,0.04943920914182128,443.147,0.7730000019073486,0.018790637478397442
443.637931,,0.06431090796741593,443.609,0.753000020980835,-0.02415488546810256
444.103448,,0.07049063083617492,444.075,0.7519999742507935,-0.02562212401387506
444.568966,,0.06698466803384293,444.545,0.7599999904632568,-0.007418922338861034
445.03448299999997,,0.05691227218538535,445.004,0.753000020980835,-0.02185612932314883
445.5,,0.04545108833109113,445.476,0.7739999890327454,0.02472372704729465
445.965517,,0.03623700518244919,445.934,0.7720000147819519,0.021185331153842715
446.431034,,0.02938808854233663,446.399,0.7689999938011169,0.015434115005565711
446.896552,,0.022901495572223797,446.865,0.7480000257492065,-0.029591230542344717
447.36206899999996,,0.015601394235365076,447.332,0.5960000157356262,-0.3601041978393572
447.827586,,0.008307187108198028,447.797,0.753000020980835,-0.017521773222504262
448.29310300000003,,0.00231617486656483,448.265,0.7570000290870667,-0.0083930819441527
448.758621,,0.0023755220869346822,448.727,0.7739999890327454,0.028928387730733408
449.224138,,0.006647947559518952,449.191,0.7509999871253967,-0.02103397660439883
449.689655,,0.010452916351228053,449.661,0.7630000114440918,0.0051136240743450525
450.155172,,0.012477037544750826,450.124,0.7730000019073486,0.026760971401488556
450.62068999999997,,0.01192599638715793,450.587,0.7620000243186951,0.0025182746141561687
451.086207,,0.00997653550629538,451.052,0.7400000095367432,-0.04582060677942037
451.551724,,0.008848520842075595,451.52,0.7480000257492065,-0.02891968803342592
452.017241,,0.009499406342381793,451.986,0.7739999890327454,0.027093162395226612
452.482759,,0.010650435679786536,452.45,0.765999972820282,0.008948194314905115
452.94827599999996,,0.010350892798491308,452.916,0.7720000147819519,0.02124235813400437
453.413793,,0.008284998840701522,453.38,0.7739999890327454,0.024783080353435707
453.87931,,0.0061106311789404155,453.839,0.7710000276565552,0.01741657163175062
454.344828,,0.005614432152393567,454.309,0.7609999775886536,-0.005190191176660738
454.810345,,0.007041740295095511,454.771,0.7739999890327454,0.022346980584210765
455.27586199999996,,0.009229877737599073,455.239,0.7689999938011169,0.010727072973760169
455.741379,,0.010774851807238094,455.702,0.7549999952316284,-0.02042046027529239
456.206897,,0.010853977786494308,456.165,0.7519999742507935,-0.02750391939530192
456.672414,,0.009419232530493853,456.635,0.7739999890327454,0.01999445423293039
457.137931,,0.007088912666875988,457.101,0.746999979019165,-0.03913217020392026
457.603448,,0.004882189912320434,457.563,0.777999997138977,0.02824102271457372
458.06896600000005,,0.003793639466260687,458.029,0.7730000019073486,0.017326609635767765
458.53448299999997,,0.004157170647131173,458.495,0.7559999823570251,-0.019586949252523012
459.0,,0.005084596693931823,458.96,0.8180000185966492,0.11575451404898193
459.465517,,0.004983206836745407,459.425,0.753000020980835,-0.025457942350602784
459.931034,,0.003386054235011229,459.89,0.7760000228881836,0.02517262396422993
460.39655200000004,,0.0020031634980113506,460.35,0.7519999742507935,-0.02648790947200104
460.86206899999996,,0.003041685775959915,460.816,0.7739999890327454,0.02215628952898955
461.327586,,0.006455264078078476,461.28,0.7609999775886536,-0.005386783588012889
461.793103,,0.009552543640475496,461.749,0.7739999890327454,0.023757415075538045
462.258621,,0.009550213302632485,462.213,0.7699999809265137,0.01588241343534209
462.724138,,0.006330449425568176,462.675,0.7689999938011169,0.014536159745258494
463.18965499999996,,0.0026069354353242874,463.139,0.7730000019073486,0.024050841007615714
463.655172,,0.001252663131607048,463.609,0.8019999861717224,0.08797598772700485
464.12069,,0.0024434480041898143,464.075,0.7680000066757202,0.014568653012053717
464.58620699999994,,0.0037739402543614043,464.539,0.765999972820282,0.010779347888964182
465.051724,,0.0031717137537069385,465.005,0.7570000290870667,-0.008377093649128706
465.517241,,0.000961493080725838,465.465,0.7699999809265137,0.02026581713157771
465.98275900000004,,0.0011905539044335571,465.931,0.765999972820282,0.011731460437712895
466.448276,,0.002424359275496212,466.395,0.7739999890327454,0.029195231567231392
466.913793,,0.003000801488010369,466.861,0.753000020980835,-0.01666893796160939
467.37931,,0.0031290186041038944,467.328,0.753000020980835,-0.016926154593017224
467.844828,,0.0026543604517820303,467.793,0.7630000114440918,0.004465836444099236
468.31034500000004,,0.0018986508150789865,468.254,0.7480000257492065,-0.028733794826840794
468.77586199999996,,0.0016846705268709428,468.724,0.7739999890327454,0.027281298638039714
469.241379,,0.0021206659879213106,469.187,0.6449999809265137,-0.2544867763958212
469.706897,,0.0022820619462907417,469.65,0.7710000276565552,0.01922803673710699
470.172414,,0.0015442670310450346,470.116,0.7739999890327454,0.02492251229137955
470.63793100000004,,0.00030709915625518427,470.579,0.7720000147819519,0.019705630505622268
471.10344799999996,,0.0010056187358730936,471.045,0.7490000128746033,-0.031255473773821846
471.568966,,0.002557446344542154,471.509,0.7490000128746033,-0.0320751122880189
472.034483,,0.004108790078107581,471.975,0.7749999761581421,0.02380763384672005
472.5,,0.004426494330404309,472.439,0.753000020980835,-0.024803180505305444
472.965517,,0.0024763337774783407,472.905,0.7730000019073486,0.018191415357653083
473.43103399999995,,0.0012916422677256279,473.37,0.7730000019073486,0.017733402896324454
473.89655200000004,,0.005260579092827561,473.835,0.753000020980835,-0.026163163837284144
474.362069,,0.007876645464940091,474.306,0.7739999890327454,0.019408771201755673
474.827586,,0.008478782744837217,474.769,0.7710000276565552,0.012843207143712563
475.293103,,0.007433171227082138,475.232,0.7630000114440918,-0.00446465666860671
475.758621,,0.005655908747752714,475.694,0.7630000114440918,-0.004196188690939807
476.22413800000004,,0.0037489132994307384,476.165,0.7519999742507935,-0.02775429098287801
476.689655,,0.0016640719119956143,476.628,0.7749999761581421,0.022888119672955252
477.155172,,0.0004954206985942745,477.093,0.7599999904632568,-0.009147554811217946
477.62069,,0.00173364563462862,477.556,0.781000018119812,0.037339440676376706
478.086207,,0.0011126527489726224,478.022,0.7739999890327454,0.0228934164244793
478.55172400000004,,0.0005045626556470977,478.487,0.6499999761581421,-0.24641194143902004
479.01724099999996,,0.0007461582606073557,478.953,0.753000020980835,-0.021149819270607047
479.482759,,0.0015272406826792116,479.417,0.8949999809265137,0.28907149684162753
479.948276,,0.004469996683870222,479.883,0.7710000276565552,0.019743391220601564
480.413793,,0.005151150161265413,480.348,0.7720000147819519,0.02269026656608934
480.87931000000003,,0.0028497920385236013,480.813,0.7720000147819519,0.02337661995034646
481.344828,,0.00043512829482963495,481.28,0.7739999890327454,0.02831724122326397
481.810345,,0.0025044780487586075,481.743,0.7480000257492065,-0.027865594985880447
482.275862,,0.0029431092794098205,482.206,0.7730000019073486,0.026926317830244052
482.74137900000005,,0.0026190717271884945,482.676,0.7549999952316284,-0.012109961733682598
483.206897,,0.0024353193867406174,483.136,0.75,-0.02297611473984541
483.672414,,0.0030819311408309823,483.606,0.7739999890327454,0.029185052549577758
484.13793100000004,,0.004960504246147173,484.064,0.7739999890327454,0.028909641513815906
484.603448,,0.007387306771611695,484.531,0.7730000019073486,0.026315226048149582
485.068966,,0.00846576633235408,484.997,0.7680000066757202,0.014878177608641598
485.534483,,0.0067673735684934235,485.461,0.7699999809265137,0.01857983654319836
486.0,,0.002985142432282002,485.927,0.7509999871253967,-0.023562361724259857
486.46551700000003,,0.0006748384130362922,486.395,0.75,-0.02655913281187188
486.931034,,0.0024709320346254383,486.86,0.753000020980835,-0.02088697776774339
487.396552,,0.00216967245746361,487.325,0.7739999890327454,0.02398193936890658
487.862069,,0.0008471097382193065,487.784,0.7699999809265137,0.014393666742024781
488.327586,,0.00025907762468512587,488.254,0.7820000052452087,0.03970010647841849
488.79310300000003,,0.0016263293016879816,488.717,0.7710000276565552,0.014959745069937736
489.258621,,0.00420995791651379,489.184,0.7739999890327454,0.020806174882584495
489.724138,,0.005708338977320268,489.647,0.7480000257492065,-0.03642157971898133
490.189655,,0.004880377439385669,490.114,0.7879999876022339,0.05026566156823032
490.655172,,0.003169890626139079,490.578,0.7710000276565552,0.012909294192736393
491.12069,,0.002786816678777592,491.044,0.7519999742507935,-0.028655614233748128
491.586207,,0.0036850002334774625,491.51,0.7680000066757202,0.006186048727466796
492.05172400000004,,0.003675057593507636,491.976,0.7490000128746033,-0.035070769022436166
492.517241,,0.0014803020124488865,492.435,0.7639999985694885,-0.0021033375443385107
492.982759,,0.0015602356853720405,492.901,0.7699999809265137,0.011398251671995305
493.448276,,0.003243357484536671,493.365,0.7730000019073486,0.01849366968315027
493.913793,,0.002989540431422598,493.831,0.75,-0.0309432258234619
494.37931000000003,,0.0019358081890649516,494.298,0.753000020980835,-0.02364366633728662
494.844828,,0.001222534064091361,494.761,0.753000020980835,-0.02281205231782059
495.310345,,0.0010072784917292848,495.224,0.7699999809265137,0.01509967902382317
495.775862,,0.0009055572326845589,495.694,0.7710000276565552,0.018170428249657207
496.241379,,0.0006523397379175545,496.155,0.5299999713897705,-0.5060062697893251
496.70689699999997,,0.000263191106139614,496.624,0.7720000147819519,0.02205958222173545
497.172414,,3.391281048005644e-05,497.089,0.75,-0.025104322799911136
497.637931,,9.13620345393459e-06,497.552,0.777999997138977,0.03657922483422052
498.103448,,0.00016127211661226838,498.018,0.7720000147819519,0.024083730603043627
498.568966,,0.00014788846083833992,498.483,0.753000020980835,-0.016856695215587504
499.03448299999997,,0.001312109117247648,498.95,0.7710000276565552,0.022676181279262783
499.5,,0.0028583307160904544,499.41,0.7570000290870667,-0.007654087250481497
499.96551700000003,,0.003814838545441534,499.875,0.7739999890327454,0.029402127606639707
500.431034,,0.003454628521343541,500.34,0.7739999890327454,0.02926941394184181
500.89655200000004,,0.0016074198305516291,500.806,0.75,-0.023299231670878284
501.362069,,0.0012545148725155047,501.273,0.49399998784065247,-0.581460418881439
501.827586,,0.003917737753119258,501.735,0.7480000257492065,-0.028648788456033338
502.293103,,0.004844531631184447,502.206,0.7519999742507935,-0.020616075994741447
502.758621,,0.003254848316531505,502.668,0.8029999732971191,0.08972357548256164
503.224138,,2.3861436683492664e-05,503.132,0.7440000176429749,-0.039653326587378586
503.68965499999996,,0.0028370841127977643,503.594,0.7549999952316284,-0.01656572854310415
504.15517200000005,,0.003104313801915692,504.06,0.7620000243186951,-0.0022073014431595473
504.62068999999997,,0.00047915270838688647,504.525,0.734000027179718,-0.0640893031318883
505.08620699999994,,0.003115795691853659,504.991,0.7590000033378601,-0.010464354041439
505.55172400000004,,0.005017808589101043,505.457,0.7620000243186951,-0.0047050101203229685
506.017241,,0.004331790421904723,505.923,0.7730000019073486,0.018572329881364636
506.48275899999993,,0.002651867930043658,506.388,0.7519999742507935,-0.02775735435597246
506.948276,,0.0019333835204051856,506.853,0.777999997138977,0.028436672654200256
507.413793,,0.002214388040365476,507.321,0.7739999890327454,0.01941227023348216
507.87931,,0.002180697098298681,507.779,0.7870000004768372,0.04757583712430169
508.344828,,0.0013082073744639588,508.247,0.7730000019073486,0.01707145195436695
508.810345,,0.00011679104717052374,508.71,0.7570000290870667,-0.017635369415574885
509.27586199999996,,0.001304595445123559,509.18,0.765999972820282,0.002273036048805282
509.74137900000005,,0.0032762756521055,509.643,0.8420000076293945,0.16829231087035315
510.20689699999997,,0.004922842391083511,510.109,0.7559999823570251,-0.018500924411289164
510.67241399999995,,0.004454641005277848,510.572,0.7559999823570251,-0.01782100570708898
511.13793100000004,,0.001773439811546148,511.038,0.765999972820282,0.004732179804691386
511.603448,,0.0007066226252733392,511.503,0.7710000276565552,0.016455896846972923
512.0689659999999,,0.0008271093763290826,511.968,0.75,-0.028427323752163246
512.534483,,0.0007644332360087426,512.436,0.7279999852180481,-0.07547872934209299
513.0,,0.0017614107422791387,512.894,0.7609999775886536,-0.00272136694440652
513.465517,,0.0010670729388014238,513.359,0.777999997138977,0.03513569650025922
513.931034,,0.0005611161034990943,513.824,0.75,-0.02511252123231625
514.396552,,0.002273480295745401,514.291,0.7490000128746033,-0.026626678745980965
514.862069,,0.004232553158707804,514.754,0.7870000004768372,0.0567171696128161
515.327586,,0.006582916968021592,515.224,0.753000020980835,-0.016926682339600343
515.793103,,0.008193028623096354,515.687,0.7760000228881836,0.03347457230577683
516.258621,,0.007409525553389156,516.155,0.7710000276565552,0.022727435429598687
516.724138,,0.004192477652696789,516.617,0.7739999890327454,0.029259436228112935
517.189655,,0.000877492072198063,517.083,0.753000020980835,-0.01664582503307031
517.655172,,0.0002115599285846433,517.546,0.7480000257492065,-0.027838374571468694
518.1206900000001,,0.0025757398928595286,518.012,0.8330000042915344,0.15691230055453118
518.5862070000001,,0.005468195757642984,518.476,0.7570000290870667,-0.009219417745055383
519.051724,,0.005848082767926185,518.942,0.7749999761581421,0.029337906592458562
519.517241,,0.0027729208514469896,519.407,0.7739999890327454,0.026416594213776737
519.982759,,0.0022024923282453657,519.872,0.7250000238418579,-0.08114225372167638
520.448276,,0.006578003482346682,520.339,0.7710000276565552,0.018231592376550365
520.9137929999999,,0.008555288989093085,520.805,0.7480000257492065,-0.03273425391111271
521.37931,,0.007944161281736924,521.266,0.7570000290870667,-0.013970000707435561
521.844828,,0.006271840692490742,521.735,0.7739999890327454,0.022262481990192175
522.310345,,0.00556683276199392,522.198,0.7480000257492065,-0.0351229667610664
522.7758620000001,,0.006188532474845383,522.661,0.8510000109672546,0.18862470220847422
523.241379,,0.006207412499582112,523.124,0.75,-0.03196345505636659
523.7068969999999,,0.003853081713146922,523.594,0.7739999890327454,0.01990299863095616
524.172414,,0.0002458156706523363,524.06,0.7820000052452087,0.03704617346271038
524.637931,,0.0015460738060777068,524.525,0.753000020980835,-0.026277114058952993
525.103448,,0.00030706212442362075,524.99,0.777999997138977,0.028193591826277783
525.568966,,0.0017174126157812062,525.455,0.7739999890327454,0.019630310891933785
526.034483,,0.00185585981039447,525.92,0.7730000019073486,0.01774514906027798
526.5,,0.0010397671755375463,526.38,0.75,-0.03193802630537799
526.9655170000001,,0.003533235041226483,526.845,0.75,-0.031394099997373824
527.4310340000001,,0.011918023848233206,527.317,0.7689999938011169,0.0106454669202884
527.8965519999999,,0.022727871320852175,527.776,0.7739999890327454,0.02226630589320276
528.362069,,0.02831044965211024,528.239,0.7720000147819519,0.018697331646896964
528.827586,,0.023927612013293225,528.709,0.7480000257492065,-0.03276570772174756
529.293103,,0.012591512121408946,529.173,0.7739999890327454,0.024714393957893627
529.7586210000001,,0.0020469839756703484,529.635,0.75,-0.02675227279350873
530.224138,,0.0027066193479578803,530.1,0.7519999742507935,-0.02161368019412747
530.689655,,0.0030557469053305816,530.57,0.753000020980835,-0.01871695251873133
531.155172,,0.0034876116640928144,531.029,0.746999979019165,-0.031155847098155935
531.62069,,0.006230474080787078,531.494,0.7739999890327454,0.028197385209778963
532.086207,,0.009731366908704544,531.96,0.7760000228881836,0.032966322926897204
532.5517239999999,,0.011557643618870905,532.425,0.746999979019165,-0.02993315821232177
533.017241,,0.011623591097335087,532.891,0.6520000100135803,-0.23676436824522462
533.482759,,0.01195184470482681,533.358,0.7490000128746033,-0.025442061353057873
533.9482760000001,,0.01358101850637368,533.824,0.7820000052452087,0.04630288151600379
534.413793,,0.014912301843709896,534.287,0.7570000290870667,-0.008449767527451732
534.87931,,0.013925848425426785,534.749,0.7549999952316284,-0.013220704073166828
535.344828,,0.01115724433118977,535.217,0.5139999985694885,-0.5388078151138018
535.810345,,0.00902370985391507,535.679,0.7720000147819519,0.02264448413863881
536.275862,,0.008464835489387899,536.147,0.7720000147819519,0.021923906424798145
536.7413789999999,,0.007903929676767691,536.609,0.7689999938011169,0.01461333462517853
537.206897,,0.005917132803509542,537.075,0.7490000128746033,-0.029764625257406883
537.672414,,0.003394335319112941,537.546,0.7490000128746033,-0.03057608774665707
538.137931,,0.002036190903852081,538.004,0.7540000081062317,-0.020476212270446707
538.6034480000001,,0.0017508893474587738,538.476,0.7730000019073486,0.020167511676682574
539.0689659999999,,0.0009232819435578797,538.934,0.7739999890327454,0.02166176311167687
539.5344829999999,,0.0011046484005257078,539.399,0.765999972820282,0.0036350743111480096
540.0,,0.0031552168492510026,539.865,0.746999979019165,-0.03825282181267009
540.465517,,0.003956627064118663,540.332,0.7720000147819519,0.015837707055183815
540.931034,,0.0036904217249150405,540.798,0.7559999823570251,-0.019267854697221608
541.396552,,0.0032757293188247112,541.261,0.781000018119812,0.03508695513203523
541.862069,,0.0028040245824203585,541.724,0.753000020980835,-0.025888611147335164
542.327586,,0.0015609756059588864,542.191,0.75,-0.03226238945250114
542.7931030000001,,0.0004243650519043181,542.661,0.7760000228881836,0.02467422999258612
543.258621,,0.0017274833722503969,543.124,0.796999990940094,0.0708383778626613
543.7241379999999,,0.0010680424451728783,543.587,0.7730000019073486,0.01907158477036341
544.189655,,0.0008955770921259475,544.053,0.7480000257492065,-0.034783407418192004
544.655172,,0.002145179701089818,544.518,0.7509999871253967,-0.027566705885228335
545.12069,,0.0017634519922965055,544.983,0.7739999890327454,0.02327138814398712
545.5862070000001,,0.0011476617648586772,545.45,0.7559999823570251,-0.015188955746904632
546.051724,,0.0023405787118488197,545.909,0.8029999732971191,0.08796640975888373
546.517241,,0.005429972912858018,546.381,0.7730000019073486,0.023346977355875473
546.982759,,0.008186976888605204,546.839,0.7699999809265137,0.017509237311596402
547.448276,,0.008594355229955873,547.309,0.7699999809265137,0.018143971038617365
547.9137929999999,,0.007374503592669172,547.771,0.7739999890327454,0.027410800465004728
548.3793099999999,,0.007217398458016048,548.239,0.7710000276565552,0.021328377405686588
548.844828,,0.009316411848882464,548.702,0.75,-0.024082281674867805
549.310345,,0.011504579302096443,549.169,0.7480000257492065,-0.02822141723502576
549.775862,,0.010512404656910477,549.631,0.7480000257492065,-0.028132471873423187
550.241379,,0.005667149931797708,550.097,0.7730000019073486,0.02629220940271473
550.706897,,0.00033441541407017833,550.56,0.7409999966621399,-0.04359384182004611
551.172414,,0.004192138562556991,551.025,0.7559999823570251,-0.011205345222024059
551.637931,,0.004939093153353126,551.491,0.7710000276565552,0.021071572833253116
552.103448,,0.004152553590258995,551.956,0.7630000114440918,0.003141776321153222
552.568966,,0.003967115815097866,552.42,0.7720000147819519,0.0221678225914774
553.034483,,0.005257079121601653,552.886,0.7480000257492065,-0.030764418891163013
553.5,,0.007319806372042719,553.35,0.7599999904632568,-0.005308375176793133
553.965517,,0.008818500351944704,553.816,0.6549999713897705,-0.2347776397641796
554.4310340000001,,0.009059813623462086,554.284,0.7950000166893005,0.0695200061706394
554.896552,,0.008504923170712383,554.747,0.7730000019073486,0.020899061182103797
555.3620689999999,,0.007989134950976404,555.209,0.753000020980835,-0.02331909771997798
555.827586,,0.007539218815720225,555.68,0.7590000033378601,-0.010828424421058967
556.293103,,0.0062646166143410795,556.143,0.7730000019073486,0.0191731311697164
556.758621,,0.003537509964330369,556.606,0.7480000257492065,-0.035695934854161886
557.224138,,0.0001268438497666615,557.071,0.7480000257492065,-0.03599116220467977
557.689655,,0.002062894807383283,557.535,0.7490000128746033,-0.03399230067671141
558.155172,,0.0016060876228830934,558.001,0.7609999775886536,-0.007907994898169204
558.6206900000001,,0.0009792812964724506,558.466,0.7710000276565552,0.013941062213023232
559.0862070000001,,0.0035507651824977183,558.931,0.5370000004768372,-0.49568530441548647
559.5517239999999,,0.004301306461856494,559.398,0.7760000228881836,0.025294215743089588
560.017241,,0.0032205384553432082,559.864,0.7559999823570251,-0.017897046662298546
560.482759,,0.00150454304702234,560.329,0.75,-0.03049626591772382
560.948276,,5.1686241457606635e-05,560.795,0.7730000019073486,0.02016094282433288
561.413793,,0.0009456742016091817,561.257,0.7329999804496765,-0.06637845201859142
561.87931,,0.0013791396887469977,561.72,0.7559999823570251,-0.015624179844683917
562.344828,,0.0010539328126562989,562.191,0.7559999823570251,-0.014960102550989429
562.8103450000001,,0.0002681360874082304,562.653,0.7739999890327454,0.024918631801769883
563.275862,,0.00010060151120215612,563.121,0.7689999938011169,0.01466753656585358
563.7413789999999,,0.00165670541970885,563.584,0.75,-0.026125454169816254
564.206897,,0.004662665736150648,564.049,0.7570000290870667,-0.01033337369376816
564.672414,,0.006948456098657732,564.513,0.75,-0.025119035148393466
565.137931,,0.006184441730891534,564.978,0.7559999823570251,-0.011672771869816015
565.603448,,0.0025657618596706374,565.443,0.7559999823570251,-0.011399939088800961
566.068966,,0.000995138898637369,565.908,0.7789999842643738,0.038872864492299875
566.534483,,0.0019095444213142376,566.373,0.7739999890327454,0.02803075119698259
567.0,,0.000349527095946631,566.838,0.7739999890327454,0.02796829597021514
567.465517,,0.0019299013158575328,567.299,0.777999997138977,0.036509253626817506
567.931034,,0.004020537037280857,567.768,0.7490000128746033,-0.0269510121968837
568.396552,,0.005864963187239212,568.232,0.7699999809265137,0.01842364387587206
568.862069,,0.006780460938877825,568.694,0.7639999985694885,0.00488953295362303
569.327586,,0.005859147585502008,569.162,0.753000020980835,-0.01960865781031301
569.793103,,0.003830150131476337,569.624,0.7559999823570251,-0.013660538803419891
570.2586210000001,,0.0029496036312863724,570.09,0.7699999809265137,0.01621662065934865
570.724138,,0.004488618427469339,570.56,0.7720000147819519,0.019933849704116983
571.189655,,0.007135958296082675,571.019,0.7739999890327454,0.023654872587694577
571.655172,,0.008282099999597718,571.491,0.7609999775886536,-0.00528046729186636
572.12069,,0.006513216125584168,571.949,0.7699999809265137,0.013756316666695936
572.586207,,0.0027416622440555446,572.414,0.7820000052452087,0.03938859933683872
573.051724,,0.0008157395806788832,572.879,0.8159999847412109,0.1130272906306635
573.517241,,0.0026438754226271984,573.346,0.75,-0.03110936611298421
573.982759,,0.0029924810331466017,573.811,0.7599999904632568,-0.009570723063956458
574.4482760000001,,0.0030594084981760317,574.28,0.777999997138977,0.02950173770323032
574.913793,,0.003424630171905217,574.742,0.7739999890327454,0.02075312748584331
575.37931,,0.0035966542372553767,575.21,0.7699999809265137,0.01211437013248489
575.844828,,0.002938979953794564,575.672,0.7580000162124634,-0.013846966252592758
576.310345,,0.0016610014698577244,576.14,0.6110000014305115,-0.3338289345124576
576.775862,,0.0007990556304436685,576.602,0.75,-0.030632158187699498
577.241379,,0.00119050879117994,577.067,0.7509999871253967,-0.02801284986655389
577.706897,,0.002397343459795351,577.531,0.7519999742507935,-0.025328248995856346
578.172414,,0.002945680274186298,577.997,0.7850000262260437,0.047123813364612105
578.6379310000001,,0.0019975675664350317,578.462,0.7739999890327454,0.023749799830877362
579.1034480000001,,0.0005300566687702296,578.928,0.7480000257492065,-0.032287325762946344
579.5689659999999,,0.00039762628876751683,579.395,0.7730000019073486,0.022783870039290634
580.034483,,0.00230158758898089,579.861,0.7739999890327454,0.02554702707887758
580.5,,0.004986096872194953,580.32,0.7749999761581421,0.02827258504372178
580.965517,,0.006438485073499451,580.786,0.7480000257492065,-0.030058437460504364
581.431034,,0.005785830240614341,581.254,0.7519999742507935,-0.020921823988664788
581.896552,,0.004050860752019673,581.716,0.777999997138977,0.03606245033240477
582.362069,,0.0030262565364099947,582.184,0.7839999794960022,0.049381922257255295
582.827586,,0.003352224520719419,582.646,0.7739999890327454,0.027744530637676734
583.2931030000001,,0.003907058822887486,583.113,0.7490000128746033,-0.02667620061904511
583.758621,,0.003326269569018511,583.577,0.753000020980835,-0.018022055055787817
584.2241379999999,,0.0018616193511535302,584.043,0.7749999761581421,0.029743824328280613
584.689655,,0.0012780855774704987,584.51,0.8429999947547913,0.17763117494090871
585.155172,,0.002963507804652484,584.976,0.7730000019073486,0.024778020157299685
585.6206900000001,,0.006472533174653732,585.435,0.7580000162124634,-0.008327396122610551
586.0862070000001,,0.009835956098020446,585.901,0.777999997138977,0.034753182383530715
586.551724,,0.010983311406157678,586.365,0.7699999809265137,0.016780074609957195
587.017241,,0.00907291970936133,586.831,0.7689999938011169,0.014022481176933712
587.482759,,0.00503738214580109,587.299,0.7720000147819519,0.01996168660420224
587.948276,,0.0009790019737511203,587.761,0.753000020980835,-0.022029562089782243
588.4137929999999,,0.0014143643309977335,588.224,0.7649999856948853,0.003534603121100277
588.87931,,0.002211535585279144,588.694,0.6290000081062317,-0.2933088168259926
589.344828,,0.0030223363163692117,589.155,0.75,-0.03019310270428297
589.810345,,0.005366898800446872,589.624,0.7739999890327454,0.02165774007591044
590.2758620000001,,0.008995407934031445,590.09,0.9110000133514404,0.31977934115793655
590.741379,,0.011493931923334576,590.553,0.777999997138977,0.02976284961524596
591.2068969999999,,0.009907489657530615,591.018,0.7739999890327454,0.020894703668197744
591.672414,,0.003682219295930804,591.484,0.753000020980835,-0.024906283244538557
592.137931,,0.0038153949271187856,591.95,0.7820000052452087,0.038330269606443194
592.603448,,0.007558126409370342,592.409,0.7699999809265137,0.012346040894477831
593.068966,,0.005257147909826285,592.875,0.753000020980835,-0.024432606557443216
593.534483,,0.0006128195063895203,593.34,0.7620000243186951,-0.0044763876067500635
594.0,,0.005204826300651196,593.806,0.7730000019073486,0.019916731753933787
594.4655170000001,,0.005569742562019762,594.269,0.7549999952316284,-0.018804064289088762
594.9310340000001,,0.003218587441025032,594.738,0.777999997138977,0.0318515863797808
595.3965519999999,,0.0035334952025581866,595.199,0.7739999890327454,0.02371935966006224
595.862069,,0.012229380322950553,595.668,0.746999979019165,-0.03450401270695693
596.327586,,0.030367551929052633,596.132,0.7749999761581421,0.027097383294203484
596.793103,,0.051690148035695584,596.595,0.7490000128746033,-0.02896722273932446
597.2586210000001,,0.06581725497945697,597.06,0.7739999890327454,0.026042610793008226
597.724138,,0.0654330482997369,597.528,0.7519999742507935,-0.021396952282179978
598.189655,,0.05078807783549315,597.993,0.7649999856948853,0.007348471857980947
598.655172,,0.02769882793514234,598.458,0.765999972820282,0.009869644869311734
599.12069,,0.002437277758818722,598.924,0.7480000257492065,-0.02909409741364205
599.586207,,0.02082929088238584,599.391,0.7310000061988831,-0.06597854327038016
600.0517239999999,,0.03906403316587894,599.849,0.7480000257492065,-0.028893139525136904
600.517241,,0.04933770173478929,600.317,0.7549999952316284,-0.013699451656099674
600.982759,,0.05001085301803897,600.783,0.7649999856948853,0.007927841301031215
601.448276,,0.0424624415607778,601.247,0.7559999823570251,-0.011936178624916773
601.913793,,0.030829360466087027,601.709,0.765999972820282,0.009505150679850534
602.37931,,0.019724210337999086,602.18,0.765999972820282,0.009081889785600305
602.844828,,0.012001588008378337,602.642,0.7889999747276306,0.05870303870112415
603.310345,,0.008220257144837668,603.108,0.765999972820282,0.008057085270428421
603.775862,,0.0075347178011505546,603.572,0.7940000295639038,0.06848951704532932
604.2413789999999,,0.008623765429820816,604.037,0.753000020980835,-0.021420796966453888
604.706897,,0.010020091189307117,604.502,0.753000020980835,-0.022005684031021405
605.172414,,0.01040494247173683,604.968,0.7739999890327454,0.023178951356634163
605.637931,,0.009236246476267721,605.432,0.7710000276565552,0.016111822157864716
606.1034480000001,,0.007087961813108424,605.897,0.7699999809265137,0.013453592774263123
606.5689659999999,,0.0050863792505542625,606.362,0.7710000276565552,0.015218837106736643
607.0344829999999,,0.003936375791936046,606.828,0.7519999742507935,-0.02651124906478514
607.5,,0.0036053505035815473,607.291,0.7730000019073486,0.01899225823776803
607.965517,,0.0037896320865036972,607.761,0.7820000052452087,0.038447204528501436
608.431034,,0.004204511289267564,608.221,0.746999979019165,-0.03785876497417347
608.896552,,0.004393594810890008,608.684,0.7739999890327454,0.02101202702020381
609.362069,,0.00395191743187434,609.155,0.7739999890327454,0.021158397578986448
609.827586,,0.003213957942304335,609.617,0.7699999809265137,0.012685090312118787
610.293103,,0.002980792878056456,610.083,0.7490000128746033,-0.03273824052156016
610.758621,,0.0031520034557800613,610.546,0.7720000147819519,0.01777537309447769
611.2241379999999,,0.0024735440115466224,611.012,0.7450000047683716,-0.04057939904859937
611.689655,,0.0003754283163837646,611.477,0.746999979019165,-0.0357039943390863
612.155172,,0.0017164717530136955,611.943,0.7739999890327454,0.02367158609143221
612.62069,,0.00204572127253533,612.409,0.753000020980835,-0.021509969624231007
613.0862070000001,,0.0010548114865264217,612.875,0.7760000228881836,0.029170070091217304
613.551724,,0.0008225863771841959,613.34,0.7710000276565552,0.018832375090582693
614.017241,,0.0019947446138098694,613.806,0.7480000257492065,-0.030753310549355165
614.4827590000001,,0.002880272501247543,614.269,0.7730000019073486,0.02418779516726514
614.948276,,0.0021857665720239282,614.731,0.7739999890327454,0.02677947320245638
615.4137929999999,,0.0011976462213534364,615.199,0.7739999890327454,0.02711896165112587
615.8793099999999,,0.002083115528338935,615.661,0.7490000128746033,-0.027091752255842923
616.344828,,0.004897567651473327,616.124,0.7739999890327454,0.027537910757074506
616.810345,,0.007590406751975973,616.594,0.7689999938011169,0.016711822542300785
617.275862,,0.008640420826825597,617.06,0.7739999890327454,0.02757439074394716
617.741379,,0.00841346776319748,617.52,0.7919999957084656,0.06666309001596445
618.206897,,0.007732643030919946,617.986,0.7689999938011169,0.016335047958769933
618.672414,,0.006271861248575385,618.451,0.5709999799728394,-0.41534635689875615
619.137931,,0.003331651602833612,618.917,0.7540000081062317,-0.017047071350551522
619.603448,,0.00021405645172762572,619.383,0.7720000147819519,0.021705858834248977
620.068966,,0.0019714900396164753,619.849,0.7559999823570251,-0.013666497268810463
620.534483,,0.00046822778299840807,620.31,0.7480000257492065,-0.031645265994166255
621.0,,0.003161509142340349,620.779,0.7710000276565552,0.017894861594788293
621.465517,,0.006423372368660778,621.239,0.7630000114440918,-0.0001044254688776611
621.9310340000001,,0.007932595799055786,621.709,0.7710000276565552,0.016771078300656682
622.396552,,0.008225160926453154,622.169,0.7789999842643738,0.03367981281076567
622.862069,,0.008451564951120188,622.639,0.7519999742507935,-0.02561516337137589
623.327586,,0.00877858017447137,623.104,0.8040000200271606,0.08726639843414245
623.793103,,0.00831941158252598,623.568,0.8029999732971191,0.08475598093963702
624.258621,,0.006598144723878043,624.033,0.75,-0.030957803183354223
624.724138,,0.0045789390453393145,624.498,0.7599999904632568,-0.009325388121205033
625.189655,,0.003669450046349369,624.964,0.7620000243186951,-0.005027114741347184
625.655172,,0.003933333664047451,625.424,0.7549999952316284,-0.02024043988073603
626.1206900000001,,0.003997842334401246,625.889,0.7760000228881836,0.02564348286035154
626.5862070000001,,0.0027770071644351844,626.354,0.7730000019073486,0.019330811677928515
627.0517239999999,,0.0007458153406299041,626.82,0.48899999260902405,-0.5991033717962752
627.5172409999999,,0.0007188050333422277,627.287,0.7739999890327454,0.022178064080859903
627.982759,,0.0010664760683023787,627.75,0.75,-0.029684960176582044
628.448276,,0.0013680766097839267,628.217,0.7570000290870667,-0.013959649610770335
628.913793,,0.0031113221773741762,628.679,0.7599999904632568,-0.006913009267654046
629.37931,,0.006187031907482069,629.15,0.8069999814033508,0.09601644583508184
629.844828,,0.008504435679328322,629.613,0.7739999890327454,0.024661692736343273
630.3103450000001,,0.007990800697982869,630.079,0.7559999823570251,-0.014022317730353357
630.7758620000001,,0.004846897679766342,630.545,0.7720000147819519,0.02134213465454833
631.2413789999999,,0.001466219326820799,631.011,0.7490000128746033,-0.02830166435702426
631.706897,,3.843179568597903e-07,631.47,0.753000020980835,-0.01917704043930037
632.172414,,0.00021546954479763236,631.935,0.7730000019073486,0.024738731994372494
632.637931,,0.00010129835097119779,632.402,0.753000020980835,-0.018568264194808885
633.103448,,0.0014277603268729726,632.867,0.7820000052452087,0.04479388003798373
633.568966,,0.0029871905165909773,633.332,0.7739999890327454,0.02745657275449367
634.034483,,0.0024057849317933463,633.798,0.7480000257492065,-0.029188752146030925
634.5,,0.00032114121254184626,634.261,0.7710000276565552,0.02082646224705548
634.9655170000001,,0.0025510921077312493,634.724,0.753000020980835,-0.018573421004136018
635.431034,,0.0017765755582523895,635.195,0.7599999904632568,-0.003592315822890119
635.8965519999999,,0.0015953527102001385,635.657,0.753000020980835,-0.01918964939862391
636.362069,,0.004752516123427629,636.121,0.8519999980926514,0.19608417829156863
636.827586,,0.005531462946581585,636.59,0.7770000100135803,0.03222186788545285
637.293103,,0.004294440426227147,637.049,0.7699999809265137,0.01646883902895542
637.7586210000001,,0.002716602643178643,637.521,0.7730000019073486,0.022476671696656902
638.224138,,0.0015497869770127277,637.979,0.7739999890327454,0.024116796237663597
638.689655,,0.00020820009114207877,638.444,0.7570000290870667,-0.013453489665845995
639.155172,,0.0018994239398742855,638.909,0.75,-0.02921742617554347
639.62069,,0.0044554148460709,639.38,0.7480000257492065,-0.034053547423263775
640.086207,,0.006671181443014494,639.846,0.7739999890327454,0.022161222193040408
640.551724,,0.00797033413071763,640.309,0.7739999890327454,0.021793720801608643
641.017241,,0.007980616524282233,640.772,0.7720000147819519,0.017142897841088908
641.482759,,0.006493022763844043,641.239,0.7749999761581421,0.02346786996994343
641.9482760000001,,0.004081253307915261,641.703,0.753000020980835,-0.024584485077550667
642.413793,,0.002357977847828093,642.165,0.7739999890327454,0.02113703727241079
642.87931,,0.0026211816867030046,642.635,0.7630000114440918,-0.002764707879493592
643.344828,,0.004063546981346819,643.094,0.8240000009536743,0.1302890899752827
643.810345,,0.004162772311600803,643.564,0.7480000257492065,-0.0350428582409523
644.275862,,0.0015238660474954098,644.03,0.7699999809265137,0.013213425761757578
644.7413789999999,,0.001937425685966901,644.495,0.7730000019073486,0.020146261777978833
645.206897,,0.0024346907909315913,644.961,0.7580000162124634,-0.012077179322066057
645.672414,,0.0016469373806135943,645.421,0.7689999938011169,0.012389974069742281
646.1379310000001,,0.007508830581250991,645.887,0.75,-0.028471409835124514
646.6034480000001,,0.010320879745594924,646.351,0.7139999866485596,-0.10635578322625587
647.0689659999999,,0.007810058525796032,646.816,0.753000020980835,-0.020844243977733323
647.534483,,0.002090635898587975,647.28,0.7630000114440918,0.001468586455744855
648.0,,0.002818439458484109,647.75,0.7720000147819519,0.021570942984210667
648.465517,,0.004562366977042663,648.213,0.7480000257492065,-0.030268319113966748
648.931034,,0.003591541288031663,648.676,0.7739999890327454,0.02676520946287633
649.396552,,0.0017540024872021959,649.139,0.7519999742507935,-0.02084723276527904
649.862069,,0.0004369840376608127,649.609,0.7739999890327454,0.02732081662396975
650.327586,,0.00017839720118805505,650.075,0.7559999823570251,-0.011744262293904368
650.7931030000001,,0.0005663887198660905,650.538,0.7739999890327454,0.027530490590715207
651.258621,,0.0008513171414168335,651.004,0.7419999837875366,-0.042220960897947156
651.7241379999999,,0.0005569143764532661,651.468,0.753000020980835,-0.018383934686665278
652.189655,,0.0005808922744440557,651.934,0.7739999890327454,0.027149687483117305
652.655172,,0.00188991265352959,652.399,0.7720000147819519,0.0224919215679101
653.12069,,0.0022614131630441588,652.865,0.7480000257492065,-0.03017025952860986
653.5862070000001,,0.0013504040963135794,653.324,0.7739999890327454,0.026036143403610656
654.051724,,6.60221086406349e-05,653.79,0.7730000019073486,0.023368508135756583
654.517241,,0.0010137787301563617,654.254,0.7720000147819519,0.020664825012116445
654.982759,,0.0012090238484323773,654.724,0.7519999742507935,-0.023454593091067677
655.448276,,0.0007920167474442933,655.184,0.7739999890327454,0.02392357563976275
655.9137929999999,,0.00023502227246528825,655.653,0.7689999938011169,0.012488788458938211
656.37931,,0.0016519099187699876,656.124,0.847000002861023,0.18190993449261877
656.844828,,0.0026144063294969836,656.58,0.7739999890327454,0.022399412441606155
657.310345,,0.002604380230728794,657.045,0.7720000147819519,0.017629749788876707
657.7758620000001,,0.0025789967851040456,657.509,0.7749999761581421,0.023820386485828186
658.241379,,0.004052960502680259,657.975,0.7739999890327454,0.021373756806870956
658.7068969999999,,0.00680172285100444,658.44,0.7620000243186951,-0.004953199621577443
659.172414,,0.008427652613966354,658.905,0.8410000205039978,0.1670679379095594
659.637931,,0.006907724223663292,659.372,0.7480000257492065,-0.0355438040716674
660.103448,,0.003145729802797599,659.838,0.7950000166893005,0.06694886889851961
660.568966,,0.00018182824536892774,660.306,0.8849999904632568,0.26321586369180383
661.034483,,0.00012372872302869755,660.768,0.7710000276565552,0.015127561881693653
661.5,,0.0012210123729801503,661.232,0.7409999966621399,-0.04987671236348874
661.965517,,0.00226302045204469,661.694,0.7739999890327454,0.02243847757827167
662.4310340000001,,0.0027125457493696902,662.165,0.7739999890327454,0.02291114960519013
662.8965519999999,,0.0036381199110980945,662.628,0.7620000243186951,-0.0027203769969978693
663.362069,,0.00514023325119426,663.094,0.7739999890327454,0.023959950478232243
663.827586,,0.005735635253471722,663.557,0.7490000128746033,-0.029960952625307197
664.293103,,0.004310005832160974,664.023,0.7670000195503235,0.00979259792899559
664.7586210000001,,0.0016320801248930056,664.487,0.7739999890327454,0.02555839855438905
665.224138,,0.0006539314710097239,664.953,0.9049999713897705,0.3114425060382998
665.689655,,0.0018744445217073165,665.417,0.7739999890327454,0.026475128946018542
666.155172,,0.0026108692429532977,665.883,0.7509999871253967,-0.02325914566845459
666.62069,,0.0036459619260802534,666.347,0.753000020980835,-0.018602278812628284
667.086207,,0.0051197807030049,666.813,0.777999997138977,0.036079632862815146
667.5517239999999,,0.00639973631563841,667.276,0.7519999742507935,-0.02043907694330612
668.017241,,0.006584012385558578,667.746,0.7739999890327454,0.027524238607811627
668.482759,,0.005576568267293293,668.206,0.7549999952316284,-0.013931207191920508
668.948276,,0.004663306533228686,668.675,0.7720000147819519,0.022952511858072594
669.413793,,0.005231999268470906,669.136,0.7739999890327454,0.027069037710142043
