Trial: ,1
Threshold: ,0.0
Maximum EMG: ,0.03354515846950876
Success: ,True

EMG Time,Raw EMG,Filtered EMG,Force Time,Raw Force (V),Filtered Force (N)
0.0,samples,1.3875833956691174e-06,0.471,0.9300000071525574,0.32465246370714074
0.46551699999999996,time,4.5292114669679126e-07,0.932,0.7870000004768372,0.0153568796888028
0.9310339999999999,value,5.237287229215337e-07,1.402,0.7929999828338623,0.0306472323240018
1.396552,,1.5406990043089135e-06,1.862,0.7620000243186951,-0.034775570501501006
1.862069,,2.5961067929993363e-06,2.332,0.781000018119812,0.008565987794752062
2.327586,,3.687850884827657e-06,2.79,0.7910000085830688,0.032073372061829065
2.793103,,4.813609837374044e-06,3.262,0.7689999938011169,-0.014413536143677786
3.258621,,5.970840732610209e-06,3.72,0.7490000128746033,-0.05686441921388614
3.724138,,7.156778675434512e-06,4.187,0.7710000276565552,-0.00816697772806277
4.189654999999999,,8.368437061657677e-06,4.653,0.7820000052452087,0.016189115427214185
4.655172,,9.602608647707252e-06,5.118,0.7860000133514404,0.024909229989722646
5.12069,,1.0855867452854461e-05,5.583,0.765999972820282,-0.019042350504177498
5.586207,,1.2124571523129491e-05,6.047,0.7730000019073486,-0.004541601936459765
6.051723999999999,,1.340486658427897e-05,6.51,0.7910000085830688,0.03357757146349404
6.517241,,1.4692690609131274e-05,6.98,0.7630000114440918,-0.028832600046117218
6.982759,,1.598377932257084e-05,7.443,0.7839999794960022,0.015243423132080635
7.448276,,1.7273672664982023e-05,7.91,0.7820000052452087,0.008995528638416253
7.913793000000001,,1.8557722232506892e-05,8.373,0.7789999842643738,0.0004125633369164779
8.379309999999998,,1.983109970977116e-05,8.839,0.7870000004768372,0.015701527856255667
8.844828000000001,,2.108880630787006e-05,9.302,0.7699999809265137,-0.023503598623749282
9.310345,,2.232568321737441e-05,9.768,0.7850000262260437,0.007046345176180741
9.775862,,2.3536423082919877e-05,10.232,0.7919999957084656,0.020270149279904733
10.241379,,2.4715582502583498e-05,10.697,0.7599999904632568,-0.05130888807894019
10.706897,,2.5857595551736128e-05,11.162,0.7749999761581421,-0.02027180851347943
11.172414,,2.6956788327393236e-05,11.628,0.7860000133514404,0.0023196476392427483
11.637931,,2.8007394505275962e-05,12.095,0.7879999876022339,0.005613398931474113
12.103447999999998,,2.9003571897847086e-05,12.562,0.7710000276565552,-0.032145747402594675
12.568966000000001,,2.993941999751046e-05,13.024,0.8109999895095825,0.054639910729521346
13.034483,,3.080899848496652e-05,13.487,0.7670000195503235,-0.0412090910715458
13.5,,3.160634667841079e-05,13.954,0.7680000066757202,-0.038650093412411476
13.965517,,3.232550389485694e-05,14.416,0.7940000295639038,0.01873060327257773
14.431034,,3.296053069037293e-05,14.884,0.7900000214576721,0.011084124526227996
14.896552,,3.3505530941449414e-05,15.347,0.7699999809265137,-0.031122441419335053
15.362069,,3.3954674725088085e-05,15.813,0.781000018119812,-0.005535862916726687
15.827586000000002,,3.430222195051682e-05,16.276,0.7739999890327454,-0.0189608305253212
16.293103,,3.454254669072322e-05,16.742,0.7990000247955322,0.0374793536383036
16.758621,,3.467016215726388e-05,17.206,0.7870000004768372,0.013397468187911564
17.224138,,3.4679746257069504e-05,17.672,0.7699999809265137,-0.021553036989397728
17.689655,,3.4566167665242103e-05,18.137,0.7620000243186951,-0.03693560887729358
18.155172,,3.4324512343148205e-05,18.602,0.7940000295639038,0.034725497506384866
18.62069,,3.3950110426468505e-05,19.069,0.7699999809265137,-0.015778225269370793
19.086207,,3.343856340328898e-05,19.534,0.7900000214576721,0.02936492513192571
19.551724,,3.278577149783004e-05,19.995,0.7739999890327454,-0.004184212202762147
20.017241000000002,,3.198796117102872e-05,20.465,0.7739999890327454,-0.0031746045083415053
20.482758999999998,,3.104171264493445e-05,20.928,0.7870000004768372,0.025828257191837477
20.948276,,2.9943987353772138e-05,21.391,0.7739999890327454,-0.002162071167125382
21.413793000000002,,2.8692155220588192e-05,21.857,0.7649999856948853,-0.021795068465456865
21.87931,,2.7284021654647248e-05,22.321,0.7990000247955322,0.05189902144790541
22.344828,,2.5717854161210903e-05,22.786,0.902999997138977,0.2777596311567566
22.810344999999998,,2.3992408452026762e-05,23.254,0.7820000052452087,0.013110981876476021
23.275862,,2.2106953941808346e-05,23.719,0.8040000200271606,0.05972631036429247
23.741379,,2.006129851321565e-05,24.184,0.7910000085830688,0.029845230458319986
24.206897,,1.7855812430374404e-05,24.65,0.7820000052452087,0.008483037596299205
24.672414,,1.5491451278820998e-05,25.114,0.777999997138977,-0.0021284120699321127
25.137931,,1.2969777807951028e-05,25.58,0.7739999890327454,-0.012824727027383742
25.603448,,1.0292982550604005e-05,26.043,0.7820000052452087,0.0025982635595337786
26.068966,,7.463903093355455e-06,26.505,0.7689999938011169,-0.027694046939117166
26.534483,,4.486041870430969e-06,26.973,0.7739999890327454,-0.018674855436915015
27.0,,1.3635823539246455e-06,27.435,0.7860000133514404,0.0057474746864565815
27.465517,,1.8985964867842116e-06,27.906,0.7910000085830688,0.015124119125016613
27.931034,,5.294907582848757e-06,28.369,0.765999972820282,-0.040608552952259076
28.396552,,8.8190451462862e-06,28.834,0.7870000004768372,0.004164173474356778
28.862069,,1.246397615645355e-05,29.297,0.7400000095367432,-0.09889567214615717
29.327586,,1.6221934074136648e-05,29.763,0.7879999876022339,0.005350380006359292
29.793103000000002,,2.0084414902034295e-05,30.229,0.7870000004768372,0.003186851282494479
30.258620999999998,,2.404217570719274e-05,30.694,0.7739999890327454,-0.024777235990936893
30.724138,,2.808523571716788e-05,31.155,0.765999972820282,-0.04151736043516692
31.189655000000002,,3.2202880097353144e-05,31.62,0.7910000085830688,0.013946812844526172
31.655172000000004,,3.6383666512001285e-05,32.085,0.7870000004768372,0.006508349481930338
32.12069,,4.061543456598123e-05,32.551,1.0110000371932983,0.49604524926934157
32.586207,,4.488531821824093e-05,33.021,0.7870000004768372,0.009747519967027307
33.051724,,4.9179761251290375e-05,33.483,0.7620000243186951,-0.04285629665710879
33.517241000000006,,5.3484535873774226e-05,33.947,0.7879999876022339,0.015731373180098103
33.982759,,5.7784764525370916e-05,34.417,0.7839999794960022,0.008980879443064721
34.448276,,6.206494494483743e-05,34.88,0.8510000109672546,0.15687729112411838
34.913793,,6.630897855302038e-05,35.343,0.7910000085830688,0.027990404479751582
35.37931,,7.05002021930817e-05,35.808,0.7710000276565552,-0.013902372939725986
35.844828,,7.462142326005103e-05,36.276,0.7730000019073486,-0.008069669068276518
36.310345,,7.86549582411277e-05,36.735,0.7850000262260437,0.01930034791298287
36.775862,,8.258267467692731e-05,37.207,0.7850000262260437,0.02024101408429901
37.241378999999995,,8.638603654211842e-05,37.665,0.7409999966621399,-0.07499288438147166
37.706897000000005,,9.004615303164246e-05,38.132,0.7870000004768372,0.025518905147341866
38.172414,,9.354383072597708e-05,38.598,0.7699999809265137,-0.011564296839397607
38.637931,,9.685962909571381e-05,39.063,0.902999997138977,0.2778152937007341
39.103448,,9.997391929210274e-05,39.528,0.7870000004768372,0.02439184792686822
39.568965999999996,,0.0001028669461561998,39.991,0.7519999742507935,-0.052860479259102915
40.034483,,0.00010551889336486753,40.461,0.7680000066757202,-0.01927266751466304
40.5,,0.00010790995161716498,40.925,0.7879999876022339,0.0227985589689639
40.965517,,0.00011002038974965412,41.387,0.765999972820282,-0.026817216609393214
41.431034,,0.00011183062865388911,41.853,0.7900000214576721,0.023653450997940986
41.896552,,0.00011332131785388379,42.318,0.7879999876022339,0.01740400671788579
42.362069000000005,,0.00011447341458571867,42.784,0.7609999775886536,-0.04332861671621517
42.827586000000004,,0.00011526826520569971,43.25,0.7620000243186951,-0.04301843834892075
43.293103,,0.0001156876887376682,43.716,0.7940000295639038,0.02492754446566143
43.758621,,0.00011571406235423748,44.18,0.7710000276565552,-0.0267996462858268
44.224138,,0.00011533040857095345,44.645,0.7839999794960022,0.00010613226843093036
44.689655,,0.00011452048391669992,45.111,0.7710000276565552,-0.029388405640618467
45.155172,,0.00011326886882815706,45.576,0.777999997138977,-0.015030651305610387
45.620689999999996,,0.00011156105850083277,46.04,0.765999972820282,-0.04176136474481022
46.086206999999995,,0.00010938355441418827,46.502,0.796999990940094,0.02551319345981629
46.551724,,0.00010672395623373373,46.965,0.765999972820282,-0.04195776580912974
47.017241,,0.00010357105377874677,47.435,0.7699999809265137,-0.03284859941122743
47.482759,,9.991491873053327e-05,47.899,0.7870000004768372,0.004897285621154546
47.948276,,9.574699574297607e-05,48.361,0.7689999938011169,-0.03331754562797401
48.413793,,9.10601926045737e-05,48.827,0.7910000085830688,0.015874308311055785
48.879310000000004,,8.584896908932914e-05,49.29,0.7649999856948853,-0.03928777097846136
49.344828,,8.010942412278098e-05,49.756,0.7910000085830688,0.01901521144307922
49.810345,,7.383938087924701e-05,50.221,0.781000018119812,-0.0009889911753145893
50.275862,,6.703846941704657e-05,50.687,0.7680000066757202,-0.0274600656173662
50.741379,,5.970820645015448e-05,51.155,0.7590000033378601,-0.04520518723020205
51.206897,,5.185207184748902e-05,51.62,0.7900000214576721,0.02414992218589241
51.672414,,4.3475581444918125e-05,52.08,0.7680000066757202,-0.022064209530750552
52.137931,,3.458635575015404e-05,52.546,0.7879999876022339,0.023071967447930913
52.603448,,2.519418411706401e-05,53.014,0.7739999890327454,-0.006066263723877512
53.068966,,1.5311083963621235e-05,53.476,0.7699999809265137,-0.013659874801856972
53.534483,,4.951354606820899e-06,53.947,0.7670000195503235,-0.01935078658323499
54.0,,5.8683747115459244e-06,54.409,0.7910000085830688,0.03348075507567546
54.465517,,1.7129103032272582e-05,54.873,0.7710000276565552,-0.009864593680803845
54.931034,,2.8809422539603483e-05,55.335,0.7870000004768372,0.024898775632037885
55.396552,,4.0885490490600175e-05,55.801,0.7739999890327454,-0.00383749834276085
55.862069,,5.3331008621011194e-05,56.266,0.847000002861023,0.1544859136983269
56.327586,,6.611721042690479e-05,56.732,0.7860000133514404,0.0205901714328786
56.793102999999995,,7.921285671079936e-05,57.2,0.7850000262260437,0.017163460136082213
57.258621000000005,,9.258423976868552e-05,57.665,0.7710000276565552,-0.014798400220528462
57.724138,,0.00010619519658014264,58.125,0.7870000004768372,0.018431325516749173
58.189655,,0.00012000713134768401,58.59,0.7599999904632568,-0.042138685337260076
58.655172,,0.0001339790477134953,59.062,0.7699999809265137,-0.022163402038610207
59.120689999999996,,0.000148067590961846,59.52,0.7919999957084656,0.02394682227968251
59.586207,,0.00016222710049364217,59.988,0.7760000228881836,-0.012684068239885696
60.051724,,0.00017640967283584662,60.45,0.7990000247955322,0.035754231316472665
60.517241,,0.00019056523542282388,60.918,0.7860000133514404,0.0059142867013962895
60.982758999999994,,0.00020464163135908137,61.38,0.7680000066757202,-0.034620019090518234
61.448276,,0.00021858471534339294,61.846,0.7850000262260437,0.0013366600071084852
61.913793,,0.0002323384609029335,62.316,0.765999972820282,-0.04086747048888069
62.379310000000004,,0.00024584507905285347,62.782,0.8080000281333923,0.050121595987516865
62.84482800000001,,0.00025904514846172236,63.246,0.7739999890327454,-0.024155786254787315
63.310345000000005,,0.00027187775716652177,63.705,0.7850000262260437,-7.736273649154102e-05
63.775862000000004,,0.00028428065584242706,64.17,0.7210000157356262,-0.13908681959843025
64.241379,,0.0002961904225925506,64.636,0.7879999876022339,0.007603164821027844
64.706897,,0.0003075426391812006,65.103,0.7910000085830688,0.015134966361232838
65.172414,,0.00031827207859112805,65.568,0.765999972820282,-0.03809026204353857
65.637931,,0.00032831290374077637,66.036,0.7820000052452087,-0.001784365420255758
66.103448,,0.00033759887715182377,66.498,0.7739999890327454,-0.017604388617162337
66.56896599999999,,0.00034606358131042034,66.962,0.7699999809265137,-0.024597537610009365
67.03448300000001,,0.00035364064941759767,67.432,0.7889999747276306,0.01857779088582011
67.5,,0.00036026400617549296,67.895,0.7919999957084656,0.02690051846745213
67.965517,,0.00036586811820642223,68.358,0.7829999923706055,0.009030820595398005
68.431034,,0.0003703882536516069,68.823,0.765999972820282,-0.02637034809017695
68.896552,,0.0003737607504456566,69.287,0.7699999809265137,-0.016172655745506206
69.362069,,0.0003759232927119054,69.752,0.7870000004768372,0.022149714588095577
69.827586,,0.0003768151946725602,70.217,0.7929999828338623,0.03627091498917593
70.293103,,0.0003763776914165308,70.682,0.7860000133514404,0.021802515332113644
70.75862099999999,,0.0003745542358169559,71.147,0.7879999876022339,0.026650917323559817
71.22413800000001,,0.00037129080084001635,71.613,0.5299999713897705,-0.535259888186621
71.689655,,0.00036653618643683726,72.077,0.7889999747276306,0.02887081675791131
72.15517200000001,,0.0003602423301613325,72.543,0.7910000085830688,0.032778485901636886
72.62069,,0.00035236462060895846,73.006,0.781000018119812,0.010251419329533586
73.086207,,0.00034286221272473056,73.476,0.765999972820282,-0.0234370596865105
73.551724,,0.00033169834398374574,73.939,0.7860000133514404,0.018890528580249713
74.017241,,0.00031884065040407736,74.402,0.7730000019073486,-0.010875311851840708
74.482759,,0.00030426148131050106,74.865,0.753000020980835,-0.056045341503531285
74.94827599999999,,0.00028793821172830514,75.335,0.7870000004768372,0.01632678528758706
75.41379300000001,,0.00026985355124967234,75.801,0.7649999856948853,-0.03335742556950395
75.87931,,0.00024999584818103114,76.266,0.7680000066757202,-0.02857366021050113
76.344828,,0.00022835938774860807,76.732,0.7829999923706055,0.00240907066130095
76.810345,,0.0002049446831114199,77.191,0.7739999890327454,-0.018788279155550515
77.275862,,0.0001797587579063623,77.657,0.7860000133514404,0.005922058202906477
77.741379,,0.00015281541902909172,78.125,0.7870000004768372,0.006866902904827346
78.206897,,0.00012413551833728275,78.591,0.9100000262260437,0.2738465192591576
78.67241399999999,,9.374720194984675e-05,79.058,0.7699999809265137,-0.03188761555231971
79.137931,,6.168614580709627e-05,79.516,0.7680000066757202,-0.03667865916754419
79.603448,,2.799577615282335e-05,79.984,0.7730000019073486,-0.025920281302403144
80.068966,,7.272526400114714e-06,80.446,0.7900000214576721,0.01128440270188201
80.53448300000001,,4.405924055367432e-05,80.914,0.7879999876022339,0.007391611134561075
81.0,,8.229653708023642e-05,81.377,0.7739999890327454,-0.022363162523406813
81.465517,,0.0001219081319557538,81.843,0.7889999747276306,0.01132053157649794
81.931034,,0.00016280916115416586,82.305,0.7699999809265137,-0.02884374294896623
82.396552,,0.00020490607835984252,82.771,0.7879999876022339,0.011789629901144984
82.86206899999999,,0.00024809657682285424,83.236,0.7870000004768372,0.011172674377345248
83.327586,,0.0002922695365430178,83.701,0.7599999904632568,-0.04599359664183532
83.79310299999999,,0.00033730499792132963,84.166,0.7739999890327454,-0.01379130186739326
84.258621,,0.0003830741629639043,84.632,0.7889999747276306,0.020581780838239014
84.72413800000001,,0.0004294394250688209,85.099,0.7820000052452087,0.0069659095828041445
85.189655,,0.0004762544283692989,85.564,0.7490000128746033,-0.06340391685543402
85.65517200000001,,0.0005233641575362582,86.028,0.7889999747276306,0.025111758884439214
86.12069,,0.0005706050588527386,86.49,0.7760000228881836,-0.002037157461576702
86.586207,,0.0006178051932792634,86.958,0.7609999775886536,-0.03377503777912266
87.051724,,0.0006647844221609324,87.42,0.7820000052452087,0.012658855350451853
87.517241,,0.0007113546261703896,87.891,0.7879999876022339,0.026133917564372885
87.98275899999999,,0.0007573199579678548,88.354,0.8730000257492065,0.21143431897831372
88.448276,,0.0008024771288637193,88.82,0.7910000085830688,0.032611328832447266
88.913793,,0.0008466157296097526,89.286,0.7879999876022339,0.025617403071461452
89.37931,,0.0008895185854712648,89.752,0.8870000243186951,0.2405765412774502
89.844828,,0.0009309621458196683,90.217,0.7820000052452087,0.010846318606600147
90.310345,,0.0009707169082261005,90.675,0.7889999747276306,0.024908129066565157
90.775862,,0.0010085478763651881,91.147,0.7990000247955322,0.045324428602682605
91.241379,,0.0010442150507370951,91.605,0.7699999809265137,-0.019366509542874857
91.706897,,0.001077473952048935,92.07,0.7699999809265137,-0.020971027701739364
92.17241399999999,,0.001108076178062079,92.536,0.7639999985694885,-0.035693660408233616
92.63793100000001,,0.0011357699934425051,93.006,0.7860000133514404,0.010590052446597059
93.103448,,0.0011603009488186872,93.468,0.7609999775886536,-0.04546839216860363
93.568966,,0.001181412524861344,93.936,0.7739999890327454,-0.018635551772668884
94.03448300000001,,0.0011988468033929621,94.398,0.8339999914169312,0.11074258023793161
94.5,,0.0012123451729251222,94.862,0.7609999775886536,-0.04944921856037697
94.965517,,0.0012216490672293972,95.332,0.7870000004768372,0.00626930507387813
95.431034,,0.001226500717092111,95.79,0.796999990940094,0.02738089003398967
95.896552,,0.001226643898401254,96.255,0.7620000243186951,-0.04927485948585753
96.36206899999999,,0.0012218246996958284,96.721,0.8009999990463257,0.03557246422312767
96.827586,,0.0012117923576800934,97.187,0.7699999809265137,-0.031799120201831954
97.293103,,0.0011963001468789157,97.653,0.7940000295639038,0.020936119296950977
97.758621,,0.0011751062073751522,98.117,0.7879999876022339,0.008578759500861444
98.224138,,0.0011479742408374452,98.583,0.765999972820282,-0.038392238607584596
98.689655,,0.0011146742518458887,99.047,0.7749999761581421,-0.017610741525642487
99.155172,,0.0010749836129364638,99.517,0.7900000214576721,0.016421241139712415
99.62069,,0.0010286883048959473,99.98,0.7749999761581421,-0.014768886674734931
100.086207,,0.0009755836344935796,100.443,0.7850000262260437,0.008599404077083752
100.551724,,0.0009154741711498508,100.906,0.7950000166893005,0.03201161791669766
101.017241,,0.0008481741238214107,101.376,0.7689999938011169,-0.023012914154639606
101.482759,,0.0007735096562166881,101.841,0.7910000085830688,0.02648284414042705
101.948276,,0.0006913218162844796,102.304,0.7480000257492065,-0.06573650094866697
102.413793,,0.0006014659352812226,102.77,0.777999997138977,0.000937637871803071
102.87931,,0.000503806904683799,103.235,0.777999997138977,0.002065194705177769
103.344828,,0.0003982183732032045,103.701,0.7710000276565552,-0.012278367161476548
103.810345,,0.0002845934875353131,104.165,0.7649999856948853,-0.024691590466967075
104.275862,,0.00016285671285821247,104.631,0.7910000085830688,0.03234453763993384
104.741379,,3.295270156220555e-05,105.096,0.7950000166893005,0.04117234031708586
105.206897,,0.00010518545120205174,105.562,0.765999972820282,-0.022176249738643104
105.672414,,0.0002516372930731623,106.024,0.7789999842643738,0.005702498449970032
106.13793100000001,,0.00040642935873877993,106.487,0.7730000019073486,-0.008075354835077304
106.603448,,0.0005694794266128094,106.954,0.765999972820282,-0.02427246898983649
107.068966,,0.0007406860359494532,107.416,0.7699999809265137,-0.016716014679059928
107.534483,,0.0009201136180826252,107.884,0.7829999923706055,0.010272444506634369
108.0,,0.0011079553367371595,108.347,0.7609999775886536,-0.03912673764185561
108.46551699999999,,0.0013041221397593712,108.812,0.7699999809265137,-0.021078159362448622
108.931034,,0.0015079908732585738,109.276,0.7639999985694885,-0.035752328270628214
109.396552,,0.001719048030761316,109.742,0.7820000052452087,0.0018671019241182237
109.862069,,0.001937921022397683,110.207,0.7760000228881836,-0.012745987840962788
110.32758600000001,,0.0021658770710308688,110.672,0.7739999890327454,-0.018542685862053685
110.793103,,0.0024023030725853775,111.139,0.7760000228881836,-0.015479265102628894
111.258621,,0.0026437260020494026,111.605,0.7739999890327454,-0.020946086999085962
111.724138,,0.0028882140092546193,112.07,0.796999990940094,0.028271750253673435
112.189655,,0.0031409020499379354,112.535,0.7820000052452087,-0.005053410570114159
112.655172,,0.003409350655683159,112.999,0.7990000247955322,0.031603265869068475
113.12069,,0.003688482539215998,113.461,0.7910000085830688,0.014069987073252747
113.586207,,0.003958111339070273,113.929,0.7879999876022339,0.00770890406982544
114.051724,,0.004211945735861613,114.391,0.7739999890327454,-0.022344706540828693
114.51724100000001,,0.004485808675124452,114.862,0.7419999837875366,-0.09135678895032597
114.982759,,0.0048205093623592205,115.324,0.7870000004768372,0.007621850393691484
115.448276,,0.0051742027490590675,115.79,0.765999972820282,-0.036984065276669184
115.913793,,0.005428826708563138,116.255,0.7699999809265137,-0.026952330724316746
116.37931,,0.005575449705581323,116.721,0.7910000085830688,0.020247665309202925
116.84482799999999,,0.005848875427150059,117.18,0.7649999856948853,-0.034861622124338715
117.310345,,0.006453847493308436,117.646,0.7910000085830688,0.023359404347538488
117.77586199999999,,0.0070697909866114916,118.11,0.7929999828338623,0.029285775189917918
118.241379,,0.007019062686554547,118.576,0.7739999890327454,-0.01059385041380765
118.70689700000001,,0.006422075254230922,119.047,0.8109999895095825,0.07143049460386054
119.172414,,0.0067801621679583505,119.51,0.7860000133514404,0.018235962091338424
119.63793100000001,,0.009064662875005876,119.973,0.765999972820282,-0.02424725324226521
120.103448,,0.010888672590972487,120.435,0.7870000004768372,0.022378756421356436
120.568966,,0.00769794706438701,120.906,0.7910000085830688,0.03172630427218964
121.034483,,0.0012507407377478586,121.369,0.7730000019073486,-0.007116594660157735
121.5,,0.009922143560877106,121.835,0.7870000004768372,0.02348579663426968
121.96551699999999,,0.01161280000040887,122.297,0.6779999732971191,-0.21416182617865248
122.431034,,0.006950887770682924,122.763,0.7689999938011169,-0.01635200778873441
122.896552,,0.00260849051945969,123.228,0.796999990940094,0.04394633052899356
123.362069,,0.002871446328437229,123.694,0.7770000100135803,-0.0005626636236323666
123.827586,,0.00573066828112457,124.158,0.765999972820282,-0.025667625896045057
124.293103,,0.007183217650651356,124.624,0.7929999828338623,0.031847320009296964
124.758621,,0.006473111868853522,125.091,0.7699999809265137,-0.019698529275702238
125.22413800000001,,0.005908035056429632,125.556,0.7879999876022339,0.01799594573991201
125.68965500000002,,0.006951107642122427,126.017,0.7950000166893005,0.031687882388037845
126.15517200000001,,0.008272122127386114,126.487,0.7689999938011169,-0.02650551852270519
126.62069000000001,,0.007992972252971572,126.947,0.7329999804496765,-0.1064295815321521
127.086207,,0.006601586307468388,127.417,0.7820000052452087,-0.001068115844175857
127.55172400000001,,0.006278420649035254,127.88,0.7699999809265137,-0.028460879315433577
128.017241,,0.007623243715173449,128.343,0.7850000262260437,0.0031521386382925695
128.48275900000002,,0.008525667317268374,128.809,0.7699999809265137,-0.030380096620772283
128.948276,,0.006800388266860997,129.276,0.7680000066757202,-0.035349953820240726
129.413793,,0.0030109863834211284,129.735,0.8519999980926514,0.14730328311460958
129.87931,,4.0708107475728896e-05,130.206,0.7879999876022339,0.007788042710429752
130.344828,,0.0002415312540282379,130.672,0.7279999852180481,-0.12274091211525784
130.81034499999998,,0.001912495662084254,131.136,0.7760000228881836,-0.01771283926185449
131.275862,,0.004108796496582305,131.601,0.7739999890327454,-0.021368185086747322
131.741379,,0.00454856774220297,132.062,0.7720000147819519,-0.024795212030431564
132.206897,,0.00345987447150275,132.527,0.7910000085830688,0.017729056054679122
132.67241399999997,,0.0024600647722385098,132.991,0.7739999890327454,-0.018012731495572296
133.13793099999998,,0.0027257640903220505,133.461,0.7910000085830688,0.02044529161979627
133.60344800000001,,0.004089543382682709,133.921,0.7889999747276306,0.017591284072459096
134.06896600000002,,0.005581362382243384,134.391,0.7919999957084656,0.025667387494450918
134.53448300000002,,0.0060848630754187505,134.85,0.7990000247955322,0.04244800343526574
135.0,,0.00463060306696236,135.32,0.7950000166893005,0.03520682949090626
135.465517,,0.0011298531530603546,135.786,0.7900000214576721,0.025685402083915315
135.931034,,0.0028882321482316658,136.251,0.7739999890327454,-0.007945261613819886
136.396552,,0.005102227892625138,136.717,0.7940000295639038,0.0366738924384145
136.862069,,0.004465738487206064,137.176,0.765999972820282,-0.023495905081297227
137.327586,,0.002206803622869893,137.642,0.777999997138977,0.003241196520092315
137.793103,,0.000680096260264379,138.107,0.7870000004768372,0.023185282870997182
138.258621,,0.001415791503904174,138.573,0.765999972820282,-0.022497010637547103
138.724138,,0.00411060645273287,139.035,0.7879999876022339,0.025233856279943807
139.189655,,0.007048700110279078,139.505,0.7739999890327454,-0.005728938525459132
139.655172,,0.008346350540814281,139.966,0.7670000195503235,-0.021689192377467647
140.12069,,0.007067074918731576,140.435,0.7870000004768372,0.020947772426434405
140.586207,,0.0035902067686231546,140.899,0.7870000004768372,0.019815125367811944
141.05172399999998,,0.0006848770817890325,141.361,0.7850000262260437,0.014163796786479655
141.51724099999998,,0.0039289961586478584,141.827,0.7720000147819519,-0.015574735830735249
141.982759,,0.004727849519334106,142.291,0.7590000033378601,-0.0453925604863132
142.44827600000002,,0.0031240072833015357,142.756,0.7870000004768372,0.014080602852331448
142.913793,,0.0009064717844314948,143.222,0.7789999842643738,-0.004863782311397939
143.37931,,9.017759469739716e-05,143.687,0.7649999856948853,-0.036819830024873046
143.844828,,0.0007532898764217066,144.155,0.7630000114440918,-0.04252805655187748
144.310345,,0.0011511675508117441,144.62,0.7910000085830688,0.017268584047202537
144.77586200000002,,0.0003416712665791867,145.085,0.7820000052452087,-0.003361693014016823
145.241379,,0.0004716067983494487,145.55,0.7739999890327454,-0.02159904152139723
145.706897,,9.109868503626986e-05,146.013,0.7870000004768372,0.006153952637519772
146.172414,,0.0003913917205576721,146.476,0.7720000147819519,-0.026839288712911778
146.637931,,0.0009263014921586711,146.946,0.781000018119812,-0.007279808327289207
147.103448,,0.0035608748957766576,147.409,0.7739999890327454,-0.022312447967190147
147.568966,,0.004890267107920935,147.87,0.765999972820282,-0.03926451724247144
148.034483,,0.003974152164362112,148.339,0.7879999876022339,0.009387306111849075
148.5,,0.0032969284226615136,148.805,0.777999997138977,-0.011455109056261249
148.965517,,0.005362110135983068,149.265,0.7879999876022339,0.01146910550410271
149.43103399999998,,0.008726028196662813,149.731,0.7699999809265137,-0.026450320760426835
149.89655199999999,,0.009432132828921833,150.195,0.7689999938011169,-0.02721448005635213
150.362069,,0.006403173014508132,150.66,0.7889999747276306,0.017847690389231747
150.82758600000003,,0.0034856366486796415,151.125,0.7860000133514404,0.01283081901902034
151.293103,,0.00486304606684492,151.591,0.7730000019073486,-0.01398943338928047
151.758621,,0.009388591744194295,152.058,0.7630000114440918,-0.03433722919396694
152.224138,,0.01135476270869105,152.524,0.7850000262260437,0.014923976414177283
152.68965500000002,,0.007208213704760629,152.987,0.7699999809265137,-0.016573099907277056
153.155172,,8.777445135249061e-05,153.45,0.777999997138977,0.0018546304393891912
153.62069,,0.0044383410019978465,153.918,0.7889999747276306,0.026603727389012007
154.086207,,0.0034110528982998194,154.381,0.7770000100135803,0.0010059794541709675
154.551724,,0.00035044451435156627,154.847,0.7630000114440918,-0.029204269049725715
155.017241,,9.596132153644014e-05,155.31,0.6119999885559082,-0.35815696781469325
155.482759,,0.0026576581785444074,155.775,0.8119999766349792,0.07732616895954307
155.948276,,0.004963654292771952,156.24,0.7860000133514404,0.0201767589752453
156.413793,,0.003633215973929979,156.706,0.7720000147819519,-0.011068443504155173
156.87931,,0.00034175245551376756,157.172,0.7879999876022339,0.022828751767107094
157.34482799999998,,0.003191859692202134,157.638,0.8640000224113464,0.18725956788591702
157.81034499999998,,0.002659747486384199,158.106,0.7950000166893005,0.03563789782493075
158.275862,,8.063390451759238e-05,158.572,0.9890000224113464,0.4568949342378632
158.741379,,0.0025233792939495696,159.032,0.7860000133514404,0.013167012071644106
159.20689700000003,,0.0036364314554706637,159.495,0.7710000276565552,-0.02099592474144952
159.672414,,0.004055733401221405,159.965,0.7710000276565552,-0.022459849002991444
160.137931,,0.0044753339559550865,160.428,0.7870000004768372,0.010998049585005047
160.60344800000001,,0.005035006054546483,160.891,0.7730000019073486,-0.020797398666808836
161.06896600000002,,0.00593782843558335,161.361,0.7699999809265137,-0.028482952663024943
161.534483,,0.007277728014278485,161.82,0.7739999890327454,-0.02073876422642899
162.0,,0.00803689436428838,162.286,0.7860000133514404,0.004643330612187092
162.465517,,0.0065940448614143915,162.752,0.7730000019073486,-0.024209004340324778
162.931034,,0.002956111708132578,163.22,0.7839999794960022,-0.0005260455750083781
163.396552,,0.000556274164808207,163.685,0.7860000133514404,0.003805563255258092
163.862069,,0.0017932223285189227,164.15,0.9890000224113464,0.44630673184514796
164.327586,,0.0011315313363299438,164.616,0.871999979019165,0.19189924021191743
164.793103,,0.00038609273306188896,165.077,0.765999972820282,-0.03830182370322603
165.258621,,0.0002903300905680941,165.542,0.7889999747276306,0.012755450922094664
165.72413799999998,,0.0003827836161615232,166.006,0.9539999961853027,0.3733661386891117
166.189655,,0.0006302670453936849,166.476,0.7680000066757202,-0.030575764954843324
166.655172,,0.0014958899233409708,166.939,0.7860000133514404,0.01003683948543882
167.12069,,0.0026071405657068065,167.402,0.7720000147819519,-0.019003349456436117
167.58620699999997,,0.0027564027874800306,167.87,0.7739999890327454,-0.013166176610001494
168.051724,,0.0013574148963188314,168.332,0.7870000004768372,0.016610088635076424
168.517241,,0.0008489916303183075,168.797,0.7699999809265137,-0.019043366727169934
168.98275900000002,,0.0025213538891162898,169.261,0.7870000004768372,0.019265137168762707
169.44827600000002,,0.0028887480738146918,169.727,0.7699999809265137,-0.01665109161075432
169.913793,,0.0026005052447438475,170.192,0.8489999771118164,0.15639998219836107
170.37931,,0.003503619987740788,170.657,0.7879999876022339,0.024230655458677874
170.844828,,0.006704869975153397,171.122,0.7820000052452087,0.011655039691454445
171.310345,,0.010404292493355352,171.587,0.7699999809265137,-0.014240617560994928
171.775862,,0.010707678850333116,172.05,0.765999972820282,-0.022962571375953086
172.241379,,0.005820383295772056,172.52,0.7950000166893005,0.039956662203627896
172.706897,,0.0010178777760923214,172.98,0.7680000066757202,-0.019373639511767862
173.172414,,0.004279976643536396,173.45,0.7960000038146973,0.04089302038371345
173.637931,,0.002043883118625599,173.914,0.7879999876022339,0.022523084023458356
174.103448,,0.0021353772777861855,174.376,0.7699999809265137,-0.017809274243306444
174.568966,,0.0035041871977844097,174.842,0.7910000085830688,0.026684011845327715
175.034483,,0.0007837332793820544,175.305,0.7730000019073486,-0.013892881663630032
175.5,,0.003850931137758208,175.77,0.9010000228881836,0.2635542708123903
175.96551699999998,,0.007647521108520584,176.236,0.7900000214576721,0.020291250950610837
176.43103399999998,,0.009152606462922389,176.701,0.7670000195503235,-0.031222164822997344
176.896552,,0.008747808493956384,177.165,0.7239999771118164,-0.1262413629317664
177.36206900000002,,0.00840806851085725,177.632,0.7820000052452087,-0.0011100679487966538
177.827586,,0.009763815676348169,178.098,0.7760000228881836,-0.015267187864699161
178.293103,,0.011679946731696629,178.564,0.7829999923706055,-0.000923160588682552
178.758621,,0.011019528448848811,179.028,0.7910000085830688,0.015805871645800395
179.224138,,0.006413305332389598,179.491,0.7590000033378601,-0.054384233522281715
179.68965500000002,,2.350397803201087e-05,179.961,0.7620000243186951,-0.04808183130501638
180.155172,,0.0051935791709592765,180.424,0.781000018119812,-0.006674966824355608
180.62069,,0.0077370851555376395,180.887,0.7699999809265137,-0.030381888659440234
181.086207,,0.007604149860533689,181.35,0.7979999780654907,0.031116413729766614
181.551724,,0.004632316580187222,181.816,0.7689999938011169,-0.0313457351600709
182.01724099999998,,0.0008171544738429007,182.28,0.7590000033378601,-0.05221415094573515
182.482759,,0.006448466493955204,182.746,0.7950000166893005,0.027306112506966743
182.948276,,0.008896406608724424,183.217,0.7879999876022339,0.013282720200018536
183.413793,,0.006545842364327072,183.675,0.7889999747276306,0.016789712931436433
183.87931,,0.0010269927947325422,184.14,0.7820000052452087,0.0029278881381983434
184.34482799999998,,0.004399403249104407,184.606,0.9449999928474426,0.35945700090188504
184.81034499999998,,0.007727921283326791,185.073,0.7730000019073486,-0.013880995207320466
185.27586200000002,,0.009183595182533684,185.539,0.7839999794960022,0.011408359653640024
185.74137900000002,,0.009572375166714029,186.007,0.781000018119812,0.0060879522757925925
186.206897,,0.00859527114350086,186.469,0.7630000114440918,-0.03205848916313252
186.672414,,0.005495519785199682,186.932,0.7879999876022339,0.023297906035062523
187.137931,,0.0009338952031349187,187.395,0.7609999775886536,-0.03484139326235519
187.60344800000001,,0.0027980111067611563,187.865,0.765999972820282,-0.02349094743411238
188.06896600000002,,0.0038106158083541478,188.328,0.7889999747276306,0.026834671568013085
188.534483,,0.0024635459475002897,188.794,0.7919999957084656,0.03334165804384619
189.0,,0.0008850861941700505,189.259,0.7739999890327454,-0.006147160614733357
189.465517,,0.0008962047345783318,189.725,0.7950000166893005,0.03909592673055626
189.931034,,0.0025309946764062313,190.185,0.7739999890327454,-0.007383761528639524
190.39655199999999,,0.004142752981290953,190.65,0.7649999856948853,-0.027916814630225186
190.862069,,0.003834213913656584,191.117,0.7910000085830688,0.027634216224754482
191.327586,,0.0014610650367441733,191.583,0.7789999842643738,0.0002622482658116909
191.793103,,0.0006769904783824182,192.056,0.7889999747276306,0.020724542848682026
192.25862099999998,,0.00015595778214848218,192.514,0.7839999794960022,0.008451951131882603
192.72413799999998,,0.002282033973377539,192.977,0.7699999809265137,-0.023441503378578137
193.189655,,0.0030279978058855217,193.446,0.7889999747276306,0.016589926349642195
193.655172,,2.6638747940590435e-05,193.91,0.7870000004768372,0.010941454077330834
194.12069000000002,,0.004463364116058585,194.372,0.7870000004768372,0.009761664969191793
194.586207,,0.005825677139217148,194.838,0.8389999866485596,0.12201997619254475
195.051724,,0.002650269609337817,195.301,0.7860000133514404,0.005700868017054478
195.517241,,0.002046106938800969,195.767,0.7730000019073486,-0.023267264537014797
195.98275900000002,,0.004108353387780036,196.231,0.7829999923706055,-0.0019033440117167109
196.448276,,0.002126245666561987,196.697,0.7860000133514404,0.004445854601091988
196.913793,,0.001931098453843886,197.162,0.765999972820282,-0.03907311569032363
197.37931,,0.004914507391966453,197.628,0.800000011920929,0.03529382692162954
197.844828,,0.004992867013322767,198.095,0.8159999847412109,0.07067535961177607
198.310345,,0.0027409411713702797,198.561,0.7889999747276306,0.012589646411378552
198.775862,,0.00037049570952059374,199.021,0.7919999957084656,0.02005436015961406
199.241379,,0.00040312284517180527,199.491,0.7710000276565552,-0.02460730682918644
199.706897,,0.00017192064723934648,199.954,0.7879999876022339,0.01364650953255468
200.172414,,0.001188779793267987,200.416,0.7739999890327454,-0.015548360749654454
200.63793099999998,,0.004303713840904578,200.88,0.7689999938011169,-0.02508657251637826
201.103448,,0.007012874869594612,201.35,0.7839999794960022,0.008955171311326027
201.568966,,0.005855925699244542,201.815,0.7739999890327454,-0.011503696981776312
202.034483,,0.0008261730925581302,202.279,0.7789999842643738,0.0006421462471480203
202.5,,0.004111045171584611,202.745,0.7699999809265137,-0.017826422812504183
202.965517,,0.005506836864885991,203.21,0.7760000228881836,-0.003763201709117708
203.431034,,0.004067529864158997,203.675,0.7910000085830688,0.02973006671564138
203.896552,,0.002840161496019988,204.14,0.7730000019073486,-0.008873859845855193
204.36206900000002,,0.0029145286096234294,204.606,0.7889999747276306,0.026376139460238753
204.827586,,0.002474402027162931,205.065,0.7889999747276306,0.0265365170236399
205.293103,,2.3258030276819975e-05,205.531,0.7739999890327454,-0.006218447504665061
205.758621,,0.003022782254513333,205.999,1.031000018119812,0.5533906552158145
206.224138,,0.0030068568631579314,206.461,0.7599999904632568,-0.03754178276517978
206.689655,,0.0016470998998349604,206.929,0.7870000004768372,0.020559865283331664
207.155172,,0.008338409073398136,207.391,0.7730000019073486,-0.010848861260715086
207.62069,,0.012093217153399586,207.862,0.7820000052452087,0.007693468586608824
208.086207,,0.009947833825280116,208.324,0.7919999957084656,0.028289324071765973
208.551724,,0.0034820658231533106,208.79,0.7879999876022339,0.018295795801047014
209.01724099999998,,0.003021514908603338,209.255,0.7599999904632568,-0.04403506829127791
209.482759,,0.006510897974572222,209.72,0.7889999747276306,0.01780719580738968
209.948276,,0.006906626803284559,210.18,0.7139999866485596,-0.14689984395043393
210.413793,,0.005772472256646703,210.645,0.7630000114440918,-0.04138558001503069
210.87930999999998,,0.0046635249448732695,211.11,0.796999990940094,0.031556621407934256
211.344828,,0.004673342085384252,211.576,0.7910000085830688,0.017497483247817587
211.810345,,0.006037519316204099,212.047,0.7789999842643738,-0.009458634737153158
212.27586200000002,,0.007524172551268944,212.509,0.7860000133514404,0.005179183429004273
212.741379,,0.007102427563690885,212.973,0.7649999856948853,-0.04096736881891656
213.206897,,0.003914125466530688,213.435,0.7870000004768372,0.006797921136263864
213.672414,,0.0006513369837890764,213.906,0.7919999957084656,0.017761612090713804
214.137931,,0.004177659599811229,214.369,0.7020000219345093,-0.17801398942524074
214.60344800000001,,0.005489717113205772,214.834,0.7699999809265137,-0.029341997074516308
215.068966,,0.005499532934219875,215.297,0.7860000133514404,0.006246868584497651
215.534483,,0.005759012699175535,215.762,0.7689999938011169,-0.029873899267574416
216.0,,0.006674212539433386,216.228,0.7910000085830688,0.019130891018597607
216.465517,,0.00764459914016968,216.694,0.7699999809265137,-0.0254207304154254
216.93103399999998,,0.008402558503100592,217.159,0.7689999938011169,-0.026310624540548423
217.39655199999999,,0.009164221313096335,217.624,0.7870000004768372,0.014243072967487625
217.862069,,0.009494255466772343,218.091,0.7699999809265137,-0.0214472331653823
218.327586,,0.007999774550786563,218.557,0.7689999938011169,-0.022311762465823958
218.793103,,0.0036632337149971055,219.017,0.777999997138977,-0.0014628680215646307
219.25862099999998,,0.0027016303356121826,219.487,0.7649999856948853,-0.02865524183843964
219.724138,,0.008511481917041347,219.948,0.7620000243186951,-0.03420696273401147
220.18965500000002,,0.011139253442411385,220.41,0.902999997138977,0.2737928052238559
220.65517200000002,,0.01006913751606163,220.88,0.7609999775886536,-0.03496140802910043
221.12069,,0.007511218945133559,221.343,0.7860000133514404,0.019901334298664718
221.586207,,0.0063654266999136466,221.808,0.7860000133514404,0.020065906209894232
222.051724,,0.007333991457725885,222.273,0.7710000276565552,-0.01268639567362647
222.517241,,0.008559035185035644,222.739,0.7910000085830688,0.030578347106557532
222.98275900000002,,0.00816376975001563,223.206,0.7910000085830688,0.030043964523018864
223.448276,,0.006301367776267607,223.665,0.7889999747276306,0.02494224381280714
223.913793,,0.0043863309049862985,224.136,0.765999972820282,-0.026099198231836866
224.37931,,0.0030734978843741287,224.595,0.7730000019073486,-0.011941909814166676
224.844828,,0.0016239574373902175,225.061,0.7820000052452087,0.006444909691857689
225.31034499999998,,0.0008676165720391194,225.527,0.7739999890327454,-0.012295647014393535
225.775862,,0.003981208541162856,225.995,0.7609999775886536,-0.04198016141768146
226.241379,,0.005914669907193604,226.457,0.7870000004768372,0.013293452849835179
226.706897,,0.005016432926308989,226.921,0.7860000133514404,0.009776959429658456
227.172414,,0.0014378347993151423,227.391,0.7599999904632568,-0.048131366655013434
227.63793099999998,,0.002717799414189801,227.857,0.7649999856948853,-0.038389064277468736
228.103448,,0.004979005580335998,228.32,0.7910000085830688,0.017253133627263495
228.56896600000002,,0.0044122733629980695,228.787,0.777999997138977,-0.011891927168598743
229.03448300000002,,0.002144439945564669,229.246,0.7910000085830688,0.015813983488306597
229.5,,0.0002385685387943731,229.712,0.7730000019073486,-0.02379292733526755
229.965517,,0.0001128725792260586,230.177,0.765999972820282,-0.03919743413891643
230.431034,,0.001629338320028914,230.643,0.7889999747276306,0.011000037620331632
230.896552,,0.003319313256376278,231.11,0.7879999876022339,0.00915097932284996
231.362069,,0.003759728309997092,231.576,0.7649999856948853,-0.040396920702703634
231.827586,,0.0030489709093965184,232.039,0.7820000052452087,-0.0025845333550668084
232.293103,,0.0025294635083423374,232.502,0.7609999775886536,-0.047370078175605304
232.758621,,0.0026594715889799447,232.969,0.7620000243186951,-0.04406391905963881
233.224138,,0.0018428968751569889,233.431,0.7990000247955322,0.037800982540186975
233.689655,,0.0015031492752414014,233.899,0.7910000085830688,0.021717251271206
234.155172,,0.005850888963699976,234.362,0.9829999804496765,0.4414169324749857
234.62069,,0.007058472765955496,234.827,0.597000002861023,-0.3981320242634161
235.086207,,0.002914582899978352,235.291,0.7720000147819519,-0.015499283065994459
235.55172399999998,,0.003604347857807109,235.756,0.7760000228881836,-0.005498897645531334
236.01724099999998,,0.006748314012499895,236.221,0.7919999957084656,0.030525924312503665
236.482759,,0.0036441075870885385,236.687,0.7699999809265137,-0.016393008755867897
236.94827600000002,,0.002987028567089617,237.155,0.7630000114440918,-0.03081929833306672
237.413793,,0.007685250233352043,237.62,0.8230000138282776,0.10051135294495858
237.87931,,0.00746778867112898,238.084,0.7670000195503235,-0.021112028794479154
238.344828,,0.0042459920034996525,238.549,0.7829999923706055,0.013883566613523558
238.810345,,0.0023853116977501925,239.01,0.7720000147819519,-0.01019346960063199
239.27586200000002,,0.004199209452186519,239.479,0.7720000147819519,-0.01055195269075919
239.741379,,0.008073611641440482,239.943,0.7870000004768372,0.021533174583369757
240.206897,,0.010714828416288005,240.406,0.7710000276565552,-0.014137919414714196
240.672414,,0.010414485453049908,240.874,0.7710000276565552,-0.015144792345481061
241.137931,,0.00789983652958394,241.335,0.7919999957084656,0.029436311912910573
241.603448,,0.004910022715504764,241.801,0.746999979019165,-0.06990150775517456
242.068966,,0.0027541696820592033,242.268,0.777999997138977,-0.00375115536559359
242.534483,,0.0018900771962777605,242.734,0.7699999809265137,-0.022614832453870165
243.0,,0.0021055222722919653,243.199,0.7870000004768372,0.012985771745157033
243.465517,,0.0029474493849365787,243.665,0.765999972820282,-0.03416014069432202
243.93103399999998,,0.004070823392276168,244.125,0.7839999794960022,0.003746477795358954
244.39655199999999,,0.004914559463581352,244.59,0.7739999890327454,-0.019223337641291333
244.862069,,0.004209783379195382,245.058,0.9629999995231628,0.39152402358873584
245.327586,,0.000884493846364317,245.524,0.7739999890327454,-0.021057119312634695
245.793103,,0.004040116070512095,245.991,1.090000033378601,0.6668083837473417
246.258621,,0.007486353909001608,246.454,0.7910000085830688,0.015053911400543248
246.724138,,0.007229949997302398,246.917,0.7730000019073486,-0.02424606436027865
247.18965500000002,,0.0043106811126301815,247.38,0.7739999890327454,-0.02190167916564349
247.655172,,0.0018104816156223186,247.846,0.7870000004768372,0.006831187183198626
248.12069,,0.0015934016794675536,248.316,0.8500000238418579,0.14473009642326645
248.586207,,0.002929094738291786,248.782,0.7990000247955322,0.03447825812788608
249.051724,,0.0040431686887609465,249.247,0.7979999780654907,0.033346856603138825
249.517241,,0.0040734005542947625,249.705,0.7699999809265137,-0.02645363463376505
249.982759,,0.0032092779562571134,250.172,0.777999997138977,-0.007706206514327207
250.44827600000002,,0.0017346109074056584,250.638,0.781000018119812,0.00022395986948238965
250.913793,,0.0002126701093136117,251.103,0.7889999747276306,0.019081010724034717
251.37931000000003,,0.002200516280350161,251.569,0.7730000019073486,-0.014359091985681523
251.844828,,0.0036093847380576647,252.032,0.7870000004768372,0.01750711740434835
252.31034499999998,,0.004171108395714118,252.502,0.8479999899864197,0.15167658332336756
252.77586200000002,,0.003935257264890014,252.962,0.7699999809265137,-0.01711697351676666
253.241379,,0.002882053971636766,253.425,0.7860000133514404,0.018715684564844237
253.706897,,0.0009799410150119563,253.895,0.781000018119812,0.008599261875312661
254.172414,,0.001541622042809417,254.357,0.7879999876022339,0.024405946603916057
254.63793099999998,,0.0040488106294786705,254.823,0.7699999809265137,-0.014491021951615586
255.10344800000001,,0.005337331349281776,255.287,0.7649999856948853,-0.025313060267851045
255.56896600000002,,0.004183185681935616,255.753,0.7879999876022339,0.024617609439543536
256.03448299999997,,0.0011172492665793476,256.217,0.7919999957084656,0.03291113678564284
256.5,,0.0009717741688127118,256.683,0.7820000052452087,0.010474356013747549
256.965517,,0.0003689625770268553,257.148,0.7699999809265137,-0.016529369737637294
257.431034,,0.0040610791042015905,257.613,0.8009999990463257,0.04996582793741608
257.896552,,0.0067965006418243155,258.081,0.7739999890327454,-0.010051250160743654
258.362069,,0.007179422739970342,258.546,0.7870000004768372,0.016963584871442207
258.827586,,0.006885585381807556,259.01,0.7870000004768372,0.015581906120986986
259.29310300000003,,0.007609265681901746,259.472,0.7870000004768372,0.014168699391494885
259.758621,,0.008495058567961278,259.94,0.7039999961853027,-0.1680623018650411
260.224138,,0.007495577655168999,260.402,0.7649999856948853,-0.03651682979355232
260.689655,,0.004457106385993195,260.865,0.7829999923706055,0.0014401628141741637
261.155172,,0.0016400293373689625,261.335,0.781000018119812,-0.00404211451279078
261.62068999999997,,0.0009955331629482333,261.801,0.7710000276565552,-0.026785495610533974
262.086207,,0.001737652121733752,262.266,0.7710000276565552,-0.027545490340634922
262.551724,,0.0012791836784532373,262.732,0.7860000133514404,0.004594386773329834
263.017241,,0.0016340584906995017,263.191,0.765999972820282,-0.03928176264394115
263.482759,,0.005376851881085752,263.657,0.7839999794960022,-0.00012337437195780038
263.94827599999996,,0.0072637203683212,264.121,0.7900000214576721,0.01313908435291312
264.413793,,0.006521912161891493,264.586,0.7870000004768372,0.00703586116122366
264.87931,,0.005064318801341373,265.058,0.7710000276565552,-0.027161129282537808
265.34482799999995,,0.005441308992270535,265.517,0.7699999809265137,-0.028471085600780044
265.810345,,0.008273772848235852,265.98,0.753000020980835,-0.06445921253748003
266.27586199999996,,0.011541700711879911,266.45,0.7889999747276306,0.015168681394346753
266.741379,,0.01225445873723037,266.911,0.7870000004768372,0.012120118895867704
267.206897,,0.00917741449727157,267.381,1.0950000286102295,0.6845310748038647
267.672414,,0.004116033958324325,267.846,0.7990000247955322,0.04107927727050135
268.137931,,0.00015185399363552761,268.31,0.7879999876022339,0.018534048650746704
268.603448,,0.001303404740911665,268.776,0.6600000262260437,-0.25897394051220785
269.06896600000005,,0.0010413403168175843,269.236,0.7839999794960022,0.012431577803669757
269.53448299999997,,8.006545018165263e-05,269.701,0.7739999890327454,-0.008244473003060306
270.0,,0.0013598738077903409,270.166,0.765999972820282,-0.024738486250507254
270.465517,,0.002751133911653755,270.632,0.7860000133514404,0.019565663540588044
270.931034,,0.0027644679310685036,271.099,0.7699999809265137,-0.014788009569158447
271.396552,,0.0008250521252226644,271.564,0.8019999861717224,0.05519223625242276
271.86206899999996,,0.0017679158442169226,272.028,0.7910000085830688,0.031242046844321324
272.327586,,0.003305994410674786,272.49,0.8159999847412109,0.08547499223691177
272.793103,,0.0037767556812758774,272.958,0.7620000243186951,-0.03264621975133211
273.258621,,0.004479964377356205,273.421,0.8119999766349792,0.07558511574058333
273.724138,,0.005770579080787698,273.891,0.5350000262260437,-0.5288108877287613
274.18965499999996,,0.006436211848821925,274.355,0.7620000243186951,-0.035353776375644325
274.655172,,0.005666539588602442,274.82,0.7910000085830688,0.026583049549811798
275.12069,,0.0045414397782191996,275.286,0.7850000262260437,0.012163862476835666
275.586207,,0.004693798532345378,275.751,0.7620000243186951,-0.03935358406367641
276.051724,,0.005956656956448734,276.213,0.765999972820282,-0.03206555665322144
276.517241,,0.006203969466964285,276.678,0.7910000085830688,0.02100116837490129
276.98275900000004,,0.003712836778716,277.143,0.7950000166893005,0.028387889615570278
277.448276,,0.0006826585744200985,277.609,0.7739999890327454,-0.0185783781626783
277.913793,,0.004052622553883913,278.076,0.7720000147819519,-0.023999847415675252
278.37931,,0.003887888927233981,278.535,0.7710000276565552,-0.027059821643083348
278.844828,,0.00013073795785275403,279.002,0.7860000133514404,0.004948869800118497
279.31034500000004,,0.004819557265823871,279.465,0.7889999747276306,0.01104530088708812
279.77586199999996,,0.007694566682841904,279.933,0.7870000004768372,0.006493933811113221
280.241379,,0.0065424021085765515,280.395,0.765999972820282,-0.039201325156454685
280.706897,,0.002423595314249989,280.866,0.7720000147819519,-0.025825236249640837
281.172414,,0.0011129628342961418,281.328,0.796999990940094,0.029183102358942708
281.637931,,0.0013544241460667948,281.794,0.7839999794960022,0.001624328972163116
282.10344799999996,,0.0005551030349978876,282.258,0.7670000195503235,-0.034451976326625174
282.568966,,0.0009413544214337016,282.724,0.800000011920929,0.03857039670143502
283.034483,,0.0018811252488589005,283.188,0.8539999723434448,0.15747704958361744
283.5,,0.005704720186646609,283.654,0.7870000004768372,0.012861708798854354
283.965517,,0.007410662989270313,284.121,0.7789999842643738,-0.0031633163566669852
284.431034,,0.006283481499370489,284.587,0.7760000228881836,-0.008290688106076229
284.89655200000004,,0.0035056412386180458,285.051,0.7699999809265137,-0.01999454352669361
285.362069,,4.04078282881488e-05,285.513,0.7720000147819519,-0.014352564460560057
285.827586,,0.003296183527509867,285.98,0.7720000147819519,-0.013191728491509118
286.293103,,0.004730614786141984,286.443,0.7870000004768372,0.02048912386517041
286.758621,,0.0026523357947324565,286.906,0.7720000147819519,-0.011380004861263199
287.22413800000004,,0.002060301118849473,287.376,0.7789999842643738,0.00446521493132474
287.689655,,0.006288478218150324,287.841,0.7739999890327454,-0.006067529680710218
288.155172,,0.007660671966637939,288.304,0.7820000052452087,0.011477121503180423
288.62069,,0.006471879232779702,288.77,0.7739999890327454,-0.006084897394114478
289.086207,,0.004471749089458805,289.236,0.7839999794960022,0.015325209525266137
289.55172400000004,,0.002690718661785798,289.701,0.7889999747276306,0.02561106019470484
290.01724099999996,,0.0009880862623212491,290.165,0.7990000247955322,0.0465792755005488
290.482759,,0.0008904032727612167,290.631,0.7879999876022339,0.021610953265809894
290.948276,,0.002568151093638295,291.091,0.7720000147819519,-0.01440395921201251
291.413793,,0.003346701322033601,291.557,0.7910000085830688,0.02571635180209516
291.87931,,0.002906770522997195,292.024,0.7739999890327454,-0.012671937258894012
292.344828,,0.0015795911367894582,292.487,0.7910000085830688,0.022979270105452407
292.81034500000004,,3.5289558130208615e-05,292.954,0.6679999828338623,-0.2463736289238006
293.275862,,0.0011428703675611797,293.417,0.7720000147819519,-0.02112516297506594
293.74137900000005,,0.0015929004611112234,293.88,0.75,-0.07029569112898154
294.206897,,0.0011823806279647753,294.35,0.7910000085830688,0.0179205833536305
294.672414,,0.00018507102726722218,294.815,0.7739999890327454,-0.02005731548915501
295.13793100000004,,0.000620296722302898,295.279,0.7960000038146973,0.027129848639892828
295.603448,,0.00041580579216334576,295.745,0.7699999809265137,-0.03003723334451873
296.068966,,0.0008307354670589479,296.209,0.7699999809265137,-0.030322634515451377
296.534483,,0.0021683438407294545,296.675,0.7820000052452087,-0.004218867992722426
297.0,,0.0025414319834068805,297.14,0.7919999957084656,0.01777458434980481
297.46551700000003,,0.0016955105606579614,297.606,0.7680000066757202,-0.034065487518178894
297.931034,,9.658117817940098e-06,298.065,0.7889999747276306,0.012359453777496419
298.396552,,0.0020703904898033087,298.531,0.7699999809265137,-0.028157036499883006
298.862069,,0.0038859213122242877,298.999,0.7879999876022339,0.01211311262241023
299.327586,,0.004373137149423809,299.462,0.765999972820282,-0.0346196463722065
299.79310300000003,,0.0029350397413379576,299.925,0.7910000085830688,0.021149397344158757
300.258621,,0.0004523547965305779,300.394,0.7699999809265137,-0.02323546102523716
300.724138,,0.001280733523334265,300.862,0.7770000100135803,-0.006597314308753937
301.189655,,0.0012173254491536416,301.325,0.7839999794960022,0.010017564737610526
301.65517200000005,,0.000333979057915896,301.79,0.7599999904632568,-0.04097187276285168
302.12069,,0.0026405007387439714,302.25,0.7990000247955322,0.04518635334665084
302.586207,,0.005200290750833089,302.716,0.7770000100135803,-0.001697386606379695
303.05172400000004,,0.007117028884198412,303.181,0.7739999890327454,-0.007364217411989659
303.517241,,0.0066816564305373985,303.646,0.7870000004768372,0.02162231268272254
303.982759,,0.0026630797119212924,304.113,0.7730000019073486,-0.008440560408512758
304.448276,,0.003762262402985802,304.579,0.7879999876022339,0.024437716579301265
304.913793,,0.008926860747286332,305.047,0.7699999809265137,-0.01482532306139885
305.37931000000003,,0.00928143243295767,305.51,0.843999981880188,0.14610399702897484
305.844828,,0.004678342154010704,305.973,0.7850000262260437,0.017040184652023862
306.310345,,0.0009736171817006304,306.435,0.8629999756813049,0.18623533139991003
306.775862,,0.003032492051464258,306.903,0.5830000042915344,-0.4247217782629694
307.241379,,0.0006125786818212013,307.365,0.7889999747276306,0.02297276469688924
307.70689699999997,,0.0025621009232248667,307.831,0.7699999809265137,-0.019663338286871695
308.172414,,0.002255878360552288,308.301,0.7390000224113464,-0.08853588108359277
308.637931,,0.0015818785672063913,308.76,0.7689999938011169,-0.024562318680482954
309.103448,,0.004822013745068424,309.231,0.7870000004768372,0.013261075029906389
309.568966,,0.003799807481412719,309.69,0.7850000262260437,0.007550513562733251
310.034483,,0.0008108790031200912,310.161,0.597000002861023,-0.4033101606011199
310.5,,0.005089330973939105,310.62,0.7480000257492065,-0.07549351973912882
310.96551700000003,,0.006101734093922661,311.091,0.828000009059906,0.09779484353618359
311.431034,,0.004338301493085555,311.55,0.7879999876022339,0.009838562807338145
311.896552,,0.0023506367347019344,312.021,0.7879999876022339,0.009247697162333772
312.362069,,0.0018573285791288854,312.483,0.7409999966621399,-0.0935027959908448
312.827586,,0.0024137617554183663,312.947,0.7870000004768372,0.006608591450705438
313.29310300000003,,0.002576101602414466,313.417,0.7950000166893005,0.024183507912250875
313.758621,,0.0019549303680421997,313.88,0.765999972820282,-0.03860332242491108
314.224138,,0.0016944814896798386,314.343,0.7820000052452087,-0.0031153416948003203
314.689655,,0.0028435249227898945,314.808,0.7710000276565552,-0.026235510701682396
315.155172,,0.004848973550382434,315.273,0.7490000128746033,-0.07313280126863239
315.62068999999997,,0.006111297454236618,315.738,0.8019999861717224,0.04352383950929315
316.086207,,0.005621514719464694,316.206,0.7739999890327454,-0.016171513756673632
316.551724,,0.0036342958646796066,316.671,0.7889999747276306,0.01789214257776508
317.017241,,0.0010786764942698139,317.136,0.7900000214576721,0.021487868495373402
317.482759,,0.001236487680277991,317.602,0.7720000147819519,-0.016323143826469252
317.94827599999996,,0.0029219751236016995,318.066,0.7730000019073486,-0.012797736650618065
318.413793,,0.003881960300475097,318.525,0.7910000085830688,0.02766368945822842
318.87931000000003,,0.004153369591711016,318.995,0.7689999938011169,-0.019161711176045176
319.344828,,0.0038772940482588373,319.458,0.7870000004768372,0.020982346709753713
319.810345,,0.003212067455009849,319.921,0.8519999980926514,0.16331779959065154
320.275862,,0.0022355492622998943,320.391,0.7599999904632568,-0.03662229889332476
320.741379,,0.0012110509894362584,320.862,0.7649999856948853,-0.025479544126397025
321.20689699999997,,0.0009227869756699592,321.317,0.7730000019073486,-0.008056869227321312
321.672414,,0.0020879049947941665,321.783,0.7860000133514404,0.02000324181263176
322.137931,,0.004023513815850581,322.247,0.7789999842643738,0.004242817269086024
322.603448,,0.00460877096694732,322.713,0.7710000276565552,-0.01392796548614409
323.068966,,0.002543894561313753,323.18,0.7639999985694885,-0.030129466536697527
323.53448299999997,,0.0006838553179097867,323.645,0.7319999933242798,-0.1009773846238876
324.0,,0.0022122720263665382,324.11,0.7950000166893005,0.035001908313312305
324.465517,,0.0011110927799350262,324.576,0.8050000071525574,0.055410742937069234
324.931034,,0.0008551795958095381,325.036,0.7870000004768372,0.01476059856945429
325.396552,,0.001828646182954273,325.506,0.7699999809265137,-0.023722702002109415
325.86206899999996,,0.0020614893125983883,325.969,0.7829999923706055,0.0031873290862385016
326.327586,,0.0031902350517303926,326.431,0.7699999809265137,-0.026468538456078605
326.793103,,0.0061122125807267814,326.899,0.8489999771118164,0.1444345033790087
327.258621,,0.009867163473974674,327.361,0.7870000004768372,0.008311803834595252
327.724138,,0.012203771038861671,327.827,0.7720000147819519,-0.025217965298352442
328.189655,,0.011338679278331074,328.29,0.7910000085830688,0.015548943573163443
328.655172,,0.0076930751752728715,328.756,0.7699999809265137,-0.03058695100467739
329.12068999999997,,0.003844096542674889,329.221,0.7990000247955322,0.032465906467501554
329.586207,,0.0021733704648526256,329.687,0.7879999876022339,0.008633898456356967
330.051724,,0.0024090214341508996,330.154,0.7850000262260437,0.002488923031060735
330.517241,,0.0020092152502837702,330.62,0.7689999938011169,-0.03173351811594429
330.982759,,0.0007253213931952829,331.084,0.7699999809265137,-0.0286941595509483
331.44827599999996,,0.004472817307190011,331.55,0.7910000085830688,0.018116154329083218
331.913793,,0.006420083822598269,332.014,0.7480000257492065,-0.07434254923082222
332.37931,,0.005639488016021728,332.476,0.7879999876022339,0.014151968357508156
332.844828,,0.0042149256691743076,332.947,0.7870000004768372,0.013405405567555744
333.310345,,0.004868213743639372,333.41,0.7749999761581421,-0.011267922012607245
333.77586199999996,,0.007743303519013349,333.873,0.6039999723434448,-0.3823584288700514
334.241379,,0.009865367457128316,334.335,0.7889999747276306,0.022088626575310397
334.706897,,0.008169725628076756,334.801,0.7860000133514404,0.016847377806152163
335.17241399999995,,0.00296204904333296,335.268,0.7870000004768372,0.020180459544517346
335.637931,,0.0023005405402731285,335.734,0.7649999856948853,-0.026772843154761552
336.103448,,0.004594568254230278,336.198,0.765999972820282,-0.02382678583775052
336.56896600000005,,0.0037366600679148657,336.664,0.7910000085830688,0.031172699800641645
337.034483,,0.0012838951711717967,337.129,0.7990000247955322,0.048884531693272365
337.5,,0.0014242385648259473,337.594,0.7689999938011169,-0.016452334002947842
337.965517,,0.003354830874835577,338.062,0.7789999842643738,0.005094722620946912
338.431034,,0.0032375653915528604,338.52,0.765999972820282,-0.023722788042291876
338.89655200000004,,0.0005817834185931312,338.988,0.7720000147819519,-0.011386663569417125
339.36206899999996,,0.00295999111755291,339.45,0.7940000295639038,0.03559003045663172
339.827586,,0.004706921216454061,339.918,0.7910000085830688,0.027913143403233816
340.293103,,0.0038850464035200287,340.387,0.7630000114440918,-0.03438183563832486
340.758621,,0.0024600467721150447,340.846,0.7889999747276306,0.020858090381346197
341.224138,,0.002474352528179269,341.316,0.765999972820282,-0.03072365766934758
341.68965499999996,,0.00342742925776634,341.775,0.7990000247955322,0.03967775259079463
342.155172,,0.0031992829877517015,342.246,0.7739999890327454,-0.016256492322035646
342.62069,,0.0010575605340986441,342.705,0.7889999747276306,0.015027892823055243
343.086207,,0.0013827701012493329,343.173,1.0440000295639038,0.5693099870599918
343.551724,,0.0022849180774044044,343.638,0.777999997138977,-0.011317389579811005
344.01724099999996,,0.0017202219847944986,344.103,0.7850000262260437,0.003023496541448678
344.48275900000004,,0.0011422574371663865,344.569,0.7919999957084656,0.01758527403288839
344.948276,,0.0013629714312712307,345.032,0.7979999780654907,0.03021178627551252
345.413793,,0.0018545107471659192,345.502,0.765999972820282,-0.0396929921980522
345.87931,,0.0018524430628942257,345.965,0.7860000133514404,0.003954943091378079
346.344828,,0.001367756806893792,346.428,0.7739999890327454,-0.021853241891124777
346.81034500000004,,0.0009596767778172286,346.896,0.777999997138977,-0.012552289934509997
347.275862,,0.0009320914621550686,347.357,0.7889999747276306,0.012232000004963125
347.741379,,0.0008912964291975676,347.823,0.7649999856948853,-0.03902870296586046
348.206897,,5.015598372559592e-05,348.287,0.7870000004768372,0.010104090187243984
348.672414,,0.0017833179272727818,348.753,0.8519999980926514,0.15305869773159442
349.13793100000004,,0.0034439702380106526,349.217,0.7689999938011169,-0.02632729904294497
349.60344799999996,,0.0030767081802822913,349.682,0.7879999876022339,0.016561902585626686
350.068966,,0.00019444563422259917,350.147,0.7990000247955322,0.0420276242439377
350.534483,,0.005422968487477176,350.613,0.7689999938011169,-0.021872575649126556
351.0,,0.010459558430753557,351.081,0.765999972820282,-0.02703712209116403
351.465517,,0.013131583419578662,351.546,0.7850000262260437,0.015597485614790692
351.93103399999995,,0.012396545262599697,352.009,0.7699999809265137,-0.016012122491953374
352.396552,,0.009065348623822632,352.472,0.7839999794960022,0.015355583869752916
352.862069,,0.005074232027144164,352.94,0.7850000262260437,0.01817019731047549
353.32758600000005,,0.0015782652914897663,353.402,0.765999972820282,-0.022839437858906762
353.793103,,0.0016670896854114007,353.865,0.7860000133514404,0.020854680728566333
354.258621,,0.004666747261720926,354.335,0.7929999828338623,0.035958788427524965
354.72413800000004,,0.006046661286899841,354.801,0.7870000004768372,0.0224778514188095
355.189655,,0.004611180160416848,355.266,0.7599999904632568,-0.037005700968677835
355.655172,,0.0014089178494617151,355.731,0.8029999732971191,0.05578518720374091
356.12069,,0.0008569930883242239,356.191,0.7760000228881836,-0.0041321105662073775
356.586207,,0.0004252869200957307,356.657,0.8059999942779541,0.05996478304549837
357.05172400000004,,0.0020820601470880173,357.121,0.7850000262260437,0.012821468550374387
357.517241,,0.004656243103349972,357.587,0.7940000295639038,0.030951553593680993
357.982759,,0.00572532979134947,358.059,0.7699999809265137,-0.02285441112611516
358.448276,,0.004913278135367342,358.517,0.7699999809265137,-0.024366582324172832
358.913793,,0.0027126965436886953,358.98,0.7879999876022339,0.013390193794677391
359.37931000000003,,0.0001558823450903894,359.45,0.7870000004768372,0.009852239607186397
359.844828,,0.0014310045664227577,359.914,0.9110000133514404,0.27879030556042705
360.310345,,0.0014188055514983303,360.376,0.7860000133514404,0.005429960891565555
360.775862,,0.0009667138400554485,360.842,0.8100000023841858,0.05690398107539659
361.241379,,0.0020833912397981756,361.305,0.7369999885559082,-0.10271260412408632
361.706897,,0.0048858800087239656,361.771,0.7699999809265137,-0.031137501234846557
362.172414,,0.006862709836192482,362.236,0.7870000004768372,0.005844600315950601
362.63793100000004,,0.0060943015665598475,362.702,0.7990000247955322,0.03220235844607017
363.103448,,0.004322982662339531,363.166,0.7820000052452087,-0.004357734698519302
363.568966,,0.005026378557107873,363.632,0.8119999766349792,0.061727415790221715
364.034483,,0.00870838530576364,364.099,0.7670000195503235,-0.035359506029074984
364.5,,0.01200526327992648,364.564,0.7919999957084656,0.02025534666751997
364.96551700000003,,0.011773782555730753,365.025,0.7739999890327454,-0.017650936921662964
365.431034,,0.00839722120133767,365.495,0.7739999890327454,-0.01622150726722857
365.896552,,0.004400988031394646,365.958,0.7839999794960022,0.007069958074667281
366.362069,,0.0012301676228218402,366.42,0.765999972820282,-0.03061183956567085
366.827586,,0.001523268639936718,366.888,0.7630000114440918,-0.03563307121197147
367.29310300000003,,0.004496452983168215,367.35,0.7900000214576721,0.024638819390127468
367.758621,,0.007383911166562061,367.816,0.7910000085830688,0.028155400448821928
368.224138,,0.009523018646257535,368.287,0.7369999885559082,-0.08830628274831202
368.689655,,0.010980476470284486,368.745,0.7710000276565552,-0.01323761318932486
369.155172,,0.01241445744442326,369.21,0.765999972820282,-0.02335829231723481
369.62068999999997,,0.013875724915878154,369.675,0.7900000214576721,0.02945695506252676
370.086207,,0.014474784940201314,370.14,0.781000018119812,0.010115560022315688
370.55172400000004,,0.013602505068724307,370.606,0.7680000066757202,-0.01821022608414881
371.017241,,0.01182854196249523,371.073,0.6449999809265137,-0.28646037213433906
371.482759,,0.010078898206656679,371.539,0.6620000004768372,-0.2499685944584236
371.948276,,0.008481017778732641,372.002,0.7440000176429749,-0.07211689331879742
372.413793,,0.006669825522483404,372.472,0.7879999876022339,0.022722937878374618
372.87931000000003,,0.004848236422533383,372.932,0.7870000004768372,0.019335698075296826
373.344828,,0.0036254802909995915,373.402,0.765999972820282,-0.02777435487172298
373.810345,,0.002657381624040652,373.862,0.7760000228881836,-0.007454035375806455
374.275862,,0.00032718318604516516,374.332,0.7699999809265137,-0.022054597042342486
374.741379,,0.004394644660133746,374.79,0.7950000166893005,0.03086894440339127
375.20689699999997,,0.009849376823080003,375.255,0.7889999747276306,0.016288776999576975
375.672414,,0.012203065377047805,375.721,0.7760000228881836,-0.013460220726924479
376.137931,,0.008847935728258429,376.187,0.7620000243186951,-0.04526297633315625
376.603448,,0.0014177303773378535,376.653,0.8119999766349792,0.06253328415507133
377.068966,,0.005240596989286864,377.121,0.902999997138977,0.25985840926291354
377.53448299999997,,0.007438413374349177,377.586,0.781000018119812,-0.006633857080404572
378.0,,0.005517862141312221,378.047,0.7739999890327454,-0.02232840089955875
378.465517,,0.002446242653800124,378.51,0.7710000276565552,-0.029044319839641466
378.931034,,0.0006848609521279614,378.98,0.7689999938011169,-0.033313037670177306
379.396552,,0.000832975575718959,379.443,0.7940000295639038,0.021507759967184015
379.862069,,0.0021310646149656103,379.906,0.7699999809265137,-0.03017059511049762
380.327586,,0.0031985184340718883,380.376,0.7720000147819519,-0.024968762634314585
380.79310300000003,,0.0026821976363855396,380.842,0.8069999814033508,0.05233717978848137
381.258621,,0.00015426228991887803,381.305,0.781000018119812,-0.0030776483648854965
381.724138,,0.003361438645171491,381.771,0.6620000004768372,-0.2609712909511658
382.189655,,0.006060860568249599,382.236,0.7820000052452087,0.0019227236886469338
382.655172,,0.006807034046076927,382.702,0.7649999856948853,-0.03361104564741461
383.12068999999997,,0.005997903931356284,383.162,0.7889999747276306,0.02018259612727559
383.586207,,0.004963146707780027,383.628,0.8379999995231628,0.12840030392432414
384.051724,,0.004405860420229491,384.096,0.7419999837875366,-0.07937315543157059
384.517241,,0.003653449760144497,384.562,0.8920000195503235,0.24867190938291736
384.982759,,0.0018729305957203952,385.024,0.8600000143051147,0.1800381296027187
385.44827599999996,,0.00022409385454073112,385.487,0.7919999957084656,0.032775171143442444
385.913793,,0.0007920078137012064,385.954,0.7860000133514404,0.020360002087422526
386.37931,,0.0008307528373863815,386.417,0.7739999890327454,-0.0053778819305575504
386.84482799999995,,0.0030493512715181015,386.88,0.8859999775886536,0.2387748906390346
387.310345,,0.003777194256204373,387.35,0.7870000004768372,0.022968395976754662
387.775862,,0.0027683127330225417,387.816,0.765999972820282,-0.023166387449058426
388.241379,,0.001591210480807123,388.279,0.7870000004768372,0.0219488201274654
388.70689699999997,,0.001422586528675755,388.745,0.7739999890327454,-0.007243807941679597
389.172414,,0.0014912836922779426,389.21,0.7739999890327454,-0.008320865681801733
389.637931,,0.00020789327120174767,389.676,0.7850000262260437,0.014393721722701073
390.103448,,0.002303191003944516,390.136,0.7990000247955322,0.043510070902391756
390.56896600000005,,0.0036730339299736636,390.601,0.7870000004768372,0.015890902510881336
391.03448299999997,,0.001934268175911852,391.066,0.7620000243186951,-0.04009598902000035
391.5,,0.0018487091002447626,391.532,0.7889999747276306,0.0172079892372149
391.965517,,0.004485360974231831,391.995,0.7620000243186951,-0.04308623075338048
392.431034,,0.003963448613257253,392.465,0.7879999876022339,0.012182287176272951
392.896552,,0.001039288982446621,392.929,0.7889999747276306,0.013122641614546869
393.36206899999996,,0.0022564223098162197,393.391,0.8920000195503235,0.23646456762735513
393.827586,,0.004657190466165215,393.862,0.7919999957084656,0.01775492299424631
394.293103,,0.005858727263593462,394.324,0.9279999732971191,0.31344798927154727
394.75862099999995,,0.005396425670466851,394.79,0.7839999794960022,-0.0006199094248290646
395.224138,,0.0023801564390611993,395.254,0.7860000133514404,0.003663501959879213
395.68965499999996,,0.002917446540867285,395.72,0.7649999856948853,-0.04189459608986264
396.155172,,0.007590027298103479,396.18,0.800000011920929,0.0348130658900535
396.62069,,0.007804805401757466,396.645,0.7649999856948853,-0.04073753845812929
397.086207,,0.002996844325011061,397.11,0.7720000147819519,-0.024559876898260242
397.551724,,0.00257647637055201,397.576,0.7900000214576721,0.015778874247774397
398.017241,,0.003819615832772423,398.043,0.7900000214576721,0.01706386731225175
398.48275900000004,,8.929483547863087e-05,398.506,0.7739999890327454,-0.016387473377425025
398.94827599999996,,0.004462810974914095,398.976,0.7450000047683716,-0.07808378429197448
399.413793,,0.005557529962094446,399.439,0.7699999809265137,-0.022102640388794545
399.87931,,0.002837102017565936,399.906,0.796999990940094,0.038220414783457245
400.344828,,0.000506941774723193,400.369,0.781000018119812,0.004800988394626175
400.810345,,0.001083632955407548,400.834,0.7710000276565552,-0.015651898014131627
401.27586199999996,,0.0018017683406476217,401.297,0.7889999747276306,0.024750437391062457
401.741379,,0.005759616773735824,401.763,0.7680000066757202,-0.01999770077014202
402.206897,,0.007441253384088738,402.228,0.7900000214576721,0.02872173461642666
402.672414,,0.005349029417143307,402.694,0.7480000257492065,-0.06223136066522958
403.137931,,0.0009297475123893918,403.155,0.7889999747276306,0.02738706958108663
403.60344799999996,,0.0027407600521925954,403.62,0.7710000276565552,-0.011799356128648474
404.068966,,0.00318133733532147,404.088,0.7580000162124634,-0.04035835675597227
404.534483,,6.819678505663913e-05,404.554,0.7900000214576721,0.028863456316458452
405.0,,0.005244719642630641,405.017,0.7739999890327454,-0.006732296747406915
405.465517,,0.009148323647268624,405.48,0.7839999794960022,0.014097687593154717
405.931034,,0.008899823024883988,405.947,0.7860000133514404,0.01730918539111302
406.39655200000004,,0.004108094404994888,406.417,0.7689999938011169,-0.02102769376691315
406.862069,,0.0024810210386175557,406.88,0.7680000066757202,-0.024620408537484675
407.327586,,0.007177533723879422,407.342,0.8809999823570251,0.22008403446809963
407.793103,,0.008446517678144402,407.808,0.7889999747276306,0.018144953262859267
408.258621,,0.00748517270787695,408.273,0.781000018119812,-0.0007630987988896155
408.72413800000004,,0.005955565681600694,408.738,0.7739999890327454,-0.017424941340539436
409.18965499999996,,0.00413290208624833,409.203,0.8899999856948853,0.23399997182872379
409.655172,,0.0017936880834689432,409.669,0.7910000085830688,0.017170375017058297
410.12069,,6.012074957108767e-05,410.135,0.7910000085830688,0.016215409110010785
410.586207,,0.0007944983352497729,410.601,0.765999972820282,-0.038990736912746064
411.05172400000004,,0.003762929047889985,411.066,0.765999972820282,-0.03949396496658485
411.51724099999996,,0.005949478091229157,411.525,0.7609999775886536,-0.05063920887822222
411.982759,,0.005033393144384838,411.995,0.7720000147819519,-0.026667250362861536
412.448276,,0.002477965310934189,412.458,0.7879999876022339,0.008456789788093607
412.913793,,0.0014786429501484678,412.921,0.7710000276565552,-0.028063280962891478
413.37931,,0.002610430428910136,413.391,0.7699999809265137,-0.02949031338952126
413.844828,,0.0035304713190233167,413.858,0.9269999861717224,0.3135236195215537
414.31034500000004,,0.002783278681758269,414.32,0.765999972820282,-0.03608559144290989
414.775862,,0.0017440711307514117,414.786,0.7879999876022339,0.013147134699483823
415.241379,,0.00208631174113287,415.246,0.7990000247955322,0.03852162602494835
415.706897,,0.003034310094430645,415.712,0.7910000085830688,0.02256571755104285
416.172414,,0.002660239251612451,416.177,0.7699999809265137,-0.021694512615167777
416.63793100000004,,0.0010596998907117735,416.643,0.7820000052452087,0.005912287810975045
417.103448,,0.00021916334034821194,417.11,0.7710000276565552,-0.016663508659803348
417.568966,,0.0005351178970618382,417.575,0.7889999747276306,0.02382517459670819
418.034483,,0.00047568724639714176,418.037,0.6449999809265137,-0.28878463414884886
418.5,,0.004676478021497551,418.5,0.7739999890327454,-0.006817348611750951
418.96551700000003,,0.00977264803233534,418.969,0.824999988079071,0.10499628625007887
419.43103399999995,,0.011080923806176682,419.433,0.7839999794960022,0.01613763141553248
419.896552,,0.006801235971517429,419.895,0.777999997138977,0.0032806640171583862
420.362069,,0.0002841398913540675,420.365,0.7870000004768372,0.022845319101189032
420.827586,,0.0033070456902642657,420.831,0.7739999890327454,-0.005776701539090639
421.293103,,0.0018354795701056553,421.294,0.7850000262260437,0.017642086386381598
421.758621,,0.002465857225291656,421.76,0.7720000147819519,-0.011456623688491036
422.22413800000004,,0.005550123026983177,422.225,0.777999997138977,0.0006331712887868326
422.689655,,0.004992117738843032,422.69,0.7870000004768372,0.019083730072481226
423.15517200000005,,0.001603926805951684,423.155,0.7720000147819519,-0.014892566996048594
423.62069,,0.0016653213996261431,423.621,0.8519999980926514,0.15800452290224246
424.086207,,0.0025472863433434172,424.08,0.7839999794960022,0.008407621640822708
424.55172400000004,,0.0015134865837012693,424.546,0.7680000066757202,-0.027910266532821526
425.017241,,0.0010079988168605917,425.014,0.7620000243186951,-0.04240988029984111
425.482759,,0.002490604674811478,425.476,0.7889999747276306,0.015061183499283455
425.948276,,0.00455931714544442,425.947,0.7850000262260437,0.0051118352037875904
426.413793,,0.0046013260845122516,426.409,0.7620000243186951,-0.04607691999662034
426.87931000000003,,0.0020944973349851102,426.873,0.7870000004768372,0.007496855251651642
427.344828,,0.0007986646307003708,427.335,0.7720000147819519,-0.025860539665858103
427.810345,,0.0020852569477328342,427.801,0.7870000004768372,0.006376868014161911
428.275862,,0.0020403533787869558,428.266,0.7910000085830688,0.014898187733741755
428.741379,,0.001787113419061356,428.732,0.7739999890327454,-0.02207744838040173
429.20689699999997,,0.0011315660614220988,429.199,0.7649999856948853,-0.0413720329152113
429.672414,,0.0009071212109065308,429.664,0.7910000085830688,0.015827938889585943
430.137931,,0.004100703863614349,430.132,0.7900000214576721,0.014429671228963015
430.603448,,0.006789944612845685,430.59,0.7879999876022339,0.011054246124696486
431.068966,,0.007624974356928392,431.062,0.7850000262260437,0.0056714846854725755
431.534483,,0.006862967293069585,431.52,0.9549999833106995,0.37733353039532697
432.0,,0.005809928867674557,431.988,0.765999972820282,-0.03303782407448494
432.46551700000003,,0.005284396815753913,432.451,0.7910000085830688,0.022876977489382867
432.931034,,0.004917973100959229,432.921,0.7940000295639038,0.030869255589302952
433.396552,,0.00395949526537798,433.383,0.7860000133514404,0.014859564086838091
433.862069,,0.002354926844461234,433.849,0.7879999876022339,0.020555608646111823
434.327586,,0.0007274418571602944,434.313,0.7699999809265137,-0.01744367347181108
434.79310300000003,,0.0004277349163188795,434.778,0.7739999890327454,-0.00767298104499214
435.258621,,0.0011218379327025288,435.243,0.7910000085830688,0.030227590396414313
435.724138,,0.001533646626900563,435.709,0.7649999856948853,-0.025772579808065733
436.189655,,0.0017048447152390666,436.176,0.7879999876022339,0.024742587862924176
436.655172,,0.0017619983860532769,436.635,0.7699999809265137,-0.01431754276807809
437.12068999999997,,0.0021101656973209226,437.102,0.7649999856948853,-0.025310608812774225
437.586207,,0.0028789452369399247,437.568,0.7889999747276306,0.02662514930268096
438.051724,,0.003249402235348112,438.036,0.7829999923706055,0.012961511577815353
438.517241,,0.0021109630496010043,438.498,0.734000027179718,-0.0946059891642774
438.982759,,0.0002521097573647713,438.961,0.7900000214576721,0.02638724353354391
439.448276,,0.0018691354412105157,439.431,0.7850000262260437,0.014318255894582823
439.913793,,0.0011763646864331302,439.895,0.7699999809265137,-0.019664724596231198
440.37931000000003,,0.0011197792732565027,440.358,0.7870000004768372,0.015982020715452135
440.844828,,0.003072457654918743,440.823,0.7599999904632568,-0.04427604247542877
441.310345,,0.0039196819503984435,441.287,0.7889999747276306,0.017470372460364925
441.775862,,0.004416642218667567,441.753,0.7730000019073486,-0.018777531485097903
442.241379,,0.004901152074841716,442.218,0.7990000247955322,0.036565986600613054
442.70689699999997,,0.004260102811653106,442.683,0.7879999876022339,0.01142810253495309
443.172414,,0.0014838810779021269,443.15,0.7829999923706055,-0.00047301610577637706
443.637931,,0.002205922720809348,443.616,0.7699999809265137,-0.029608352581790353
444.103448,,0.0036670918368651717,444.077,0.7889999747276306,0.011192666895333428
444.568966,,0.0008989093743670263,444.542,0.7710000276565552,-0.02837855217292858
445.03448299999997,,0.004415625442319507,445.006,0.7680000066757202,-0.03502233399288976
445.5,,0.00835125523553337,445.476,0.7910000085830688,0.015229565501074682
445.965517,,0.008911765139919882,445.939,0.7960000038146973,0.02651257670921329
446.431034,,0.007585738254026664,446.402,0.7739999890327454,-0.02079341606606648
446.896552,,0.006223731511052569,446.866,0.7870000004768372,0.008367712343882188
447.36206899999996,,0.004117153933642549,447.335,0.7739999890327454,-0.018928238001663007
447.827586,,2.8765100090361333e-06,447.801,0.7820000052452087,-0.0003168224041329806
448.29310300000003,,0.004182083163460648,448.266,0.7400000095367432,-0.09051979375898468
448.758621,,0.004390492302348726,448.731,0.8109999895095825,0.06554214366088708
449.224138,,0.0001770162990967292,449.191,0.7760000228881836,-0.00929652782172338
449.689655,,0.005008318611511581,449.657,0.7730000019073486,-0.014426258911046074
450.155172,,0.004890992815025337,450.121,0.7699999809265137,-0.019608002270797585
450.62068999999997,,0.0004369362876779357,450.586,0.7870000004768372,0.01868968007664025
451.086207,,0.006195668782268407,451.059,0.7699999809265137,-0.017218997738368973
451.551724,,0.007576866534821741,451.517,0.7720000147819519,-0.011900371321504058
452.017241,,0.004166250517861081,451.98,0.7870000004768372,0.021544041285524083
452.482759,,0.00042630909320387315,452.45,0.7889999747276306,0.02644676184143932
452.94827599999996,,0.002628585234136195,452.913,0.765999972820282,-0.02335251242663268
453.413793,,0.0020055328627658865,453.376,0.7870000004768372,0.022463386861633527
453.87931,,0.0005393980553683514,453.842,0.765999972820282,-0.02347120830055519
454.344828,,1.9958668652169265e-05,454.305,0.7879999876022339,0.02403514946901517
454.810345,,0.0009447773365278497,454.771,0.765999972820282,-0.024546688009993666
455.27586199999996,,0.003132487115177353,455.236,0.7699999809265137,-0.016691006985141626
455.741379,,0.005949408096027717,455.701,0.7860000133514404,0.01712802406786452
456.206897,,0.00787510920483996,456.165,0.7889999747276306,0.022477123633317424
456.672414,,0.00717025333534225,456.631,0.765999972820282,-0.02892900748413827
457.137931,,0.0038165887910980175,457.098,0.734000027179718,-0.10001441473362316
457.603448,,0.00021969086849360484,457.565,0.7900000214576721,0.0205915049262292
458.06896600000005,,0.0009755771990776017,458.028,0.7680000066757202,-0.028722465837219092
458.53448299999997,,0.00024157251499290876,458.49,0.7979999780654907,0.035311705974769216
459.0,,0.0013559940472780677,458.958,0.7889999747276306,0.014478546824872492
459.465517,,0.0004835902361380037,459.421,0.765999972820282,-0.036718165405883366
459.931034,,0.001482886553623314,459.891,0.7739999890327454,-0.020206580667753344
460.39655200000004,,0.0025276476588578975,460.354,0.7870000004768372,0.00739665207352202
460.86206899999996,,0.002613911893080859,460.82,0.7739999890327454,-0.02142424789157751
461.327586,,0.003927978384379055,461.286,0.7900000214576721,0.013171751115779715
461.793103,,0.007754249724438129,461.751,0.777999997138977,-0.012990656945708827
462.258621,,0.01194739683335009,462.21,0.765999972820282,-0.03890932511215521
462.724138,,0.012504619818710878,462.676,0.7900000214576721,0.013839727319594363
463.18965499999996,,0.007943597731453454,463.14,0.7889999747276306,0.012344562065061408
463.655172,,0.001597175045405236,463.607,0.7649999856948853,-0.03905871787390744
464.12069,,0.0012996168742794739,464.074,0.7599999904632568,-0.048895676269299505
464.58620699999994,,0.0008981925151025856,464.539,0.7910000085830688,0.01983775787056806
465.051724,,0.0044306053894403825,465.003,0.7630000114440918,-0.039866804171385634
465.517241,,0.004584433587709902,465.466,0.7870000004768372,0.013780383746475463
465.98275900000004,,0.0012644729670629033,465.936,0.7910000085830688,0.023874929115663433
466.448276,,0.0012492679683951066,466.398,0.5839999914169312,-0.4257512819212106
466.913793,,0.00012905507567595724,466.866,0.7599999904632568,-0.04102668553858731
467.37931,,0.0036742416864418313,467.328,0.7699999809265137,-0.018066192630060634
467.844828,,0.005344665080220954,467.794,0.7870000004768372,0.02000477574012031
468.31034500000004,,0.0034710277183875944,468.261,0.7900000214576721,0.027403978698536068
468.77586199999996,,7.51232360486611e-05,468.72,0.7870000004768372,0.02153473478842105
469.241379,,0.0024610046406265454,469.192,0.7699999809265137,-0.015052544239399864
469.706897,,0.002409057682514578,469.65,0.7870000004768372,0.0222035647181369
470.172414,,0.0005520185246753253,470.118,0.7739999890327454,-0.006136926402849692
470.63793100000004,,0.0015016303461997458,470.583,0.7889999747276306,0.02628872258454553
471.10344799999996,,0.002258996594051953,471.047,0.7860000133514404,0.01927116473036756
471.568966,,0.001248033827254802,471.51,0.7649999856948853,-0.027174999600056017
472.034483,,0.0007257240133027229,471.98,0.9110000133514404,0.2900240604441545
472.5,,0.0023806218409095003,472.443,0.7910000085830688,0.02754312836437373
472.965517,,0.003183447763749778,472.906,0.765999972820282,-0.028095665342139364
473.43103399999995,,0.003640765465424198,473.376,0.7900000214576721,0.0229231638962465
473.89655200000004,,0.004239274080804567,473.841,0.7559999823570251,-0.05247768978154919
474.362069,,0.004463070037636125,474.305,0.7770000100135803,-0.008070458203826165
474.827586,,0.00347242529142835,474.771,0.7760000228881836,-0.011570137804649301
475.293103,,0.0016568205341108801,475.236,0.7739999890327454,-0.017184519232629532
475.758621,,0.0007274524040033553,475.702,0.7720000147819519,-0.022696487101683004
476.22413800000004,,0.001916081543462677,476.162,0.7889999747276306,0.013323466265685743
476.689655,,0.004380331948761031,476.627,0.7649999856948853,-0.03981218086892784
477.155172,,0.005621109769487927,477.091,0.8759999871253967,0.2013660593142619
477.62069,,0.003596572760313298,477.557,0.7749999761581421,-0.019111479533510008
478.086207,,0.0012709646522061917,478.025,0.7820000052452087,-0.004065434375375934
478.55172400000004,,0.005995965271857424,478.487,0.7649999856948853,-0.04107363241438252
479.01724099999996,,0.007173975897565257,478.95,0.796999990940094,0.02890446684543261
479.482759,,0.003829963965262855,479.421,0.7710000276565552,-0.02725438215491901
479.948276,,0.0012514666150923045,479.884,0.7429999709129333,-0.08756201655363599
480.413793,,0.003170640113472884,480.346,0.7720000147819519,-0.02350004914475384
480.87931000000003,,0.0008784402204279092,480.812,0.7889999747276306,0.01457823532219427
481.344828,,0.008033458422524075,481.276,0.7889999747276306,0.015749235165535995
481.810345,,0.01123255210244723,481.742,0.7699999809265137,-0.024380199836191146
482.275862,,0.006047950692118169,482.207,0.7680000066757202,-0.027418003207603094
482.74137900000005,,0.003771654369307775,482.673,0.7870000004768372,0.01531001867344379
483.206897,,0.009243506596953754,483.139,0.7990000247955322,0.04276210335256131
483.672414,,0.005475132110629619,483.605,0.7870000004768372,0.017861786799511382
484.13793100000004,,0.003064699912240267,484.071,0.7860000133514404,0.01682386265407641
484.603448,,0.007550118214303094,484.537,0.7870000004768372,0.020005359145124118
485.068966,,0.004280019558003145,484.999,0.765999972820282,-0.024912206174467676
485.534483,,0.0020098977580382356,485.461,0.8489999771118164,0.15655645345004815
486.0,,0.004078276248453447,485.929,0.7820000052452087,0.011016340612106924
486.46551700000003,,0.00012018422610487153,486.391,0.7879999876022339,0.024292096792232827
486.931034,,0.005004763519567348,486.862,0.7870000004768372,0.02208459061796743
487.396552,,0.00585775163545609,487.324,0.7720000147819519,-0.01085621294409829
487.862069,,0.002269772169028273,487.79,0.7879999876022339,0.02351639152031813
488.327586,,0.0015904549888910485,488.255,0.7960000038146973,0.04025046310037423
488.79310300000003,,0.0028624147279876504,488.721,0.7680000066757202,-0.021635106622058982
489.258621,,0.002829314301109539,489.18,0.7699999809265137,-0.01832349394491123
489.724138,,0.0038812093393890135,489.645,0.7599999904632568,-0.04128661447837133
490.189655,,0.005581377361800067,490.11,0.7710000276565552,-0.018593291229096146
490.655172,,0.005443324985556104,490.575,0.8140000104904175,0.07376132959891343
491.12069,,0.0029669614065930515,491.043,0.7739999890327454,-0.014725660000298681
491.586207,,0.0010042468029885414,491.506,0.7879999876022339,0.014461304734735867
492.05172400000004,,0.0024388170401510546,491.976,0.7870000004768372,0.011035353466319744
492.517241,,0.00650093471615748,492.439,0.7730000019073486,-0.02060815236798846
492.982759,,0.009378013434323623,492.903,0.7559999823570251,-0.05864863146596037
493.448276,,0.008241959065215932,493.365,0.7879999876022339,0.010234239672090846
493.913793,,0.0038331769967036643,493.831,0.7739999890327454,-0.020905031224922075
494.37931000000003,,0.0009283820446836671,494.302,0.7839999794960022,0.0004589262843010805
494.844828,,0.00393798357121326,494.76,0.824999988079071,0.08959069864489161
495.310345,,0.00513364241735968,495.232,0.8569999933242798,0.15935264763353912
495.775862,,0.005560373515848028,495.69,0.8130000233650208,0.06377517096444721
496.241379,,0.005992591113545098,496.162,0.7870000004768372,0.00764089641276756
496.70689699999997,,0.006352740838743995,496.621,0.7739999890327454,-0.01996105611287747
497.172414,,0.006061002399738995,497.088,0.7860000133514404,0.007090239275412322
497.637931,,0.004815893451550883,497.553,0.765999972820282,-0.03541648593235678
498.103448,,0.0030314022093833656,498.021,0.8370000123977661,0.12046102977421386
498.568966,,0.0014604968734468766,498.484,0.7820000052452087,0.0019202784694405872
499.03448299999997,,0.00033435931765392123,498.947,0.8029999732971191,0.04900868270642335
499.5,,0.0010154421135211685,499.416,0.7739999890327454,-0.012825232196671173
499.96551700000003,,0.0033601015950073415,499.88,0.7879999876022339,0.018990993961935813
500.431034,,0.006316418799301893,500.343,0.7879999876022339,0.020234018882915615
500.89655200000004,,0.008337081868185438,500.809,0.7870000004768372,0.019188421717917778
501.362069,,0.008313714449436752,501.276,0.7870000004768372,0.020176662131047667
501.827586,,0.006942286818686251,501.742,0.7689999938011169,-0.01822623211231287
502.293103,,0.00623262458566184,502.2,0.7710000276565552,-0.013257018109529973
502.758621,,0.007771574480967158,502.665,0.7910000085830688,0.030708216329871686
503.224138,,0.011376227317998557,503.133,0.765999972820282,-0.02359696901161906
503.68965499999996,,0.015085388998961826,503.598,0.7129999995231628,-0.13914173942149005
504.15517200000005,,0.016477993273065348,504.065,0.7860000133514404,0.01958716080704187
504.62068999999997,,0.014367365159789052,504.531,0.7599999904632568,-0.03759530134009496
505.08620699999994,,0.009480836276247679,504.992,0.6579999923706055,-0.2605647776414525
505.55172400000004,,0.003739633857836511,505.461,0.7889999747276306,0.023902708115880893
506.017241,,0.0009124408331857289,505.925,0.7680000066757202,-0.02294085490841735
506.48275899999993,,0.0033302352868272737,506.387,0.777999997138977,-0.002366975160707942
506.948276,,0.0036973913732379414,506.853,0.7689999938011169,-0.023270505518726767
507.413793,,0.0036581347627585178,507.319,0.7889999747276306,0.018964083690396264
507.87931,,0.005386156625535758,507.784,0.7609999775886536,-0.04337763054126527
508.344828,,0.009715128196747068,508.251,0.7860000133514404,0.009789129333471668
508.810345,,0.014997981710219344,508.71,0.7699999809265137,-0.02628869681733758
509.27586199999996,,0.01827316840543894,509.176,0.7889999747276306,0.01400418847188795
509.74137900000005,,0.018003546529516846,509.642,0.7630000114440918,-0.04359038385740746
510.20689699999997,,0.015576147845527697,510.107,0.7710000276565552,-0.02693066998384803
510.67241399999995,,0.01370406301502732,510.573,0.7879999876022339,0.009540600713476961
511.13793100000004,,0.013278196557051558,511.035,0.7730000019073486,-0.023483328187078892
511.603448,,0.01224615566674426,511.505,0.7870000004768372,0.006905251484644976
512.0689659999999,,0.008144160301440561,511.969,0.7860000133514404,0.004849116949171558
512.534483,,0.0016676404035643583,512.432,0.765999972820282,-0.03837085023597573
513.0,,0.003213575286923746,512.895,0.7870000004768372,0.00795284505160259
513.465517,,0.0034160587877776734,513.365,0.7850000262260437,0.00436878087435218
513.931034,,0.00022540656575419625,513.83,0.7570000290870667,-0.05568352357983509
514.396552,,0.002602742942494184,514.293,0.777999997138977,-0.008835791001672762
514.862069,,0.0035076934003630328,514.759,0.7870000004768372,0.011980809052522728
515.327586,,0.0038726048970811194,515.224,0.7680000066757202,-0.028129368255766146
515.793103,,0.004238259733624564,515.69,0.7929999828338623,0.02765644775520812
516.258621,,0.0026103874288796363,516.155,0.8019999861717224,0.048579314461059404
516.724138,,0.0019028326718476295,516.62,0.7649999856948853,-0.030760872367582973
517.189655,,0.005952671308124758,517.08,0.7850000262260437,0.013996782954496993
517.655172,,0.005127313196857561,517.546,0.7689999938011169,-0.01979912457221313
518.1206900000001,,0.00034883678798258927,518.014,0.7680000066757202,-0.02107016410029968
518.5862070000001,,0.005410626895078949,518.476,0.796999990940094,0.04283561097371562
519.051724,,0.00581567429430509,518.946,0.7850000262260437,0.017212980930075682
519.517241,,0.002279985687701926,519.409,0.7229999899864197,-0.11756303978630094
519.982759,,0.0013719365989513395,519.873,0.7910000085830688,0.030654474250477314
520.448276,,0.002554937459524775,520.336,0.7739999890327454,-0.006544936415507045
520.9137929999999,,0.0016321824860600458,520.801,0.7860000133514404,0.01921123143692816
521.37931,,0.0005723777950906042,521.269,0.777999997138977,0.001181369566496675
521.844828,,0.0011157314301175037,521.734,0.765999972820282,-0.025757396832946172
522.310345,,0.0036756135100042076,522.199,0.7699999809265137,-0.018007572978101308
522.7758620000001,,0.006902294898525067,522.665,0.7870000004768372,0.017925262969628302
523.241379,,0.008378432447047503,523.125,0.75,-0.06389399287930317
523.7068969999999,,0.006631115878488799,523.591,0.7710000276565552,-0.0194195493159355
524.172414,,0.002805061529124237,524.055,0.7860000133514404,0.011954974103974838
524.637931,,0.00017495056379443014,524.521,0.7630000114440918,-0.03944603362960525
525.103448,,0.0005814182721428095,524.991,0.8529999852180481,0.15539453030683212
525.568966,,0.0003720212569465807,525.454,0.7910000085830688,0.019174814577781023
526.034483,,0.0004395023169802338,525.917,0.765999972820282,-0.036306620823903187
526.5,,0.00040526448681645473,526.38,0.7739999890327454,-0.01973496671000666
526.9655170000001,,0.00010168547263901103,526.846,0.7879999876022339,0.010092371007191124
527.4310340000001,,0.003021920616752468,527.317,0.7820000052452087,-0.0034483916353809786
527.8965519999999,,0.005945195406932914,527.775,0.765999972820282,-0.038557096605745855
528.362069,,0.005403439033157353,528.24,0.7990000247955322,0.033314052555933005
528.827586,,0.0010497604563313942,528.705,0.7839999794960022,0.0008366367245882366
529.293103,,0.0038207325023364167,529.172,0.7910000085830688,0.01650993625746138
529.7586210000001,,0.0058519281985682575,529.638,0.746999979019165,-0.07872211491485766
530.224138,,0.004550436706955618,530.106,0.7739999890327454,-0.019084977581401562
530.689655,,0.0016119160262928144,530.572,0.7990000247955322,0.03635505811644013
531.155172,,0.001178053971395265,531.032,0.7739999890327454,-0.017006815834234475
531.62069,,0.0027771803541310246,531.495,0.7850000262260437,0.008158891227129414
532.086207,,0.002983297770249235,531.965,0.7870000004768372,0.013775341818069137
532.5517239999999,,0.0028403747310405793,532.428,0.7699999809265137,-0.021982900581322476
533.017241,,0.004184899883318429,532.891,0.7839999794960022,0.00977672073118789
533.482759,,0.007484834240962683,533.361,0.7879999876022339,0.019690959413409252
533.9482760000001,,0.01024278384853856,533.82,0.7870000004768372,0.01861644438598714
534.413793,,0.008882727703986836,534.286,0.6200000047683716,-0.34424644894848566
534.87931,,0.0029980781670763267,534.752,0.7919999957084656,0.031287343180156225
535.344828,,0.0031183167272876506,535.217,0.7839999794960022,0.014477615258313002
535.810345,,0.004469274689981071,535.682,0.7649999856948853,-0.026499826528927226
536.275862,,0.0007144542092129975,536.147,0.7919999957084656,0.032525374897948586
536.7413789999999,,0.0036087978661410846,536.613,0.7990000247955322,0.047757590672009645
537.206897,,0.004135897688224158,537.076,0.777999997138977,0.0017690037216461893
537.672414,,0.0007373330509825967,537.543,0.7649999856948853,-0.027001892864383165
538.137931,,0.003348604607545926,538.006,0.7850000262260437,0.01592504613517559
538.6034480000001,,0.00490391738341848,538.476,0.7870000004768372,0.01945938913215469
539.0689659999999,,0.002979660861425947,538.939,0.7739999890327454,-0.009836758036482806
539.5344829999999,,0.0007896833370339203,539.402,0.7879999876022339,0.01957001637630256
540.0,,0.003513930419606419,539.865,0.7889999747276306,0.02056796326682681
540.465517,,0.0036019934287799303,540.335,0.7739999890327454,-0.013342235565756064
540.931034,,0.002287804422486506,540.801,0.7860000133514404,0.011558937466143754
541.396552,,0.0018816211670810582,541.266,0.6439999938011169,-0.2990283936565312
541.862069,,0.002691426769956797,541.732,0.765999972820282,-0.034394063474148584
542.327586,,0.002861018558887792,542.191,0.7879999876022339,0.012471761675160169
542.7931030000001,,0.0013073354312143485,542.657,0.7609999775886536,-0.04728455138047124
543.258621,,0.0005320691967725212,543.123,0.7889999747276306,0.012945174050820052
543.7241379999999,,0.0004909908279438122,543.589,0.7699999809265137,-0.029037443338523258
544.189655,,0.0016552545298034699,544.05,0.7870000004768372,0.007613527981997653
544.655172,,0.003975938879221333,544.52,0.7639999985694885,-0.04266787169229075
545.12069,,0.004345846853988141,544.98,0.7870000004768372,0.007487105697617561
545.5862070000001,,0.0021798170767105903,545.451,0.7889999747276306,0.012107556671850494
546.051724,,0.0012962996844129765,545.913,0.7639999985694885,-0.041886744545034126
546.517241,,0.004046210273127894,546.376,0.7850000262260437,0.004529996992344142
546.982759,,0.004802764738835808,546.841,0.7870000004768372,0.009724860096887757
547.448276,,0.004014480331849063,547.312,0.7889999747276306,0.015066532839270579
547.9137929999999,,0.003215402579383019,547.77,0.7870000004768372,0.011809812652084792
548.3793099999999,,0.003553510920195865,548.235,0.7179999947547913,-0.13733606714953253
548.844828,,0.0050959660985777765,548.701,0.7889999747276306,0.018571260929937296
549.310345,,0.0072287257618725426,549.166,0.7870000004768372,0.015442995386598846
549.775862,,0.009158893265415038,549.632,0.765999972820282,-0.02911122871274104
550.241379,,0.010132600868749262,550.099,0.5820000171661377,-0.4288579156839848
550.706897,,0.009806115873935619,550.565,0.777999997138977,-0.0008290281707856401
551.172414,,0.008468184348085718,551.025,0.765999972820282,-0.02609741892269282
551.637931,,0.006486812890501292,551.495,0.7950000166893005,0.0377980247008959
552.103448,,0.003876030461180778,551.958,0.7889999747276306,0.025258919834826372
552.568966,,0.0010258362555089415,552.421,0.7319999933242798,-0.09858940043831464
553.034483,,0.0008694130854060111,552.891,0.6179999709129333,-0.34683315246923124
553.5,,0.001312461202079659,553.354,0.8500000238418579,0.1585194993263642
553.965517,,0.0017967299622310006,553.819,0.7839999794960022,0.014427090418939179
554.4310340000001,,0.003972616969542474,554.286,0.8569999933242798,0.17297296115462424
554.896552,,0.00679142737842909,554.751,0.7879999876022339,0.02197257376757124
555.3620689999999,,0.0073101874489617195,555.213,0.6790000200271606,-0.21633382185326352
555.827586,,0.004690839033178518,555.679,0.7459999918937683,-0.07133634123470682
556.293103,,0.0017988722811850034,556.143,0.8230000138282776,0.09534161404606448
556.758621,,0.0018769787380101917,556.609,0.7620000243186951,-0.03870375692852569
557.224138,,0.004562649543146644,557.074,0.7870000004768372,0.014579979065760664
557.689655,,0.006388429614381354,557.539,0.7739999890327454,-0.014923682455803297
558.155172,,0.004989634795066285,558.002,0.7990000247955322,0.03839930164353657
558.6206900000001,,0.0016614009890925428,558.465,0.7730000019073486,-0.01931600148685445
559.0862070000001,,0.0005687359705049153,558.933,0.7889999747276306,0.014577197320664679
559.5517239999999,,0.00044466078942072577,559.396,0.7160000205039978,-0.1452960869356357
560.017241,,0.0006339361721487471,559.866,0.7919999957084656,0.019606337605429045
560.482759,,0.0006586879662729403,560.328,0.7490000128746033,-0.07457245656394233
560.948276,,0.0008172622020764667,560.794,0.7950000166893005,0.025341791805703156
561.413793,,0.0024242642356250995,561.259,0.7889999747276306,0.012168984797194629
561.87931,,0.002400630025644216,561.724,0.765999972820282,-0.037835302009911295
562.344828,,0.00020453253409498487,562.191,0.7860000133514404,0.006043432594056565
562.8103450000001,,0.0030565672453293263,562.65,0.7649999856948853,-0.03921167152268652
563.275862,,0.005581532021343963,563.122,0.7889999747276306,0.01374761747173826
563.7413789999999,,0.006216166997723971,563.58,0.7870000004768372,0.010216573222509361
564.206897,,0.005071509531989339,564.051,0.7860000133514404,0.00899315133957759
564.672414,,0.003023525723255262,564.513,0.7870000004768372,0.012226201402411804
565.137931,,0.0005958231601340686,564.976,0.7889999747276306,0.017704473451902052
565.603448,,0.0024356606810445377,565.446,0.765999972820282,-0.03125181342943765
566.068966,,0.005930544660213109,565.91,0.7710000276565552,-0.019210420575481797
566.534483,,0.00829365476434813,566.372,0.7680000066757202,-0.024638555828373647
567.0,,0.007600569651610732,566.838,0.7910000085830688,0.02650459853139216
567.465517,,0.004044807812696847,567.3,0.765999972820282,-0.027032302427027453
567.931034,,0.00033326879519176433,567.766,0.7879999876022339,0.021694327384210902
568.396552,,0.000844717149283253,568.232,0.765999972820282,-0.025596839345459987
568.862069,,0.0008762517142102466,568.697,0.7870000004768372,0.020617703906452726
569.327586,,0.004064118378341139,569.162,0.7870000004768372,0.02089098334415078
569.793103,,0.007378833140892801,569.628,0.7720000147819519,-0.011712694366902816
570.2586210000001,,0.010036713158921727,570.095,0.7699999809265137,-0.01619361083785657
570.724138,,0.011007198679183768,570.561,0.7910000085830688,0.02923941025163211
571.189655,,0.009201733062225725,571.025,0.7639999985694885,-0.030087313979240745
571.655172,,0.004982499122667047,571.487,0.7950000166893005,0.03677915548085818
572.12069,,0.0007223186340174962,571.954,0.7889999747276306,0.022888624085457932
572.586207,,0.0009504076151432478,572.417,0.7860000133514404,0.015413224388986464
573.051724,,0.0005134394706075775,572.88,0.7919999957084656,0.02745360858845044
573.517241,,0.003251872348745367,573.35,0.8510000109672546,0.1549036827657117
573.982759,,0.004784014969984723,573.816,0.7900000214576721,0.020891747965497677
574.4482760000001,,0.0038439793051901552,574.279,0.7820000052452087,0.0023568247662423335
574.913793,,0.0008585966452695625,574.745,0.7889999747276306,0.01654262573064966
575.37931,,0.002686873977440812,575.209,0.7450000047683716,-0.08030993836278968
575.844828,,0.005429887804733345,575.675,0.8090000152587891,0.05823388428017878
576.310345,,0.007184190082168852,576.14,0.7839999794960022,0.003008071394565119
576.775862,,0.008764458037646233,576.606,0.7620000243186951,-0.045528738521776385
577.241379,,0.010617933863842573,577.066,0.7860000133514404,0.006322289816392445
577.706897,,0.012054063726077152,577.532,0.7639999985694885,-0.041861543580279735
578.172414,,0.012062230752303416,577.995,0.7820000052452087,-0.0027091376582650383
578.6379310000001,,0.010589461030035049,578.465,0.800000011920929,0.03663553994345868
579.1034480000001,,0.008992156716461164,578.925,0.7699999809265137,-0.028406719613906006
579.5689659999999,,0.009285501500092514,579.395,0.7860000133514404,0.006946695588994
580.034483,,0.01230615993259596,579.865,0.7870000004768372,0.009782461719148395
580.5,,0.01621114240286825,580.32,0.7879999876022339,0.012760327037389548
580.965517,,0.017587572401722568,580.786,0.8500000238418579,0.14875448020837553
581.431034,,0.014700722490614155,581.254,0.7699999809265137,-0.02452864832076025
581.896552,,0.009038739136319501,581.719,0.7850000262260437,0.00921851629136374
582.362069,,0.003286539225346336,582.184,0.7860000133514404,0.012489138270693709
582.827586,,0.0012036106636492616,582.65,0.765999972820282,-0.03000081249556437
583.2931030000001,,0.004402630737402087,583.114,0.7739999890327454,-0.011531043141703766
583.758621,,0.006546967317903758,583.58,0.7850000262260437,0.01340055992236083
584.2241379999999,,0.008385221991641698,584.043,0.7699999809265137,-0.01841611027015712
584.689655,,0.011447635205903002,584.505,0.7850000262260437,0.01499751969651425
585.155172,,0.016591405256339745,584.976,0.7860000133514404,0.0177588097975069
585.6206900000001,,0.022683258386102096,585.439,0.7720000147819519,-0.012328041340131933
586.0862070000001,,0.02758361458505518,585.906,0.7570000290870667,-0.044774901614175376
586.551724,,0.029869524726773438,586.369,0.7889999747276306,0.024986419225149145
587.017241,,0.02908665519795115,586.835,0.753000020980835,-0.05358890490590139
587.482759,,0.02546341940394536,587.297,0.7860000133514404,0.01797861697226573
587.948276,,0.02044625568321012,587.763,0.7910000085830688,0.028371421028916807
588.4137929999999,,0.01661116890490995,588.228,0.7710000276565552,-0.01585819460607568
588.87931,,0.015541356037845693,588.694,0.7919999957084656,0.029100782485000608
589.344828,,0.015747490637343375,589.158,0.7990000247955322,0.04344809827305456
589.810345,,0.013770651147836203,589.623,0.7910000085830688,0.025033326866024542
590.2758620000001,,0.00804181180811395,590.088,0.7699999809265137,-0.02175637953349176
590.741379,,0.0012718745372975711,590.554,0.8289999961853027,0.10572547252399975
591.2068969999999,,0.0019504990471743663,591.022,0.6169999837875366,-0.3571969649088487
591.672414,,0.0001935661047669173,591.484,0.7919999957084656,0.02305605867878992
592.137931,,0.0031057371532587624,591.947,0.7739999890327454,-0.017098997575438424
592.603448,,0.003515921716771286,592.417,0.7580000162124634,-0.05279443881372999
593.068966,,0.0002238491997336706,592.88,0.7870000004768372,0.009676576930838114
593.534483,,0.004090607912373323,593.342,0.7699999809265137,-0.027920949898716886
594.0,,0.007020003160655219,593.808,0.8029999732971191,0.043580759056680296
594.4655170000001,,0.008637177125630568,594.272,0.7910000085830688,0.01722250368364462
594.9310340000001,,0.01023215977535555,594.739,0.7639999985694885,-0.04163061209322561
595.3965519999999,,0.012284528502033931,595.203,0.7689999938011169,-0.030582667084403735
595.862069,,0.014224036749413409,595.669,0.7889999747276306,0.013324099654325934
596.327586,,0.015585184629015389,596.135,0.7680000066757202,-0.03192477338031642
596.793103,,0.01691115680795106,596.601,0.7870000004768372,0.01012519351165395
597.2586210000001,,0.019509916114535536,597.066,0.7870000004768372,0.010913588919491995
597.724138,,0.02419685433134858,597.531,0.7540000081062317,-0.060085494005851385
598.189655,,0.0301470430772702,597.995,0.7879999876022339,0.014964374761042855
598.655172,,0.03536106664182756,598.458,0.7710000276565552,-0.021047065882699948
599.12069,,0.03873489195026757,598.925,0.8040000200271606,0.051892507659507627
599.586207,,0.041448644609295766,599.388,0.7720000147819519,-0.016793281934351614
600.0517239999999,,0.045640485918553554,599.855,0.765999972820282,-0.028879813453081077
600.517241,,0.05159633382985239,600.319,0.7950000166893005,0.03521053067137002
600.982759,,0.056920916449414126,600.785,0.7760000228881836,-0.005377589115540509
601.448276,,0.05890657258882797,601.25,0.7990000247955322,0.04541001828838587
601.913793,,0.05711169425964641,601.716,0.7839999794960022,0.013260927225096076
602.37931,,0.052835246581752406,602.18,0.7910000085830688,0.028878308887608894
602.844828,,0.046406447117069635,602.646,0.7870000004768372,0.02035540763698188
603.310345,,0.036089760835408324,603.106,0.7870000004768372,0.020366435767855372
603.775862,,0.020173264156162236,603.572,0.7699999809265137,-0.016840746090268532
604.2413789999999,,0.0002145280578708282,604.04,0.6489999890327454,-0.28080589227231284
604.706897,,0.020942603912680494,604.502,0.7910000085830688,0.02804413577459509
605.172414,,0.03783940589892974,604.965,0.7889999747276306,0.023018394336708527
605.637931,,0.04966495166524423,605.435,0.7689999938011169,-0.021349798801137083
606.1034480000001,,0.057846469569489876,605.899,0.7490000128746033,-0.06582109835064946
606.5689659999999,,0.0636865224593024,606.362,0.7889999747276306,0.02035102078941512
607.0344829999999,,0.06682267527389785,606.828,0.7710000276565552,-0.019882591656289604
607.5,,0.06655043697646068,607.291,0.7900000214576721,0.02048148943590576
607.965517,,0.06357905287127794,607.756,0.7879999876022339,0.015113941938782498
608.431034,,0.059777195287536035,608.221,0.7680000066757202,-0.02941800007862787
608.896552,,0.05650328589722889,608.687,0.7910000085830688,0.019812281361166622
609.362069,,0.05341041225010827,609.155,0.7739999890327454,-0.01799598924890979
609.827586,,0.048755764496160155,609.621,0.765999972820282,-0.036065751448202156
610.293103,,0.041212162371934,610.081,0.7870000004768372,0.009195290882050285
610.758621,,0.03185993618339363,610.546,0.7630000114440918,-0.043418081737856655
611.2241379999999,,0.024061118963195564,611.01,0.7879999876022339,0.010896719358250153
611.689655,,0.020593012883153294,611.479,0.7919999957084656,0.019639174826710046
612.155172,,0.020764082967646234,611.94,0.7689999938011169,-0.030263858461669606
612.62069,,0.020831989589736734,612.409,0.7870000004768372,0.009328497496906509
613.0862070000001,,0.017459611470106308,612.873,0.7910000085830688,0.018578706760034022
613.551724,,0.010433248267146178,613.335,0.7699999809265137,-0.02649538536945919
614.017241,,0.001983866066607801,613.801,0.746999979019165,-0.07580723659226433
614.4827590000001,,0.005698656938260027,614.266,0.7889999747276306,0.01658711953202681
614.948276,,0.011565352392816405,614.732,0.7760000228881836,-0.010777022592778844
615.4137929999999,,0.01505282675269961,615.199,0.7870000004768372,0.014184056381678353
615.8793099999999,,0.015799474937369273,615.664,0.7670000195503235,-0.028386217508494845
616.344828,,0.01442513266724045,616.128,0.7699999809265137,-0.02087252003129381
616.810345,,0.01278517003556864,616.594,0.7870000004768372,0.017087440566522734
617.275862,,0.01285336298317627,617.061,0.7889999747276306,0.022284951461002313
617.741379,,0.01530518823250076,617.52,0.7940000295639038,0.03391068580385741
618.206897,,0.01888712688624484,617.988,0.7860000133514404,0.017083602219612044
618.672414,,0.0209894546113218,618.45,0.734000027179718,-0.0957537237163446
619.137931,,0.01965411609450087,618.921,0.7720000147819519,-0.012677455925768258
619.603448,,0.015738632916479783,619.384,0.7950000166893005,0.03754672120895136
620.068966,,0.012422804983977274,619.849,0.7149999737739563,-0.13680548219790353
620.534483,,0.011889555898830327,620.313,0.7879999876022339,0.02200151748409176
621.0,,0.013276425136365823,620.779,0.7739999890327454,-0.008899488307252186
621.465517,,0.01451712595184513,621.244,0.7900000214576721,0.02540760502131464
621.9310340000001,,0.015005247922095653,621.71,0.765999972820282,-0.02756545588826374
622.396552,,0.015321358947354978,622.177,0.7820000052452087,0.00649495883895244
622.862069,,0.01539847145328811,622.636,0.765999972820282,-0.02924930376827141
623.327586,,0.014605786859769897,623.102,0.7919999957084656,0.02644995394429577
623.793103,,0.013396312781019448,623.568,0.7710000276565552,-0.020277395521201332
624.258621,,0.013407491817969103,624.036,0.7680000066757202,-0.027789330000462326
624.724138,,0.015374820366904098,624.498,0.7889999747276306,0.017016253000555016
625.189655,,0.017538377542247095,624.961,0.7770000100135803,-0.010013763597603824
625.655172,,0.01681832436873445,625.432,0.7649999856948853,-0.03695723909828087
626.1206900000001,,0.011884714312461483,625.895,0.7860000133514404,0.0081057216263501
626.5862070000001,,0.004932829076580363,626.357,0.7710000276565552,-0.0251305327505116
627.0517239999999,,2.6461204542142097e-05,626.823,0.7990000247955322,0.03546448683884167
627.5172409999999,,0.000828855096853073,627.287,0.8019999861717224,0.04175557862873469
627.982759,,0.0011275474682447477,627.753,0.7760000228881836,-0.01496439647884978
628.448276,,0.0027532024923438586,628.217,0.7870000004768372,0.009096164416333086
628.913793,,0.0022294375188157377,628.683,0.7699999809265137,-0.02767874635966038
629.37931,,2.56581484022612e-05,629.148,0.7910000085830688,0.01849307599217402
629.844828,,0.002088183804146961,629.613,0.7429999709129333,-0.08551807908885421
630.3103450000001,,0.002463888326236751,630.08,0.7870000004768372,0.011032057328419751
630.7758620000001,,0.0006833635257483259,630.546,0.7639999985694885,-0.038283405282844324
631.2413789999999,,0.0020550737759280043,631.006,0.7879999876022339,0.014877113301180606
631.706897,,0.003818500908783523,631.476,0.7950000166893005,0.03105349997600815
632.172414,,0.003520319497427998,631.939,0.765999972820282,-0.031177484496852762
632.637931,,0.001779831231527319,632.402,0.7860000133514404,0.013339610931158232
633.103448,,0.00042696265804992913,632.865,0.6190000176429749,-0.3495888271207645
633.568966,,0.0009258983294284499,633.335,0.7609999775886536,-0.039383864495222215
634.034483,,0.002735056035707728,633.801,0.7910000085830688,0.026720709687081373
634.5,,0.0035216304887233717,634.266,0.7860000133514404,0.01646191189154578
634.9655170000001,,0.0017376885671973332,634.732,0.7710000276565552,-0.0157128255276375
635.431034,,0.0014633195377783213,635.191,0.8029999732971191,0.05436433394953932
635.8965519999999,,0.0038093211669665713,635.657,0.7739999890327454,-0.00861052539697389
636.362069,,0.004782842981775539,636.122,0.7710000276565552,-0.015101286068012018
636.827586,,0.005499214308033589,636.587,0.7889999747276306,0.023997457577518557
637.293103,,0.006059467115919657,637.05,0.7960000038146973,0.03897423749162147
637.7586210000001,,0.004914494193922009,637.521,0.7580000162124634,-0.04423639033091695
638.224138,,0.0015336440757316404,637.984,0.7879999876022339,0.02056560339320997
638.689655,,0.0017031765932159538,638.446,0.7680000066757202,-0.023682609651539566
639.155172,,0.001574787671222251,638.91,0.7910000085830688,0.025654553617766224
639.62069,,0.002407437843081765,639.38,0.7879999876022339,0.01827469332494049
640.086207,,0.007448971654217183,639.846,0.7760000228881836,-0.008758798929166534
640.551724,,0.010462986748655508,640.309,0.7889999747276306,0.01865497078263896
641.017241,,0.01082954991141766,640.775,0.7739999890327454,-0.014924252226306646
641.482759,,0.009997993152315999,641.239,0.765999972820282,-0.033216939116045854
641.9482760000001,,0.009330502861518094,641.705,0.7900000214576721,0.018269501411911745
642.413793,,0.009280050709818128,642.17,0.7889999747276306,0.01537674173964425
642.87931,,0.010062179224065987,642.636,0.7689999938011169,-0.028801396191844898
643.344828,,0.011589131588473979,643.095,0.7870000004768372,0.009935619236258447
643.810345,,0.012531633946626835,643.561,0.765999972820282,-0.036154149393754706
644.275862,,0.01086218678009142,644.029,0.7680000066757202,-0.03198479932923047
644.7413789999999,,0.006246458198185792,644.491,0.7919999957084656,0.020270166132578732
645.206897,,0.0012415115694221828,644.961,0.8109999895095825,0.061789102015068875
645.672414,,0.0008834212766415922,645.424,0.7839999794960022,0.0032436781335170055
646.1379310000001,,0.0003901528022352181,645.892,0.7620000243186951,-0.04426500057170963
646.6034480000001,,0.0022331251220015554,646.354,0.7820000052452087,-0.00014155943479464243
647.0689659999999,,0.001815038164190492,646.82,0.7789999842643738,-0.006015102514216805
647.534483,,0.0003279153251745325,647.286,0.7720000147819519,-0.02051171956918084
648.0,,0.0012487281431104685,647.751,0.7889999747276306,0.017347112385849545
648.465517,,0.0005101330433457482,648.217,0.8050000071525574,0.05307089318669706
648.931034,,0.0035313646824368453,648.675,0.765999972820282,-0.03101419437573611
649.396552,,0.00599687958359516,649.14,0.7710000276565552,-0.019249691213746697
649.862069,,0.007545631145069823,649.605,0.7910000085830688,0.025156404319976542
650.327586,,0.008033261848910416,650.076,0.7870000004768372,0.01721234344709904
650.7931030000001,,0.006407241678882817,650.535,0.7850000262260437,0.01353985968423569
651.258621,,0.002234291322166516,651.003,0.7630000114440918,-0.03381274242430151
651.7241379999999,,0.002696268795180712,651.466,0.7839999794960022,0.012391683715624265
652.189655,,0.005669946745860321,651.936,0.7699999809265137,-0.017794721774263354
652.655172,,0.005773569976934232,652.398,0.7649999856948853,-0.028520832880339932
653.12069,,0.004613830432808839,652.866,0.7870000004768372,0.01942443139164706
653.5862070000001,,0.004428102333110567,653.329,0.7699999809265137,-0.017749352962942673
654.051724,,0.0060126061215816234,653.795,0.7889999747276306,0.023361501929411613
654.517241,,0.00839551045518303,654.261,0.7820000052452087,0.007690293096084922
654.982759,,0.00981889877443379,654.727,0.7879999876022339,0.020217760200827436
655.448276,,0.00878646816057386,655.191,0.7789999842643738,-4.109156552462088e-05
655.9137929999999,,0.004857487756774613,655.656,0.7689999938011169,-0.022565273826852094
656.37931,,0.0006978619920783888,656.121,0.765999972820282,-0.02990338924971144
656.844828,,0.0049578332073037515,656.587,0.7910000085830688,0.023721357725405675
657.310345,,0.004962169872954139,657.05,0.7910000085830688,0.02286716857729606
657.7758620000001,,0.0002877897376069327,657.513,0.7870000004768372,0.013312345959341896
658.241379,,0.005911632314286838,657.977,0.7900000214576721,0.01904768892985774
658.7068969999999,,0.009252733392435337,658.446,0.7710000276565552,-0.023083698195815777
659.172414,,0.008039519600250745,658.907,0.781000018119812,-0.0019488725362788056
659.637931,,0.004569255172541713,659.377,0.7910000085830688,0.019291187314251515
660.103448,,0.0022640246635717096,659.835,0.7919999957084656,0.021045527063262324
660.568966,,0.0019180997044389789,660.305,0.7870000004768372,0.009862775258159491
661.034483,,0.0014048855390935738,660.771,0.777999997138977,-0.009891845699985065
661.5,,0.0010440864522574598,661.236,0.7739999890327454,-0.01860707900407639
661.965517,,0.00422243568450687,661.701,0.7940000295639038,0.025111016352781998
662.4310340000001,,0.005213336535567139,662.165,0.8009999990463257,0.04064794809169798
662.8965519999999,,0.0028006128764446986,662.631,0.7620000243186951,-0.04390085973256199
663.362069,,0.0010826915966863251,663.091,0.7870000004768372,0.011101574367672761
663.827586,,0.0032030962886978502,663.557,0.6129999756813049,-0.3673493181846114
664.293103,,0.0018703123569527192,664.025,0.7570000290870667,-0.05291475095212224
664.7586210000001,,0.0018225851293412836,664.487,0.6330000162124634,-0.32230538619144095
665.224138,,0.004875705317847169,664.954,0.9549999833106995,0.38001546080462734
665.689655,,0.00446453485130059,665.417,0.7889999747276306,0.019172180821523194
