Trial: ,22
Threshold: ,0.0
Maximum EMG: ,0.03756567223905376
Success: ,True

EMG Time,Raw EMG,Filtered EMG,Force Time,Raw Force (V),Filtered Force (N)
0.0,samples,3.7930085837238e-09,0.466,0.7739999890327454,0.01736463955734148
0.46551699999999996,time,3.4100055709026804e-08,0.935,0.7730000019073486,0.015092295465333465
0.9310339999999999,value,7.350808210561224e-08,1.397,0.7440000176429749,-0.04796760992766156
1.396552,,1.1435604017462161e-07,1.865,0.7570000290870667,-0.01931500283082848
1.862069,,1.565605269040304e-07,2.328,0.7739999890327454,0.018250811388041233
2.327586,,2.000297023738999e-07,2.791,0.7480000257492065,-0.037682760590667275
2.793103,,2.4466325272173836e-07,3.254,0.7760000228881836,0.024190671021298946
3.258621,,2.903523817112355e-07,3.719,0.7720000147819519,0.01648087699385774
3.724138,,3.369798321697414e-07,4.19,0.7649999856948853,0.0023379901350163348
4.189654999999999,,3.844199385080505e-07,4.649,0.9319999814033508,0.36735188531841867
4.655172,,4.325387114776822e-07,5.12,0.7459999918937683,-0.036659044025596256
5.12069,,4.811939562558372e-07,5.579,0.75,-0.02672931889810562
5.586207,,5.30235424876509e-07,6.05,0.734000027179718,-0.06041595936097714
6.051723999999999,,5.795050039477976e-07,6.516,0.765999972820282,0.010393443944347117
6.517241,,6.288369385103067e-07,6.98,0.7739999890327454,0.028804518763967217
6.982759,,6.780580927996126e-07,7.446,0.7730000019073486,0.027468239172259754
7.448276,,7.269882485772128e-07,7.906,0.7710000276565552,0.02378878202454629
7.913793000000001,,7.754404415891569e-07,8.376,0.7480000257492065,-0.025827478515909934
8.379309999999998,,8.232213365998176e-07,8.839,0.7699999809265137,0.02239547701753251
8.844828000000001,,8.701316413301018e-07,9.301,0.75,-0.021092733757516958
9.310345,,9.159665595049574e-07,9.769,0.7540000081062317,-0.012503450088748331
9.775862,,9.6051628308449e-07,10.231,0.7509999871253967,-0.019370452615543016
10.241379,,1.0035665236165547e-06,10.696,0.7910000085830688,0.06725052822667672
10.706897,,1.0448990825065695e-06,11.162,0.7699999809265137,0.020797635218726365
11.172414,,1.0842924598527744e-06,11.628,0.7490000128746033,-0.02580962693929424
11.637931,,1.1215225013425066e-06,12.095,0.7680000066757202,0.01460037668181907
12.103447999999998,,1.1563630825476311e-06,12.561,0.75,-0.025697759176727463
12.568966000000001,,1.1885868297953776e-06,13.024,0.7440000176429749,-0.0399171942596617
13.034483,,1.2179658766249076e-06,13.49,0.7749999761581421,0.026443418064128678
13.5,,1.244272654670356e-06,13.958,0.7559999823570251,-0.01612141255881689
13.965517,,1.2672807176383293e-06,14.416,0.765999972820282,0.00453723808534499
14.431034,,1.2867655968723593e-06,14.884,0.7710000276565552,0.014379852813200365
14.896552,,1.3025056868191316e-06,15.346,0.7720000147819519,0.015616961962159353
15.362069,,1.3142831585319502e-06,15.81,0.7910000085830688,0.05620779601848128
15.827586000000002,,1.3218848991664527e-06,16.279,0.6790000200271606,-0.1884437737669914
16.293103,,1.3251034752426316e-06,16.745,0.7730000019073486,0.015883833716677828
16.758621,,1.3237381172663785e-06,17.209,0.7450000047683716,-0.0453917812590909
17.224138,,1.3175957231237015e-06,17.675,0.7739999890327454,0.017716440393644253
17.689655,,1.3064918774821354e-06,18.14,0.7680000066757202,0.004774859430298043
18.155172,,1.2902518842573848e-06,18.605,0.7990000247955322,0.07264236825531763
18.62069,,1.2687118090296152e-06,19.065,0.7739999890327454,0.018694274883859042
19.086207,,1.2417195281238013e-06,19.531,0.7720000147819519,0.015027175290172163
19.551724,,1.2091357809028926e-06,19.995,0.7739999890327454,0.020224200854939527
20.017241000000002,,1.1708352216620524e-06,20.46,0.7680000066757202,0.008115396724311583
20.482758999999998,,1.1267074673576764e-06,20.928,0.6330000162124634,-0.2849485920347027
20.948276,,1.0766581372570909e-06,21.391,0.7490000128746033,-0.031116617755986366
21.413793000000002,,1.0206098804545853e-06,21.854,0.7710000276565552,0.01794565024744324
21.87931,,9.585033870675891e-07,22.324,0.7739999890327454,0.025605323873180617
22.344828,,8.902983788041808e-07,22.784,0.7509999871253967,-0.02342194965232803
22.810344999999998,,8.159745744805601e-07,23.254,0.7710000276565552,0.021157506627488814
23.275862,,7.355326259654547e-07,23.719,0.7480000257492065,-0.02805073531324537
23.741379,,6.489950199385017e-07,24.183,0.7699999809265137,0.02064740980985359
24.206897,,5.564069407722693e-07,24.649,0.75,-0.022313126680291197
24.672414,,4.5783708978358865e-07,25.113,0.7509999871253967,-0.01969599285745617
25.137931,,3.533784560500515e-07,25.579,0.8149999976158142,0.11999039332752266
25.603448,,2.4314903395268505e-07,26.043,0.7870000004768372,0.05905022290501946
26.068966,,1.2729248258671095e-07,26.509,0.7699999809265137,0.02188292157348537
26.534483,,5.978722179687223e-09,26.969,0.8140000104904175,0.11742530065066861
27.0,,1.2059553732906943e-07,27.435,0.7599999904632568,-0.0007175972677887603
27.465517,,2.522063403613798e-07,27.906,0.7739999890327454,0.029124683931879072
27.931034,,3.8860210718795274e-07,28.369,0.7480000257492065,-0.028322561807042766
28.396552,,5.295033375232833e-07,28.832,0.7739999890327454,0.027400571437602824
28.862069,,6.746024008299898e-07,29.294,0.753000020980835,-0.01936358288342717
29.327586,,8.235634178245881e-07,29.762,0.6100000143051147,-0.331986015769643
29.793103000000002,,9.760222375456397e-07,30.224,0.7549999952316284,-0.017190668468765002
30.258620999999998,,1.1315865141929428e-06,30.69,0.7730000019073486,0.020920137567672966
30.724138,,1.2898358877725876e-06,31.157,0.7860000133514404,0.04817902463730928
31.189655000000002,,1.4503222723869687e-06,31.624,0.7509999871253967,-0.029063370819689745
31.655172000000004,,1.612570255790974e-06,32.09,0.7699999809265137,0.011444701904366333
32.12069,,1.7760776135953888e-06,32.549,0.7730000019073486,0.01722479603663582
32.586207,,1.9403159412359444e-06,33.014,0.7739999890327454,0.018801165654052585
33.051724,,2.1047314065413766e-06,33.479,0.753000020980835,-0.02738126444459645
33.517241000000006,,2.2687456254263843e-06,33.954,0.7739999890327454,0.01812318614120672
33.982759,,2.431756662905629e-06,34.413,0.7699999809265137,0.009352615219710085
34.448276,,2.5931401612730962e-06,34.876,0.753000020980835,-0.02754799105708742
34.913793,,2.7522505969175525e-06,35.339,0.7739999890327454,0.018527227501382505
35.37931,,2.908422666849851e-06,35.809,0.7760000228881836,0.02338568428719068
35.844828,,3.0609728056020028e-06,36.272,0.7749999761581421,0.021870101804864952
36.310345,,3.2092008327217557e-06,36.738,0.9190000295639038,0.3364029109035244
36.775862,,3.3523917306306234e-06,37.201,0.7710000276565552,0.014891454763063467
37.241378999999995,,3.4898175521386586e-06,37.666,0.7329999804496765,-0.06687981789392944
37.706897000000005,,3.6207394564166253e-06,38.132,0.7720000147819519,0.019158762456514912
38.172414,,3.7444098717165903e-06,38.598,0.7730000019073486,0.02242977561165568
38.637931,,3.860074782606405e-06,39.065,0.7739999890327454,0.025689011648760654
39.103448,,3.966976138943269e-06,39.53,0.7699999809265137,0.018009918837181376
39.568965999999996,,4.064354383257842e-06,39.995,0.7689999938011169,0.016789775433603576
40.034483,,4.151451092654593e-06,40.461,0.75,-0.02375290047387194
40.5,,4.2275117307577715e-06,40.921,0.765999972820282,0.011823896949855025
40.965517,,4.29178850464708e-06,41.39,0.7480000257492065,-0.02682817357839665
41.431034,,4.3435433211346265e-06,41.851,0.7480000257492065,-0.026436833370768686
41.896552,,4.382050836136737e-06,42.32,0.7739999890327454,0.030415879786930597
42.362069000000005,,4.406601590292669e-06,42.783,0.7480000257492065,-0.026209640722016064
42.827586000000004,,4.416505223379151e-06,43.246,0.7739999890327454,0.030265963927231118
43.293103,,4.411093759467095e-06,43.712,0.7329999804496765,-0.059410644835027844
43.758621,,4.3897249541668885e-06,44.175,0.7730000019073486,0.02721193569497018
44.224138,,4.351785694713724e-06,44.641,0.734000027179718,-0.05843335174422813
44.689655,,4.2966954430567076e-06,45.108,0.765999972820282,0.010472188455282387
45.155172,,4.22390971153748e-06,45.573,0.7730000019073486,0.02480483085400295
45.620689999999996,,4.1329235601782375e-06,46.04,0.7739999890327454,0.025988363122561125
46.086206999999995,,4.023275104047862e-06,46.506,0.7350000143051147,-0.060020583656529417
46.551724,,3.894549018641047e-06,46.965,0.7609999775886536,-0.004432613581373561
47.017241,,3.7463800306913894e-06,47.431,0.7699999809265137,0.014136420335240197
47.482759,,3.578456381348199e-06,47.899,0.7720000147819519,0.01750591739883536
47.948276,,3.3905232481808805e-06,48.361,0.7570000290870667,-0.01608041439096846
48.413793,,3.182386112037031e-06,48.829,0.9049999713897705,0.3055641048104801
48.879310000000004,,2.953914054373551e-06,49.291,0.7549999952316284,-0.02189098727595054
49.344828,,2.7050429703069607e-06,49.761,0.75,-0.033287676220498434
49.810345,,2.4357786822924504e-06,50.223,0.753000020980835,-0.027089120593995233
50.275862,,2.1461999390438282e-06,50.689,0.7699999809265137,0.00978622384716146
50.741379,,1.8364612840511344e-06,51.154,0.7739999890327454,0.01851987181916806
51.206897,,1.506795777842074e-06,51.62,0.7590000033378601,-0.013961517447430218
51.672414,,1.1575175579701991e-06,52.084,0.7519999742507935,-0.028842195177886602
52.137931,,7.89024220599627e-07,52.55,0.7490000128746033,-0.03484940330047102
52.603448,,4.017990074955431e-07,53.009,0.7739999890327454,0.02028729864139043
53.068966,,3.58721777568242e-09,53.475,0.7519999742507935,-0.026851496197416634
53.534483,,4.2647422058085474e-07,53.943,0.7710000276565552,0.015430532176751756
54.0,,8.661108889209816e-07,54.406,0.7720000147819519,0.018565339768570097
54.465517,,1.3216539859572697e-06,54.869,0.7559999823570251,-0.015297965585162623
54.931034,,1.792167176982445e-06,55.339,0.7730000019073486,0.022742180838336137
55.396552,,2.2766203461538346e-06,55.802,0.7699999809265137,0.017186567664938555
55.862069,,2.7738892179329864e-06,56.265,0.7710000276565552,0.020293200789556067
56.327586,,3.2827552977356067e-06,56.73,0.7509999871253967,-0.022433165199276982
56.793102999999995,,3.8019061457838203e-06,57.2,0.7689999938011169,0.017522026051376385
57.258621000000005,,4.3299359975689925e-06,57.666,0.7710000276565552,0.022489792783567896
57.724138,,4.865346743676543e-06,58.124,0.753000020980835,-0.016262668822882166
58.189655,,5.406549280993541e-06,58.589,0.7620000243186951,0.0036472793906655527
58.655172,,5.9518652465147886e-06,59.054,0.6190000176429749,-0.3077697700522237
59.120689999999996,,6.499529144083229e-06,59.52,0.7739999890327454,0.029872989997956508
59.586207,,7.047690873445787e-06,59.987,0.7649999856948853,0.010045250141147807
60.051724,,7.594418669976297e-06,60.453,0.753000020980835,-0.01648016829512059
60.517241,,8.137702462313448e-06,60.921,0.722000002861023,-0.08455019001215651
60.982758999999994,,8.675457653984444e-06,61.383,0.8309999704360962,0.15225857392898143
61.448276,,9.205529333835274e-06,61.847,0.753000020980835,-0.018448552853919234
61.913793,,9.72569691876749e-06,62.309,0.753000020980835,-0.019306162318674873
62.379310000000004,,1.0233679230890867e-05,62.78,0.7950000166893005,0.07128075335343333
62.84482800000001,,1.072714000974307e-05,63.242,0.7739999890327454,0.02458372695862587
63.310345000000005,,1.1203693858703914e-05,63.708,0.7850000262260437,0.04760406060656635
63.775862000000004,,1.1660912623145576e-05,64.172,0.7699999809265137,0.014008486076082276
64.241379,,1.2096332196213958e-05,64.638,0.7480000257492065,-0.03478120874419107
64.706897,,1.2507459746433793e-05,65.102,0.7490000128746033,-0.033381036743484443
65.172414,,1.2891781359574575e-05,65.568,0.7739999890327454,0.020411118524849496
65.637931,,1.3246770085409952e-05,66.035,0.7480000257492065,-0.03678288287885509
66.103448,,1.3569894378154138e-05,66.494,0.8640000224113464,0.21553367518510796
66.56896599999999,,1.3858626917469899e-05,66.966,0.7820000052452087,0.03663387201826518
67.03448300000001,,1.4110453795018666e-05,67.424,0.7739999890327454,0.01911575647992193
67.5,,1.4322884049569809e-05,67.894,0.7710000276565552,0.012652153798697927
67.965517,,1.4493459531708572e-05,68.357,0.7350000143051147,-0.06555034947723898
68.431034,,1.4619765077186786e-05,68.825,0.7409999966621399,-0.052102577489473514
68.896552,,1.46994389659535e-05,69.287,0.8399999737739563,0.16409526021688695
69.362069,,1.4730183641890738e-05,69.758,0.7570000290870667,-0.016099697792880403
69.827586,,1.4709776666269728e-05,70.22,0.7820000052452087,0.03909930887286604
70.293103,,1.4636081875942395e-05,70.686,0.765999972820282,0.005049460441066774
70.75862099999999,,1.4507060715299039e-05,71.15,0.7630000114440918,-0.0006276551496682626
71.22413800000001,,1.4320783709064005e-05,71.616,0.7490000128746033,-0.030247307108401032
71.689655,,1.4075442041074576e-05,72.076,0.7680000066757202,0.012023683794469279
72.15517200000001,,1.3769359202302685e-05,72.542,0.7480000257492065,-0.030704102687063896
72.62069,,1.3401002669542858e-05,73.009,0.7409999966621399,-0.04516718793199429
73.086207,,1.2968995574411614e-05,73.475,0.8309999704360962,0.1516185473848911
73.551724,,1.2472128320592294e-05,73.935,0.746999979019165,-0.03078001490183927
74.017241,,1.190937010562408e-05,74.405,0.7710000276565552,0.0219974937771807
74.482759,,1.1279880301983599e-05,74.865,0.75,-0.023397538534956373
74.94827599999999,,1.0583019650751424e-05,75.335,0.7429999709129333,-0.03843485334728382
75.41379300000001,,9.818361219803162e-06,75.798,0.7739999890327454,0.02916792818358471
75.87931,,8.985701077224989e-06,76.261,0.7450000047683716,-0.034097042802989294
76.344828,,8.085068629535682e-06,76.727,0.7979999780654907,0.0811428027249924
76.810345,,7.116736573310653e-06,77.19,0.7699999809265137,0.019777074653944272
77.275862,,6.081230407957504e-06,77.656,0.75,-0.02428250619138504
77.741379,,4.979337456696151e-06,78.124,0.7580000162124634,-0.007448079134482417
78.206897,,3.8121153422586803e-06,78.589,0.7739999890327454,0.02672672512272285
78.67241399999999,,2.5808998634534237e-06,79.056,0.7519999742507935,-0.021953732489323596
79.137931,,1.2873122185429585e-06,79.514,0.7490000128746033,-0.029283327410564348
79.603448,,6.673447862494145e-08,79.981,0.7739999890327454,0.02437021334133961
80.068966,,1.4790294436129297e-06,80.446,0.7490000128746033,-0.030901997396720154
80.53448300000001,,2.947059281014581e-06,80.909,0.7739999890327454,0.022789424891134873
81.0,,4.468003911609758e-06,81.379,0.753000020980835,-0.023682066906829682
81.465517,,6.038733419162657e-06,81.84,0.7480000257492065,-0.0352192353327015
81.931034,,7.655805867947806e-06,82.31,0.5910000205039978,-0.37781956824936186
82.396552,,9.315466140840604e-06,82.773,0.9079999923706055,0.3123674716568261
82.86206899999999,,1.1013645846328758e-05,83.235,0.7649999856948853,0.0005026582761822815
83.327586,,1.2745964341084512e-05,83.701,0.7440000176429749,-0.04543118191113817
83.79310299999999,,1.4507730912780728e-05,84.168,0.7580000162124634,-0.014975471469458006
84.258621,,1.6293948165633218e-05,84.634,0.75,-0.03231303287785561
84.72413800000001,,1.8099316648704613e-05,85.098,0.7490000128746033,-0.03426704590365724
85.189655,,1.9918240764309468e-05,85.564,0.8180000185966492,0.11641032099379364
85.65517200000001,,2.174483599091512e-05,86.029,0.7739999890327454,0.0210160117445305
86.12069,,2.357293745173769e-05,86.494,0.7720000147819519,0.017225013948056866
86.586207,,2.539610985678834e-05,86.954,0.7720000147819519,0.017871837166052007
87.051724,,2.7207658842432385e-05,87.42,0.7649999856948853,0.003327667763669212
87.517241,,2.9000643728586163e-05,87.888,0.7720000147819519,0.019321734838484584
87.98275899999999,,3.076789170949665e-05,88.35,0.7480000257492065,-0.03220907319016417
88.448276,,3.2502013489631295e-05,88.821,0.9950000047683716,0.5066675179584008
88.913793,,3.4195420371555694e-05,89.283,0.7490000128746033,-0.02855549913307518
89.37931,,3.584034279780114e-05,89.749,0.7710000276565552,0.020047213621779993
89.844828,,3.742885034363012e-05,90.215,0.753000020980835,-0.018573269477569557
90.310345,,3.895287315230462e-05,90.681,0.7699999809265137,0.018963598291098033
90.775862,,4.0404224798958977e-05,91.139,0.7609999775886536,-0.00025450637176613073
91.241379,,4.1774626563486773e-05,91.604,0.7789999842643738,0.0392296963367599
91.706897,,4.305573308698241e-05,92.069,0.7720000147819519,0.0241193870620993
92.17241399999999,,4.42391593802454e-05,92.534,0.7839999794960022,0.05027188171056543
92.63793100000001,,4.531650914667367e-05,93.006,0.7630000114440918,0.004398445487732583
93.103448,,4.627940437555625e-05,93.464,0.7519999742507935,-0.019815145228345887
93.568966,,4.711951615534272e-05,93.932,0.7549999952316284,-0.013645871090462617
94.03448300000001,,4.782859664993434e-05,94.394,0.7739999890327454,0.027276236422744175
94.5,,4.839851217442833e-05,94.865,0.7870000004768372,0.05503785437035448
94.965517,,4.882127730007299e-05,95.327,0.7710000276565552,0.0195491138359404
95.431034,,4.908908991147747e-05,95.795,0.7699999809265137,0.016690569727175884
95.896552,,4.919436713238848e-05,96.257,0.7459999918937683,-0.03630500358219818
96.36206899999999,,4.912978202962007e-05,96.723,0.7710000276565552,0.01744728883385579
96.827586,,4.88883009980258e-05,97.186,0.7730000019073486,0.021107735634892936
97.293103,,4.846322172275988e-05,97.652,0.75,-0.029658685248421485
97.758621,,4.7848211608511245e-05,98.117,0.8119999766349792,0.10482023762517499
98.224138,,4.703734655893842e-05,98.583,0.7699999809265137,0.012799481013441737
98.689655,,4.602514998321114e-05,99.05,0.7720000147819519,0.01673451807343365
99.155172,,4.480663190040428e-05,99.509,0.7720000147819519,0.01641921476600472
99.62069,,4.337732800652024e-05,99.98,0.7730000019073486,0.01839869036352478
100.086207,,4.173333856316631e-05,100.446,0.753000020980835,-0.025252276661263014
100.551724,,3.9871366961413145e-05,100.909,0.753000020980835,-0.025208493365865895
101.017241,,3.778875780913984e-05,101.372,0.753000020980835,-0.025045719033823792
101.482759,,3.548353438525961e-05,101.84,0.7549999952316284,-0.020412841287611963
101.948276,,3.295443529964957e-05,102.302,0.7710000276565552,0.014824817902196048
102.413793,,3.0200950193407862e-05,102.765,0.75,-0.030456726880399722
102.87931,,2.7223354310262316e-05,103.234,0.7739999890327454,0.0223762591731688
103.344828,,2.4022741766587516e-05,103.7,0.7739999890327454,0.02297958181983066
103.810345,,2.0601057344581603e-05,104.165,0.7480000257492065,-0.03302362861200514
104.275862,,1.696112663073987e-05,104.631,0.7749999761581421,0.02645852713816987
104.741379,,1.3106684319868847e-05,105.09,0.753000020980835,-0.020816698847567677
105.206897,,9.04240050354026e-06,105.557,0.7730000019073486,0.023386741874507518
105.672414,,4.773904761117167e-06,106.022,0.7739999890327454,0.026151949846802486
106.13793100000001,,3.0780787132157887e-07,106.487,0.7409999966621399,-0.04521925069256913
106.603448,,4.348279037220132e-06,106.955,0.6129999756813049,-0.3236443113110081
107.068966,,9.185728076895984e-06,107.421,0.753000020980835,-0.018289435300856808
107.534483,,1.4194881112133264e-05,107.884,0.7649999856948853,0.008093118981686616
108.0,,1.9365039366671346e-05,108.346,0.753000020980835,-0.017920358978853638
108.46551699999999,,2.468445630000352e-05,108.809,0.7739999890327454,0.027850107558124518
108.931034,,3.014033392194878e-05,109.279,0.7940000295639038,0.07133232506879762
109.396552,,3.57188227095984e-05,109.745,0.7559999823570251,-0.011652562423413133
109.862069,,4.140502528539513e-05,110.209,0.7739999890327454,0.027268365371121196
110.32758600000001,,4.7183004008832456e-05,110.675,0.765999972820282,0.009455840440171271
110.793103,,5.3035792627197075e-05,111.14,0.75,-0.025861572596051475
111.258621,,5.8945412122912015e-05,111.605,0.8889999985694885,0.27645288712204563
111.724138,,6.489289088636498e-05,112.065,0.7699999809265137,0.016636659015760044
112.189655,,7.085828933362438e-05,112.53,0.75,-0.027516776942642054
112.655172,,7.682072907815423e-05,112.994,0.7699999809265137,0.015467817162778641
113.12069,,8.275842675454149e-05,113.46,0.765999972820282,0.00617566799652762
113.586207,,8.864873258035247e-05,113.928,0.7570000290870667,-0.013980859955686084
114.051724,,9.446817372954735e-05,114.39,0.7739999890327454,0.022552702247903098
114.51724100000001,,0.00010019250257741753,114.858,0.765999972820282,0.004681030157443628
114.982759,,0.0001057967498627843,115.321,0.753000020980835,-0.024009875101728282
115.448276,,0.00011125528279823035,115.784,0.7739999890327454,0.02145746888707318
115.913793,,0.00011654186814344923,116.253,0.7490000128746033,-0.03320051497652336
116.37931,,0.00012162974024042038,116.719,0.7839999794960022,0.04295789429836449
116.84482799999999,,0.0001264916739920801,117.183,0.7369999885559082,-0.059433369172435364
117.310345,,0.00013110006274849332,117.649,0.7739999890327454,0.021279774314286126
117.77586199999999,,0.00013542700104627863,118.114,0.7630000114440918,-0.002488208462984807
118.241379,,0.00013944437212823807,118.58,0.7480000257492065,-0.034883899124148354
118.70689700000001,,0.00014312394015084356,119.039,0.7739999890327454,0.022121827189096756
119.172414,,0.00014643744696748003,119.504,0.7699999809265137,0.013833656364919369
119.63793100000001,,0.00014935671335519627,119.969,0.7739999890327454,0.02302670532062466
120.103448,,0.00015185374453222423,120.435,0.75,-0.02874623971716562
120.568966,,0.00015390083979275785,120.902,0.7480000257492065,-0.0325699703507323
121.034483,,0.000155470706064499,121.364,0.7570000290870667,-0.012426892549165807
121.5,,0.0001565365751733466,121.832,0.7490000128746033,-0.029335714251956985
121.96551699999999,,0.00015707232457840028,122.295,0.7699999809265137,0.016905668856752466
122.431034,,0.00015705260131924415,122.765,0.7739999890327454,0.026065323823825783
122.896552,,0.00015645294889635056,123.228,0.7699999809265137,0.01773808029447789
123.362069,,0.00015524993678447884,123.693,0.7480000257492065,-0.02987433251084954
123.827586,,0.00015342129225822453,124.154,0.7720000147819519,0.022651787526735193
124.293103,,0.00015094603418848787,124.62,0.753000020980835,-0.0185896472147372
124.758621,,0.0001478046084486671,125.091,0.75,-0.025062598463901423
125.22413800000001,,0.00014397902454993446,125.549,0.753000020980835,-0.01855481780240799
125.68965500000002,,0.000139452993106115,126.014,0.7760000228881836,0.03143701664527623
126.15517200000001,,0.00013421206371055873,126.481,0.734000027179718,-0.06026746030261578
126.62069000000001,,0.00012824376279007115,126.955,0.7450000047683716,-0.036581411999739695
127.086207,,0.00012153773098454752,127.413,0.7480000257492065,-0.030393001084612847
127.55172400000001,,0.00011408585958554012,127.876,0.7739999890327454,0.025848161151372357
128.017241,,0.00010588242555267848,128.339,0.75,-0.02688519370444029
128.48275900000002,,9.692422461376279e-05,128.807,0.7480000257492065,-0.0317163561526514
128.948276,,8.721070194256122e-05,129.27,0.7689999938011169,0.013548241971336505
129.413793,,7.674407989796102e-05,129.736,0.7480000257492065,-0.03268752806540246
129.87931,,6.552948229925089e-05,130.199,0.7490000128746033,-0.03097553795998586
130.344828,,5.357505470504905e-05,130.665,0.8629999756813049,0.21695757680755728
130.81034499999998,,4.0892080157843844e-05,131.132,0.7710000276565552,0.016138703569676376
131.275862,,2.7495089852371312e-05,131.597,0.7329999804496765,-0.06697442051539869
131.741379,,1.340196818419511e-05,132.061,0.7730000019073486,0.019913078817133566
132.206897,,1.3659483650392036e-06,132.527,0.753000020980835,-0.023844990134293226
132.67241399999997,,1.6783779047017118e-05,132.992,0.7559999823570251,-0.017416042903523932
133.13793099999998,,3.282301390779545e-05,133.457,0.7710000276565552,0.01523736185747939
133.60344800000001,,4.9451436620806565e-05,133.921,0.7509999871253967,-0.028281707044934074
134.06896600000002,,6.66330556133201e-05,134.39,0.7820000052452087,0.03938820442995695
134.53448300000002,,8.432804399674025e-05,134.85,0.7429999709129333,-0.04537485751260238
135.0,,0.00010249268879748737,135.32,0.7480000257492065,-0.034212774897300735
135.465517,,0.00012107934996884356,135.784,0.7739999890327454,0.02275574965091748
135.931034,,0.00014003642964522506,136.246,0.75,-0.02916335935296582
136.396552,,0.00015930835207938755,136.711,0.746999979019165,-0.035298795428447126
136.862069,,0.0001788355546799915,137.175,0.7689999938011169,0.01305106220038087
137.327586,,0.00019855449054057264,137.64,0.7490000128746033,-0.030096333868279663
137.793103,,0.00021839764282044927,138.105,0.7570000290870667,-0.012249106137643235
138.258621,,0.00023829355130519265,138.571,0.7720000147819519,0.02082832403288695
138.724138,,0.00025816685144206724,139.036,0.7739999890327454,0.025551648935174406
139.189655,,0.0002779383261132108,139.501,0.7490000128746033,-0.028591165308161012
139.655172,,0.00029752497036910204,139.969,0.7409999966621399,-0.045750277913871464
140.12069,,0.00031684006929367115,140.435,0.777999997138977,0.03506887311531158
140.586207,,0.0003357932891223837,140.895,0.75,-0.025790075737044657
141.05172399999998,,0.0003542907817025334,141.365,0.7689999938011169,0.015678086195038625
141.51724099999998,,0.00037223530235938346,141.828,0.7509999871253967,-0.02353456239420049
141.982759,,0.0003895263411693048,142.29,0.7710000276565552,0.01997181679389393
142.44827600000002,,0.00040606026753076346,142.758,0.7730000019073486,0.02419622603956102
142.913793,,0.0004217304878467188,143.221,0.7699999809265137,0.01746682631754761
143.37931,,0.00043642761617484425,143.686,0.7490000128746033,-0.02853221020480419
143.844828,,0.00045003965776869705,144.154,0.7490000128746033,-0.02882603200970671
144.310345,,0.000462452205267864,144.62,0.7699999809265137,0.016595257349843462
144.77586200000002,,0.00047354864689267047,145.08,0.7360000014305115,-0.057834443740722385
145.241379,,0.0004832103858809839,145.546,0.7739999890327454,0.024584515284201428
145.706897,,0.0004913170709990096,146.01,0.7739999890327454,0.024213431440083193
146.172414,,0.0004977468385339139,146.476,0.8109999895095825,0.10446405580935106
146.637931,,0.0005023765652710197,146.939,0.7480000257492065,-0.033127187732166545
147.103448,,0.0005050821299089446,147.409,0.7509999871253967,-0.02689623539225625
147.568966,,0.0005057386804490742,147.872,0.765999972820282,0.00551826242543446
148.034483,,0.0005042209092332544,148.335,0.7210000157356262,-0.09273899068937866
148.5,,0.0005004033402917817,148.799,0.7699999809265137,0.013849232576577216
148.965517,,0.0004941606274001707,149.268,0.7490000128746033,-0.032010319523555694
149.43103399999998,,0.00048536784996561287,149.734,0.7699999809265137,0.013693760076841158
149.89655199999999,,0.00047390079761455847,150.197,0.75,-0.02986562881415991
150.362069,,0.0004596362604057046,150.662,0.7519999742507935,-0.025435518186690056
150.82758600000003,,0.0004424523545398262,151.128,0.7699999809265137,0.013909161292430944
151.293103,,0.0004222288700780451,151.594,0.7519999742507935,-0.02512602307496689
151.758621,,0.0003988475658609423,152.059,0.7519999742507935,-0.02490079539474678
152.224138,,0.00037219237696572716,152.524,0.7720000147819519,0.0189344661261975
152.68965500000002,,0.00034214965805894526,152.984,0.746999979019165,-0.03524123490203632
153.155172,,0.00030860862942575835,153.449,0.7620000243186951,-0.0022522274205064286
153.62069,,0.0002714619020981603,153.921,0.7730000019073486,0.022030893704491676
154.086207,,0.00023060563754426634,154.383,0.7720000147819519,0.02016970640695183
154.551724,,0.00018593923836513767,154.846,0.8370000123977661,0.16209015612550837
155.017241,,0.00013736539839661965,155.309,0.7720000147819519,0.020768651369062474
155.482759,,8.479138286483585e-05,155.777,0.7699999809265137,0.01667418974245591
155.948276,,2.8130526632768674e-05,156.246,0.75,-0.026673284974951497
156.413793,,3.2698650011022666e-05,156.704,0.7490000128746033,-0.028671375579745764
156.87931,,9.777570459188856e-05,157.176,0.7689999938011169,0.015031985330066971
157.34482799999998,,0.00016717856750927469,157.634,0.7739999890327454,0.026002912399025642
157.81034499999998,,0.0002409766133702469,158.106,0.7670000195503235,0.010776135282163705
158.275862,,0.0003192241118838161,158.564,0.7739999890327454,0.025996340053324775
158.741379,,0.00040196887638900054,159.029,0.7620000243186951,-0.00022993974560105157
159.20689700000003,,0.0004892722983069043,159.494,0.75,-0.026505759688123905
159.672414,,0.0005812072593879272,159.959,0.765999972820282,0.008175780836992393
160.137931,,0.0006778150323883258,160.424,0.7570000290870667,-0.011646972886258291
160.60344800000001,,0.0007790750050972948,160.894,0.7480000257492065,-0.031500790665806695
161.06896600000002,,0.0008849690138581527,161.357,0.6330000162124634,-0.28231659828406586
161.534483,,0.0009955948292799388,161.82,0.7459999918937683,-0.03641870824584499
162.0,,0.001111124360897028,162.29,0.7699999809265137,0.015573478970247375
162.465517,,0.001231536978290827,162.749,0.7710000276565552,0.01746389459251662
162.931034,,0.0013564927934588632,163.215,0.7739999890327454,0.023728579967406075
163.396552,,0.0014857800566938021,163.681,0.7739999890327454,0.023483537969500392
163.862069,,0.001619932770265681,164.147,0.7490000128746033,-0.031194136923749848
164.327586,,0.0017598036077630243,164.613,0.7720000147819519,0.01874291438698536
164.793103,,0.0019049535250633878,165.08,0.7570000290870667,-0.014063813059030199
165.258621,,0.0020532456545080163,165.545,0.7739999890327454,0.022894725688542374
165.72413799999998,,0.0022038330604228114,166.01,0.7689999938011169,0.011973810743397902
166.189655,,0.0023603774636683974,166.475,0.7490000128746033,-0.03157621202416958
166.655172,,0.0025274735975902964,166.939,0.7739999890327454,0.02296150659372148
167.12069,,0.002701178854532752,167.401,0.7689999938011169,0.01218567051889003
167.58620699999997,,0.00286881173047051,167.865,0.7229999899864197,-0.08787426159913242
168.051724,,0.003028264902677089,168.335,0.7599999904632568,-0.007072915433926333
168.517241,,0.0032038259281152452,168.799,0.7480000257492065,-0.032998675517815566
168.98275900000002,,0.0034190851064387893,169.261,0.7549999952316284,-0.017511065233791343
169.44827600000002,,0.0036427935703684487,169.726,0.7739999890327454,0.024131610121481215
169.913793,,0.0038013839927317308,170.189,0.7319999933242798,-0.06712062490528187
170.37931,,0.0039002878201013394,170.654,0.7519999742507935,-0.023303401401450454
170.844828,,0.004094955057326529,171.121,0.7480000257492065,-0.03178866222631671
171.310345,,0.0044980104964103635,171.587,0.753000020980835,-0.020688489844481586
171.775862,,0.004879331340998015,172.054,0.7239999771118164,-0.08369185962837863
172.241379,,0.004823574927869736,172.519,0.7509999871253967,-0.024726167615426575
172.706897,,0.004474465711088053,172.984,0.7910000085830688,0.06252356715010461
173.172414,,0.004810212741720081,173.45,0.7699999809265137,0.016835926123096652
173.637931,,0.006332474502864257,173.913,0.8450000286102295,0.18025897864546928
174.103448,,0.007374970520891677,174.376,0.7710000276565552,0.019024224741399184
174.568966,,0.005084831267303967,174.843,0.7739999890327454,0.025506145940912477
175.034483,,0.0009206540839303376,175.305,0.7599999904632568,-0.005087353142402952
175.5,,0.0072147235600253925,175.773,0.7730000019073486,0.02310755837121842
175.96551699999998,,0.010268403131759423,176.235,0.7490000128746033,-0.029338219598177458
176.43103399999998,,0.010035264452285107,176.701,0.7739999890327454,0.024944573564077532
176.896552,,0.008591800680861718,177.168,0.8149999976158142,0.11406839714806263
177.36206900000002,,0.007791249778281773,177.634,0.7699999809265137,0.01581904682696312
177.827586,,0.010410366758892287,178.098,0.7730000019073486,0.022141976437579116
178.293103,,0.020460069260230418,178.564,0.7549999952316284,-0.01728364105708143
178.758621,,0.0382990871645139,179.029,0.7490000128746033,-0.030555994796385426
179.224138,,0.05669755431249072,179.495,0.753000020980835,-0.02202630440218276
179.68965500000002,,0.06559345199657744,179.955,0.7350000143051147,-0.061405568985206244
180.155172,,0.06112123008710115,180.421,0.7590000033378601,-0.009255009454191878
180.62069,,0.04782806260807804,180.891,0.7580000162124634,-0.011539065921794319
181.086207,,0.032189872183737936,181.353,0.7739999890327454,0.023249480788503047
181.551724,,0.01614554360122698,181.814,0.7480000257492065,-0.03342719917932121
182.01724099999998,,0.00251667692830404,182.283,0.7699999809265137,0.014509604405184947
182.482759,,0.024860970534110904,182.75,0.746999979019165,-0.035554758188499506
182.948276,,0.04695190331314425,183.214,0.7739999890327454,0.023349652172648762
183.413793,,0.06161461622671632,183.68,0.7689999938011169,0.01257110076967878
183.87931,,0.0643740059783275,184.139,0.7609999775886536,-0.004713538513645659
184.34482799999998,,0.057512316436181404,184.604,0.7580000162124634,-0.011080451990615442
184.81034499999998,,0.047662311665305136,185.076,0.7730000019073486,0.021786679874648985
185.27586200000002,,0.03957663295129023,185.534,0.7710000276565552,0.0176292935467489
185.74137900000002,,0.03305945441502451,185.999,0.7860000133514404,0.050514854169018415
186.206897,,0.025708439246920855,186.464,0.7699999809265137,0.015861347007837392
186.672414,,0.017115392158645895,186.932,0.7710000276565552,0.018236751949519046
187.137931,,0.009521650467793684,187.395,0.7509999871253967,-0.025155409214683493
187.60344800000001,,0.005008896764477646,187.865,0.7070000171661377,-0.12085854046131045
188.06896600000002,,0.0029705015702873446,188.328,0.753000020980835,-0.020513382057765518
188.534483,,0.000711467211323991,188.795,0.75,-0.026955603240108816
189.0,,0.0033874798795643776,189.257,0.7620000243186951,-0.0007535881061419196
189.465517,,0.0076731190866098295,189.723,0.7649999856948853,0.005803485407525532
189.931034,,0.009080958779742196,190.186,0.7459999918937683,-0.035607136265634436
190.39655199999999,,0.007430403340459967,190.652,0.7739999890327454,0.02534185860278934
190.862069,,0.006569730117600277,191.118,0.7570000290870667,-0.011782743103951866
191.327586,,0.010018722397592444,191.583,0.5299999713897705,-0.5064595138557956
191.793103,,0.016323758453805723,192.051,0.7559999823570251,-0.014243688280961543
192.25862099999998,,0.020386940941032463,192.509,0.765999972820282,0.00735854865706709
192.72413799999998,,0.019037721727259666,192.981,0.7739999890327454,0.02458989515478997
193.189655,,0.013607599484840785,193.439,0.7730000019073486,0.022207549872554824
193.655172,,0.007225875149192263,193.91,0.7760000228881836,0.02854160863625254
194.12069000000002,,0.0017289413754805222,194.372,0.7720000147819519,0.019634176523149985
194.586207,,0.002109420961661776,194.84,0.7680000066757202,0.010742589511016518
195.051724,,0.0033097982872182605,195.303,0.7609999775886536,-0.004663248830926291
195.517241,,0.0014643424200747397,195.765,0.7739999890327454,0.023531046308583565
195.98275900000002,,0.0017534769189035445,196.235,0.8360000252723694,0.1585121703275874
196.448276,,0.0032817204986541363,196.694,0.7950000166893005,0.06913020768280542
196.913793,,0.001268115863880833,197.166,0.777999997138977,0.03207465268348522
197.37931,,0.003260975977583967,197.624,0.7699999809265137,0.014664429016162227
197.844828,,0.007204953770087837,198.091,0.7870000004768372,0.05175649791888743
198.310345,,0.007784012246709282,198.557,0.7599999904632568,-0.006978601165983957
198.775862,,0.004684441526663601,199.024,0.7699999809265137,0.014925579551325941
199.241379,,0.0003113572917690697,199.49,0.75,-0.0285056289969582
199.706897,,0.0023989941205712533,199.955,0.7519999742507935,-0.023988691922409672
200.172414,,0.0028466838601358736,200.42,0.7730000019073486,0.021934630096420656
200.63793099999998,,0.00313687834710722,200.883,0.75,-0.027996831642984946
201.103448,,0.005198271786809599,201.346,0.5950000286102295,-0.365514057617077
201.568966,,0.008088552424059165,201.813,0.7799999713897705,0.03769605660515332
202.034483,,0.008981816842247033,202.276,0.777999997138977,0.03348407201143322
202.5,,0.006598329546312816,202.741,0.7490000128746033,-0.029568487123831814
202.965517,,0.002737302891965118,203.204,0.7760000228881836,0.02936131501823075
203.431034,,0.00022518984467328676,203.67,0.7710000276565552,0.01854919753469953
203.896552,,9.084524956293427e-05,204.135,0.7519999742507935,-0.022791911488040686
204.36206900000002,,0.0012433304574803422,204.601,0.8450000286102295,0.17984748191140784
204.827586,,0.0023751904207649503,205.065,0.9150000214576721,0.3323531692968215
205.293103,,0.0033115723497627422,205.531,0.7710000276565552,0.018605093441317895
205.758621,,0.0044393288877061675,205.996,0.7680000066757202,0.01202027622694002
206.224138,,0.005531989725647649,206.461,0.746999979019165,-0.03380804945294004
206.689655,,0.005658045266912689,206.924,0.7749999761581421,0.02709196899825137
207.155172,,0.0041620621662932485,207.395,0.8960000276565552,0.29058740189291116
207.62069,,0.0014842024622368664,207.858,0.7739999890327454,0.02465871126593407
208.086207,,0.001049068304543473,208.32,0.7509999871253967,-0.025594027681383344
208.551724,,0.0022432562076658727,208.788,0.7490000128746033,-0.030103825404218063
209.01724099999998,,0.001993868938645491,209.251,0.7739999890327454,0.024206198814553423
209.482759,,0.0014050942472494043,209.717,0.7450000047683716,-0.03912860444603141
209.948276,,0.0018470117260211772,210.182,0.7699999809265137,0.015190945325921277
210.413793,,0.0036178872096420045,210.648,0.7689999938011169,0.012878650583705582
210.87930999999998,,0.005566489329870106,211.113,0.8629999756813049,0.21755791898397348
211.344828,,0.006229268826415942,211.579,0.7549999952316284,-0.017824323942377377
211.810345,,0.005128971347737809,212.044,0.7820000052452087,0.04093804166926764
212.27586200000002,,0.0027214465675346865,212.509,0.7710000276565552,0.016939803751105705
212.741379,,0.0004125162802554508,212.969,0.7490000128746033,-0.03099460123908279
213.206897,,0.0036984292432588224,213.435,0.7720000147819519,0.019139067858064802
213.672414,,0.00627719724380114,213.906,0.7739999890327454,0.023549761651296144
214.137931,,0.007402474775783912,214.368,0.7739999890327454,0.023630879738110136
214.60344800000001,,0.007200018893234228,214.829,0.7689999938011169,0.012843863543062741
215.068966,,0.006527047178372116,215.298,0.7490000128746033,-0.03060169968148659
215.534483,,0.005934239658992661,215.761,0.7710000276565552,0.01747261452862989
216.0,,0.0051710828861419155,216.224,0.7480000257492065,-0.03248037087841712
216.465517,,0.003934413351180983,216.69,0.7739999890327454,0.024327263628955174
216.93103399999998,,0.0026191349640522737,217.157,0.734000027179718,-0.06265447443495423
217.39655199999999,,0.0017967729566834851,217.623,0.7699999809265137,0.015936490919911894
217.862069,,0.0012504726207012882,218.088,0.7710000276565552,0.018265792950031907
218.327586,,0.00018513769427497138,218.553,0.7519999742507935,-0.022991932004303488
218.793103,,0.0016652358304941398,219.018,0.7480000257492065,-0.03158890116989704
219.25862099999998,,0.003726714693224667,219.484,0.7699999809265137,0.016435487040121436
219.724138,,0.005419371657824855,219.946,0.7480000257492065,-0.03142672621985503
220.18965500000002,,0.006761824249047527,220.409,0.7490000128746033,-0.02920916171638568
220.65517200000002,,0.008007562933199633,220.88,0.7509999871253967,-0.024843794317962763
221.12069,,0.009115392326201571,221.342,0.7739999890327454,0.025242543821569575
221.586207,,0.009716177997405229,221.806,0.7519999742507935,-0.022740022990889043
222.051724,,0.00927037707466446,222.275,0.7580000162124634,-0.00974866548238389
222.517241,,0.007297075351084034,222.734,0.7490000128746033,-0.02946338310376374
222.98275900000002,,0.003946011974121329,223.204,0.7720000147819519,0.02051603212170351
223.448276,,0.00039533812669977195,223.67,0.7490000128746033,-0.029740675287099068
223.913793,,0.0018007977063391606,224.135,0.7549999952316284,-0.016830394695411952
224.37931,,0.0019499623871375444,224.601,0.7710000276565552,0.01785801914689029
224.844828,,0.0006341657399499145,225.061,0.753000020980835,-0.021530269233339956
225.31034499999998,,0.0010477985582643852,225.527,0.765999972820282,0.006622462161926849
225.775862,,0.0023631969830309536,225.994,0.7749999761581421,0.02606959509041956
226.241379,,0.0030707068102095968,226.46,0.7620000243186951,-0.0023989241914285477
226.706897,,0.0031322842653170604,226.921,0.7730000019073486,0.021439248353701937
227.172414,,0.002841876131131334,227.39,0.7490000128746033,-0.030952024757814355
227.63793099999998,,0.0030979401561732987,227.854,0.7710000276565552,0.016900977441373602
228.103448,,0.004699004691905759,228.316,0.753000020980835,-0.02236296284091298
228.56896600000002,,0.0070885030812174645,228.784,0.7480000257492065,-0.033274017581037214
229.03448300000002,,0.008590351027760913,229.246,0.7739999890327454,0.023384077213866077
229.5,,0.008252797336480596,229.712,0.7699999809265137,0.01471440630322186
229.965517,,0.0066923514370712985,230.175,0.7699999809265137,0.014790026769085581
230.431034,,0.0048511573874082115,230.641,0.7689999938011169,0.012715277210712424
230.896552,,0.0029238680200813698,231.105,0.7720000147819519,0.019380132734895694
231.362069,,0.0010126905725118763,231.571,0.7749999761581421,0.02606587393306047
231.827586,,0.00019823836434133544,232.036,0.7570000290870667,-0.012983817975529636
232.293103,,0.00037890085252333306,232.502,0.7839999794960022,0.046015969872926624
232.758621,,0.0005716188710966047,232.966,0.7739999890327454,0.02441106096592465
233.224138,,0.0021630734186310727,233.432,0.734000027179718,-0.06255467287402953
233.689655,,0.0048516451538703894,233.895,0.7599999904632568,-0.005738295473129099
234.155172,,0.006533758241837319,234.365,0.7480000257492065,-0.03172469064539001
234.62069,,0.005615548919585295,234.828,0.7720000147819519,0.020701205240158473
235.086207,,0.003028443395689076,235.29,0.7630000114440918,0.0012086261363163438
235.55172399999998,,0.0014410372336585821,235.758,0.6330000162124634,-0.28192972279533796
236.01724099999998,,0.0023220188435867494,236.22,0.746999979019165,-0.03351271218181356
236.482759,,0.004169655107256169,236.686,0.7620000243186951,-0.0008162180625763299
236.94827600000002,,0.004308364665858487,237.151,0.7749999761581421,0.027490910832486445
237.413793,,0.00224682694684787,237.616,0.7599999904632568,-0.005234725234249788
237.87931,,0.00013029970327442059,238.083,0.7720000147819519,0.02083399887203649
238.344828,,0.0002146568384446892,238.549,0.7480000257492065,-0.03155560696158234
238.810345,,0.0008132168826402025,239.013,0.7720000147819519,0.020606142953914414
239.27586200000002,,0.0021374704422389597,239.479,0.7480000257492065,-0.0318268389561141
239.741379,,0.0038594125203915944,239.939,0.7820000052452087,0.04208709597936451
240.206897,,0.006428975862452707,240.409,0.7739999890327454,0.024488981779176567
240.672414,,0.008987804180219425,240.872,0.746999979019165,-0.03450696462779161
241.137931,,0.009857342930392768,241.335,0.7730000019073486,0.02196691149159998
241.603448,,0.008466921842966251,241.799,0.7519999742507935,-0.02394895902600153
242.068966,,0.006028902241831584,242.268,0.7749999761581421,0.026008031982564447
242.534483,,0.004286418630593468,242.734,0.7590000033378601,-0.008985034293014501
243.0,,0.003898335224852105,243.197,0.7739999890327454,0.023581489354538333
243.465517,,0.004050868560391091,243.663,0.7480000257492065,-0.033151645179315486
243.93103399999998,,0.0035453353811180288,244.127,0.7490000128746033,-0.031034471457169123
244.39655199999999,,0.002154898585323421,244.593,0.7710000276565552,0.016863102385209272
244.862069,,0.0007523482287046415,245.058,0.7870000004768372,0.05171948266112763
245.327586,,0.00023024127517057958,245.524,0.7120000123977661,-0.11165078373444205
245.793103,,0.0007066700959107747,245.984,0.7480000257492065,-0.03316348700435438
246.258621,,0.0018220785095062716,246.45,0.7739999890327454,0.02356327876416728
246.724138,,0.003286121411632657,246.918,0.5450000166893005,-0.4752445726676394
247.18965500000002,,0.004756650988110533,247.38,0.753000020980835,-0.021969324328693012
247.655172,,0.005458582517820892,247.85,0.7300000190734863,-0.07194895000116411
248.12069,,0.004532624301806664,248.312,0.7609999775886536,-0.004268548975218693
248.586207,,0.0020709022502619964,248.78,0.7549999952316284,-0.01718842646792975
249.051724,,0.0004999792222529398,249.243,0.7630000114440918,0.000398524316890499
249.517241,,0.0016283242003949077,249.709,0.75,-0.027765135223468625
249.982759,,0.001305287918109235,250.172,0.7689999938011169,0.013784403257968762
250.44827600000002,,0.0010212010004924227,250.638,0.7590000033378601,-0.007854805063121568
250.913793,,0.001809307869459178,251.103,0.7509999871253967,-0.025149366551585416
251.37931000000003,,0.0028447694902904207,251.569,0.7730000019073486,0.02289878727043478
251.844828,,0.0024992675261671328,252.029,0.7509999871253967,-0.02493396911656646
252.31034499999998,,0.00047742485688948705,252.494,0.765999972820282,0.007819725362666551
252.77586200000002,,0.001668040756574952,252.961,0.7490000128746033,-0.02916948017870912
253.241379,,0.0020858021063063317,253.427,0.7720000147819519,0.020959282456695226
253.706897,,0.00032280575680615064,253.895,0.7739999890327454,0.02530807161023075
254.172414,,0.002471178001097558,254.357,0.7789999842643738,0.03616504702450908
254.63793099999998,,0.004746191119788152,254.825,0.7720000147819519,0.020851263512741535
255.10344800000001,,0.005896273056300617,255.287,0.7490000128746033,-0.029347170051906166
255.56896600000002,,0.006474693023636767,255.758,0.753000020980835,-0.020746919343267552
256.03448299999997,,0.007175496685484785,256.22,0.8360000252723694,0.15994604294449355
256.5,,0.007900463021552962,256.686,0.7730000019073486,0.02254124595300974
256.965517,,0.008080406903596836,257.15,0.7710000276565552,0.01802249028431563
257.431034,,0.00762690735932728,257.616,0.7149999737739563,-0.10415302212558866
257.896552,,0.0070441443158800075,258.081,0.753000020980835,-0.021541411160476125
258.362069,,0.006661727658197097,258.539,0.7490000128746033,-0.030433868547544058
258.827586,,0.006325435876041108,259.006,0.7730000019073486,0.021681484165242276
259.29310300000003,,0.005957591661433204,259.472,0.7549999952316284,-0.01769504472961084
259.758621,,0.005796691381057321,259.94,0.7580000162124634,-0.011303661666295393
260.224138,,0.005693358454800669,260.402,0.7850000262260437,0.04739639337636258
260.689655,,0.004762484387931809,260.865,0.777999997138977,0.032048396396737365
261.155172,,0.0025284750581753847,261.335,0.765999972820282,0.005836604559915722
261.62068999999997,,0.0001786267410642893,261.798,0.9589999914169312,0.4262829171325785
262.086207,,0.0003485651938639023,262.261,0.7739999890327454,0.023239538170815078
262.551724,,0.0011148348134705959,262.726,0.7519999742507935,-0.024648057914275226
263.017241,,0.00218264805692851,263.189,0.7720000147819519,0.018998578875400435
263.482759,,0.0004704427767553029,263.655,0.7689999938011169,0.012565133253411697
263.94827599999996,,0.0034031027003250044,264.121,0.7739999890327454,0.023587263682955793
264.413793,,0.006248694934444507,264.587,0.7699999809265137,0.015024168726429116
264.87931,,0.005807975784029065,265.054,0.7739999890327454,0.023908489516008106
265.34482799999995,,0.0031076287187849112,265.52,0.7990000247955322,0.07855822468985099
265.810345,,0.001021076952314708,265.984,0.7699999809265137,0.015569470995865442
266.27586199999996,,0.001099683629399432,266.45,0.7570000290870667,-0.012558554468272991
266.741379,,0.0024533329541546155,266.913,0.7699999809265137,0.015953622262501924
267.206897,,0.003362107326019856,267.375,0.7480000257492065,-0.03179703945927808
267.672414,,0.003058570382283317,267.843,0.7490000128746033,-0.029455129865346822
268.137931,,0.0019036049907875528,268.305,0.75,-0.027134651076497224
268.603448,,0.0006730667102806333,268.773,0.75,-0.027018327290376624
269.06896600000005,,2.8264312207461333e-05,269.235,0.746999979019165,-0.033466926649043695
269.53448299999997,,0.00015987500600791047,269.701,0.7739999890327454,0.025413020830803778
270.0,,0.00026730640014998235,270.165,0.7739999890327454,0.025437854005687432
270.465517,,0.0008374473838667539,270.631,0.7649999856948853,0.005823018305765116
270.931034,,0.0016664714905876006,271.098,0.765999972820282,0.007962845185161846
271.396552,,0.002163447156402643,271.564,0.7480000257492065,-0.03132254547974983
271.86206899999996,,0.002151356408732692,272.028,0.753000020980835,-0.020528552560782058
272.327586,,0.0019917602503981596,272.494,0.7730000019073486,0.02291898905877885
272.793103,,0.001993516716830371,272.954,0.7559999823570251,-0.014265315588656038
273.258621,,0.0020805288116666066,273.42,0.7730000019073486,0.022607209433612798
273.724138,,0.0020400154274721606,273.888,0.7730000019073486,0.022430567697109875
274.18965499999996,,0.001807555358719991,274.351,0.7570000290870667,-0.012611224555662777
274.655172,,0.001556335554841349,274.814,0.7739999890327454,0.02424057093323215
275.12069,,0.0016826990163462297,275.283,0.7519999742507935,-0.023871230586923687
275.586207,,0.0024118097082425492,275.75,0.7689999938011169,0.012993146212125873
276.051724,,0.0031332595564697607,276.214,0.7720000147819519,0.019370526461343723
276.517241,,0.0025729470004044793,276.68,0.7509999871253967,-0.026521064811879064
276.98275900000004,,0.00019859962122509186,277.14,0.7639999985694885,0.0016837518513571552
277.448276,,0.0027595137981671156,277.605,0.7699999809265137,0.014663774565296082
277.913793,,0.00432258414758618,278.069,0.7760000228881836,0.02767291468299747
278.37931,,0.003898486200166391,278.535,0.7480000257492065,-0.03336158074468318
278.844828,,0.002903959361289273,279.002,0.7730000019073486,0.02110314749276999
279.31034500000004,,0.002962943383791035,279.468,0.7490000128746033,-0.031155110413156335
279.77586199999996,,0.003914944041774603,279.936,0.75,-0.02891782316078252
280.241379,,0.004175838166922598,280.397,0.7440000176429749,-0.04190397694995767
280.706897,,0.0028206986912321878,280.865,0.7639999985694885,0.0017793222542004511
281.172414,,0.0004954894063591068,281.328,0.7739999890327454,0.02369839130443855
281.637931,,0.001759488589404428,281.791,0.7519999742507935,-0.024080616863498727
282.10344799999996,,0.0035569794898878846,282.254,0.7710000276565552,0.017479161402439332
282.568966,,0.004543767847564067,282.719,0.765999972820282,0.006760536688694657
283.034483,,0.0037509596640454166,283.19,0.7519999742507935,-0.023561568793574402
283.5,,0.0006923984061751905,283.649,0.7480000257492065,-0.03209872336457468
283.965517,,0.003200362922973153,284.12,0.6700000166893005,-0.20186469497711382
284.431034,,0.005362771916751691,284.579,0.7699999809265137,0.01615428835931651
284.89655200000004,,0.0046759877227094005,285.044,0.7739999890327454,0.02500658647535044
285.362069,,0.0026845300135447097,285.51,0.7509999871253967,-0.024983277024482598
285.827586,,0.0018486404391086573,285.977,0.7699999809265137,0.01650785125679261
286.293103,,0.002962324309884919,286.442,0.765999972820282,0.007865378830138475
286.758621,,0.004668067731823494,286.906,0.7699999809265137,0.016625830087049785
287.22413800000004,,0.005054936371450705,287.375,0.7509999871253967,-0.024750447565176033
287.689655,,0.0031366294556608417,287.836,0.7739999890327454,0.025348090908775937
288.155172,,0.0007715394656063297,288.305,0.7789999842643738,0.036203422331389803
288.62069,,0.005072444545045263,288.766,0.75,-0.027041630387804657
289.086207,,0.007203220886786394,289.235,0.7739999890327454,0.025156552141228965
289.55172400000004,,0.005027237274875106,289.701,0.7419999837875366,-0.04467250262976896
290.01724099999996,,0.0011481831044514996,290.165,0.7710000276565552,0.018376156249265665
290.482759,,0.008032691842064819,290.63,0.7480000257492065,-0.031881322379248796
290.948276,,0.01157670274694885,291.096,0.8529999852180481,0.19671770298837693
291.413793,,0.010286941327461559,291.554,0.7699999809265137,0.015726543356134094
291.87931,,0.00626374308329612,292.021,0.7480000257492065,-0.03236828383003232
292.344828,,0.0027155666246645818,292.487,0.7730000019073486,0.021934339252845172
292.81034500000004,,0.0007764059389046775,292.954,0.6919999718666077,-0.1546954146729241
293.275862,,0.0006518254467466185,293.42,0.7620000243186951,-0.002341449159890907
293.74137900000005,,0.0022990934296481767,293.88,0.7739999890327454,0.02366369915652238
294.206897,,0.0031216998530881807,294.35,0.7459999918937683,-0.03745887060391055
294.672414,,0.0020645718892546737,294.813,0.7739999890327454,0.023444204895126733
295.13793100000004,,7.676900824697114e-05,295.276,0.753000020980835,-0.022382151664068387
295.603448,,0.0010437156185243044,295.741,0.7710000276565552,0.016785362586232526
296.068966,,0.0017735567822762927,296.204,0.7760000228881836,0.027658898329879302
296.534483,,0.005822527069165417,296.67,0.7480000257492065,-0.03333376781174408
297.0,,0.017295934791384533,297.135,0.7990000247955322,0.0778159597763093
297.46551700000003,,0.03648766293909381,297.601,0.7739999890327454,0.023417384087924445
297.931034,,0.05804168801489396,298.066,0.7699999809265137,0.014797796548029981
298.396552,,0.07347656610169684,298.531,0.7490000128746033,-0.03083502406404874
298.862069,,0.07650619477909107,298.998,0.7580000162124634,-0.011088649274170224
299.327586,,0.0667078446286414,299.464,0.7549999952316284,-0.017470242059019963
299.79310300000003,,0.04836606082475785,299.925,0.7490000128746033,-0.0303761077124413
300.258621,,0.02615209640019236,300.395,0.7710000276565552,0.017727370915467843
300.724138,,0.002149556899628078,300.858,0.7570000290870667,-0.012597687150267661
301.189655,,0.023373743560761637,301.32,0.7739999890327454,0.024613502489112968
301.65517200000005,,0.04899379580166239,301.791,0.7860000133514404,0.05092555182099681
302.12069,,0.07040322142174195,302.254,0.7710000276565552,0.018403769566418177
302.586207,,0.08223902483186617,302.719,0.765999972820282,0.007653103189030975
303.05172400000004,,0.0822658757090442,303.183,0.7480000257492065,-0.0314399441158381
303.517241,,0.07361321333383855,303.649,0.7760000228881836,0.029660723684741548
303.982759,,0.06225410774845281,304.114,0.7739999890327454,0.025375538164552448
304.448276,,0.05232326587997029,304.58,0.7730000019073486,0.023240978158370274
304.913793,,0.044309300571537626,305.039,0.7509999871253967,-0.024675382602867658
305.37931000000003,,0.03716007805251458,305.504,0.8489999771118164,0.18881639010406728
305.844828,,0.030653435091994894,305.969,0.7739999890327454,0.025374082207412572
306.310345,,0.025248019298043555,306.435,0.6359999775886536,-0.27535371105567086
306.775862,,0.020729690700295775,306.903,0.722000002861023,-0.08809774943490974
307.241379,,0.016151529889609422,307.365,0.7480000257492065,-0.03159049841828136
307.70689699999997,,0.011035197869960166,307.835,0.75,-0.02739416932192442
308.172414,,0.005884791627468142,308.297,0.7450000047683716,-0.03846642738186519
308.637931,,0.001300913650749501,308.761,0.7450000047683716,-0.03865845922609388
309.103448,,0.0028552609624011823,309.224,0.5419999957084656,-0.48112749942040955
309.568966,,0.0069723604619046685,309.689,0.765999972820282,0.006678276962147992
310.034483,,0.010719413739737716,310.154,0.7739999890327454,0.023898984133563887
310.5,,0.01314357983778867,310.62,0.7490000128746033,-0.030761856015204533
310.96551700000003,,0.01362564020747507,311.087,0.75,-0.02875846277565692
311.431034,,0.012320990767351802,311.552,0.75,-0.02890894354299079
311.896552,,0.009915067836850944,312.016,0.7480000257492065,-0.03338695024284537
312.362069,,0.007484470478001059,312.482,0.7720000147819519,0.018814002457804423
312.827586,,0.006301113833072254,312.955,0.7720000147819519,0.01876540721327334
313.29310300000003,,0.0070114875791922274,313.413,0.7720000147819519,0.01875703080697247
313.758621,,0.00898120395628336,313.876,0.8399999737739563,0.16693863991810995
314.224138,,0.010946201612587634,314.346,0.7440000176429749,-0.042136346699531674
314.689655,,0.012295805071077106,314.806,0.7730000019073486,0.02115720105796781
315.155172,,0.013313728927697844,315.276,0.753000020980835,-0.022270223185100753
315.62068999999997,,0.014249179965975255,315.734,0.7480000257492065,-0.03299020181502902
316.086207,,0.01474273354529128,316.204,0.7480000257492065,-0.03279538743806194
316.551724,,0.014496846574427184,316.67,0.765999972820282,0.006630498298289009
317.017241,,0.01417228893734472,317.131,0.7549999952316284,-0.017115101739748204
317.482759,,0.01488876593785349,317.597,0.777999997138977,0.033215771763178956
317.94827599999996,,0.01644840511072732,318.061,0.781000018119812,0.039969673366184844
318.413793,,0.016621278242782023,318.527,0.7300000190734863,-0.07093505271237376
318.87931000000003,,0.013238427839513109,318.991,0.777999997138977,0.033827233013768
319.344828,,0.007190453975904119,319.457,0.753000020980835,-0.02047672593485631
319.810345,,0.002399740382409368,319.924,0.75,-0.02688085016266204
320.275862,,0.002050525875372235,320.386,0.7549999952316284,-0.015890907231764197
320.741379,,0.005224355760650898,320.85,0.7509999871253967,-0.024547095335247605
321.20689699999997,,0.007980643897630823,321.32,0.7870000004768372,0.05390314514806225
321.672414,,0.007644763634682169,321.784,0.7739999890327454,0.025560311788823488
322.137931,,0.005371919414344677,322.246,0.7649999856948853,0.005893495923494294
322.603448,,0.00439123096726262,322.711,0.7480000257492065,-0.031240101789600804
323.068966,,0.006327739450213105,323.175,0.7739999890327454,0.025273077986499384
323.53448299999997,,0.009671193646450712,323.641,0.753000020980835,-0.020640649064880487
324.0,,0.011583894247231451,324.106,0.753000020980835,-0.020828488579554785
324.465517,,0.010642954524286256,324.571,0.7749999761581421,0.02689421168672053
324.931034,,0.007659947066722713,325.036,0.7739999890327454,0.024495929062458458
325.396552,,0.004327863466460317,325.502,0.7480000257492065,-0.03237375969525341
325.86206899999996,,0.0016864008013341924,325.969,0.7689999938011169,0.013154326639295734
326.327586,,0.00010247121951999835,326.435,0.75,-0.02845490661654156
326.793103,,0.0010750316037189326,326.895,0.7739999890327454,0.023633398887368665
327.258621,,0.0010820687871365478,327.365,0.7480000257492065,-0.033188460297234025
327.724138,,0.00013889474477312542,327.828,0.765999972820282,0.005877840525446145
328.189655,,0.0011240599814090987,328.29,0.7580000162124634,-0.01166779380074324
328.655172,,0.0016873263628649241,328.761,0.7490000128746033,-0.03135570128084286
329.12068999999997,,0.0008866639272917052,329.224,0.7699999809265137,0.014354908251383372
329.586207,,0.0011943862603150976,329.69,0.7480000257492065,-0.03357544862834207
330.051724,,0.003931727250147436,330.15,0.7739999890327454,0.02311019011054506
330.517241,,0.0064089826515899085,330.616,0.7519999742507935,-0.024739276972882186
330.982759,,0.0076499165451483515,331.083,0.7490000128746033,-0.031157119824818717
331.44827599999996,,0.007309553433160488,331.549,0.7739999890327454,0.0234605515806577
331.913793,,0.006311654092468177,332.009,0.777999997138977,0.03235635335089641
332.37931,,0.006210007401107574,332.475,0.7509999871253967,-0.026261925773296457
332.844828,,0.007482130775284779,332.943,0.7649999856948853,0.004461304237058736
333.310345,,0.00867749018489831,333.406,0.7699999809265137,0.0155865539753454
333.77586199999996,,0.0077515757589618406,333.869,0.753000020980835,-0.02121584560714191
334.241379,,0.004458367727907803,334.339,0.75,-0.02752293307625014
334.706897,,0.0011075111094222545,334.799,0.7699999809265137,0.0162657933674275
335.17241399999995,,0.0004588669673181167,335.268,0.7519999742507935,-0.0227539106412955
335.637931,,0.0028075092529185317,335.734,0.7820000052452087,0.04277569761105066
336.103448,,0.0055373136776449075,336.196,0.7699999809265137,0.016770938329021517
336.56896600000005,,0.005827912137985504,336.662,0.7490000128746033,-0.028877453269309954
337.034483,,0.0036212105623612753,337.124,0.753000020980835,-0.020100039152692838
337.5,,0.0015461548891602627,337.59,0.7739999890327454,0.025671871423698468
337.965517,,0.001922905730950855,338.054,0.7710000276565552,0.01911384188970319
338.431034,,0.004266000550643419,338.519,0.7739999890327454,0.02558585556680785
338.89655200000004,,0.005918584484927407,338.991,0.7480000257492065,-0.031163091292396285
339.36206899999996,,0.004843678056751133,339.449,0.7519999742507935,-0.022590774718631197
339.827586,,0.0016097903584448498,339.917,0.7490000128746033,-0.029302848424573213
340.293103,,0.0012042651051506782,340.38,0.7720000147819519,0.020601745234779038
340.758621,,0.0014731388189412435,340.85,0.746999979019165,-0.03409023608524256
341.224138,,0.0005792316921383338,341.313,0.7609999775886536,-0.003829201283759092
341.68965499999996,,0.0029898002527679636,341.776,0.7540000081062317,-0.01932648013078175
342.155172,,0.004307309016731686,342.239,0.7620000243186951,-0.0021426781180135615
342.62069,,0.004629230625745312,342.704,0.7509999871253967,-0.026344014719107092
343.086207,,0.004436283293411659,343.169,0.6970000267028809,-0.14421133105228
343.551724,,0.0034472015853509058,343.635,0.7749999761581421,0.02552516000659297
344.01724099999996,,0.0013598343012900752,344.102,0.7490000128746033,-0.03128727931009086
344.48275900000004,,0.0009235900170080245,344.568,0.7739999890327454,0.02304836085945757
344.948276,,0.0019141506921113052,345.035,0.7699999809265137,0.014245247030000237
345.413793,,0.0014203421058455923,345.494,0.7699999809265137,0.014202307753786916
345.87931,,0.0008826330293832461,345.965,0.765999972820282,0.005491872415640627
346.344828,,0.0014094164490634376,346.431,0.75,-0.02931544888573604
346.81034500000004,,0.002304315223219824,346.891,0.7699999809265137,0.014353651219369068
347.275862,,0.0023420239650185906,347.354,0.75,-0.029080773041630117
347.741379,,0.001811221342967122,347.821,0.75,-0.02890452870945602
348.206897,,0.0020009235625043807,348.29,0.7739999890327454,0.02359156197452989
348.672414,,0.0028489705154828384,348.749,0.7710000276565552,0.01729076719591264
349.13793100000004,,0.0025844573974910284,349.214,0.7749999761581421,0.02625975159534166
349.60344799999996,,0.0002587918132417684,349.68,0.746999979019165,-0.03447714343441842
350.068966,,0.0024423199155643046,350.146,0.7250000238418579,-0.08214129573651321
350.534483,,0.002883915466993941,350.612,0.7490000128746033,-0.029596538891689735
351.0,,0.0005809630424827555,351.077,0.7490000128746033,-0.029356099812631233
351.465517,,0.0022526955705870887,351.543,0.7739999890327454,0.02532679019245168
351.93103399999995,,0.003240176604365179,352.009,0.75,-0.026774451696434363
352.396552,,0.0022028200629491436,352.474,0.7549999952316284,-0.01573184761469524
352.862069,,0.0007607352367960231,352.935,0.7450000047683716,-0.03741140168838181
353.32758600000005,,0.00026759447047237814,353.405,0.7639999985694885,0.004043764158528381
353.793103,,0.0007836052829456049,353.865,0.777999997138977,0.03455818578809068
354.258621,,0.001703673304048932,354.335,0.746999979019165,-0.033014561981026085
354.72413800000004,,0.002471552579574305,354.795,0.7689999938011169,0.01483358529255411
355.189655,,0.002585589916983209,355.265,0.7689999938011169,0.014706424384884257
355.655172,,0.0018033387027874758,355.724,0.7739999890327454,0.02543181458736538
356.12069,,0.0007918711424784652,356.194,0.6010000109672546,-0.35168091077808417
356.586207,,0.0008671836428237575,356.66,0.7609999775886536,-0.0033390903210376716
357.05172400000004,,0.00246060661701428,357.124,0.7699999809265137,0.01600195329828755
357.517241,,0.004268649596123961,357.59,0.7519999742507935,-0.023493677312198466
357.982759,,0.004464323163417637,358.054,0.765999972820282,0.00672328006419484
358.448276,,0.0024881067605287545,358.519,0.7480000257492065,-0.032771435409335074
358.913793,,0.0006573618803523623,358.984,0.7409999966621399,-0.048287541343940484
359.37931000000003,,0.003468396460133221,359.449,0.7559999823570251,-0.015851197325307632
359.844828,,0.004973469616658441,359.91,0.7580000162124634,-0.011706451814774992
360.310345,,0.005236343535807638,360.379,0.7710000276565552,0.01644188845995701
360.775862,,0.0053673959408024,360.84,0.753000020980835,-0.022903323405009134
361.241379,,0.00665927943975103,361.309,0.7480000257492065,-0.03387750768085946
361.706897,,0.009042578184260212,361.772,0.7699999809265137,0.01402307624152442
362.172414,,0.010550773258394507,362.235,0.7699999809265137,0.014046775245298244
362.63793100000004,,0.009062897722089312,362.701,0.746999979019165,-0.035985714914110144
363.103448,,0.004684303354143174,363.166,0.753000020980835,-0.022787564134165352
363.568966,,0.0002608262417329175,363.631,0.7739999890327454,0.023136147934641606
364.034483,,0.0036937499533415707,364.098,0.7850000262260437,0.047315156102441774
364.5,,0.005443498870394861,364.564,0.7739999890327454,0.02359908635931026
364.96551700000003,,0.006276347626130755,365.029,0.765999972820282,0.006445918286939318
365.431034,,0.006267472168600999,365.494,0.7490000128746033,-0.03029794087726682
365.896552,,0.004858151992556181,365.954,0.7739999890327454,0.024468375207302658
366.362069,,0.0020845217112924136,366.42,0.75,-0.027521768406994548
366.827586,,0.0009272588254557747,366.889,0.7620000243186951,-0.001093329926631078
367.29310300000003,,0.002679220775411491,367.352,0.7699999809265137,0.016598186991196105
367.758621,,0.002240684968250262,367.814,0.746999979019165,-0.03327923170696484
368.224138,,0.0002836546495380836,368.283,0.7720000147819519,0.02137961625005373
368.689655,,0.003629279322384972,368.749,0.7730000019073486,0.023705739403832853
369.155172,,0.005700504159916286,369.215,0.7519999742507935,-0.02194851159757639
369.62068999999997,,0.0049056277669625396,369.681,0.7710000276565552,0.01948939724563474
370.086207,,0.0019118612885907539,370.14,0.7139999866485596,-0.10470672575650428
370.55172400000004,,0.0004102660159380422,370.605,0.75,-0.02634580975902668
371.017241,,0.00018247483370128096,371.069,0.7269999980926514,-0.07658076445647123
371.482759,,0.002584564626151023,371.535,0.7739999890327454,0.025638842406660194
371.948276,,0.00342337411477532,372.002,0.7480000257492065,-0.031227172124541343
372.413793,,0.0010105227675121953,372.467,0.777999997138977,0.03387436714424287
372.87931000000003,,0.002653335546605834,372.935,0.7720000147819519,0.02051692879762617
373.344828,,0.004080659810538962,373.398,0.7730000019073486,0.022391977594762455
373.810345,,0.0018697511724173675,373.861,0.7720000147819519,0.019901660582347692
374.275862,,0.0020943255697908497,374.324,0.6539999842643738,-0.2374908119897556
374.741379,,0.0045227047066473385,374.792,0.7710000276565552,0.01710743382072328
375.20689699999997,,0.0036377971102011042,375.254,0.7519999742507935,-0.02457082904560777
375.672414,,0.00045799495430808756,375.72,0.7699999809265137,0.0143925002367642
376.137931,,0.002576217673406642,376.191,0.7739999890327454,0.022895201242650227
376.603448,,0.003925393802242175,376.649,0.7699999809265137,0.014016846710578382
377.068966,,0.003703261223221361,377.117,0.7730000019073486,0.020442965713786364
377.53448299999997,,0.0026400321779808085,377.583,0.753000020980835,-0.023182401653159983
378.0,,0.0011530207055034636,378.05,0.7450000047683716,-0.040605429982708295
378.465517,,0.000524296214078476,378.509,0.7480000257492065,-0.03400514135669586
378.931034,,0.0020674989533972445,378.976,0.734000027179718,-0.06438595441589302
379.396552,,0.0032261954530855884,379.442,0.7870000004768372,0.051255518711321474
379.862069,,0.003767764577846457,379.906,0.746999979019165,-0.035668963816694474
380.327586,,0.003114022319826007,380.375,0.7720000147819519,0.019060201999283218
380.79310300000003,,0.0007718135861640669,380.836,0.7519999742507935,-0.024217348046106965
381.258621,,0.002422281294267556,381.305,0.7720000147819519,0.019674400712744882
381.724138,,0.004230013464118016,381.766,0.7739999890327454,0.024363444583178365
382.189655,,0.003103918572885323,382.236,0.7490000128746033,-0.029768778299870794
382.655172,,9.717967054932451e-05,382.695,0.7879999876022339,0.05552332239878327
383.12068999999997,,0.002168352231712292,383.161,0.75,-0.026960212273501292
383.586207,,0.0023782133316836897,383.627,0.8159999847412109,0.11710620976901846
384.051724,,0.0016339787172517763,384.091,0.753000020980835,-0.019911372189229466
384.517241,,0.0018110307576629544,384.557,0.7699999809265137,0.017315377221894652
384.982759,,0.003668121903467143,385.024,0.7739999890327454,0.02616510573318284
385.44827599999996,,0.00656131533037136,385.49,0.7519999742507935,-0.02168974118229897
385.913793,,0.009062198114511503,385.958,0.6079999804496765,-0.335405900626499
386.37931,,0.009620330747021066,386.417,0.746999979019165,-0.03263448921755482
386.84482799999995,,0.007531350518851651,386.88,0.7760000228881836,0.03042019354401795
387.310345,,0.003866949411642096,387.35,0.7649999856948853,0.006270754505758396
387.775862,,0.0009528360249493225,387.813,0.7480000257492065,-0.031002671829427977
388.241379,,0.00025913863405827454,388.276,0.6840000152587891,-0.17071935595851448
388.70689699999997,,0.0008993564093094693,388.741,0.7889999747276306,0.05771752933360662
389.172414,,0.0006501727122366802,389.205,0.7609999775886536,-0.0036310564068469443
389.637931,,0.0015398327485226541,389.671,0.7680000066757202,0.011260524302349001
390.103448,,0.004354571465727226,390.137,0.777999997138977,0.03268728155378813
390.56896600000005,,0.0055223852257076,390.603,0.9800000190734863,0.47243039334129966
391.03448299999997,,0.004311730209590739,391.064,0.7739999890327454,0.023315449533914116
391.5,,0.002362241306850651,391.53,0.7570000290870667,-0.013997713594374576
391.965517,,0.0017601265048249055,391.995,0.7519999742507935,-0.02512603138557047
392.431034,,0.0025787075573373186,392.461,0.7710000276565552,0.01608218016108627
392.896552,,0.003156120981915493,392.928,0.7699999809265137,0.013772554478495007
393.36206899999996,,0.002817941669007276,393.391,0.7509999871253967,-0.027693031673667923
393.827586,,0.002955913228416814,393.854,0.7639999985694885,0.0006196647165039159
394.293103,,0.004589393734518748,394.324,0.7580000162124634,-0.01240003791608808
394.75862099999995,,0.00616414561077552,394.784,0.7739999890327454,0.02257111582756334
395.224138,,0.0053723238158545185,395.255,0.7680000066757202,0.00966960830525218
395.68965499999996,,0.0025681742055242104,395.72,0.7580000162124634,-0.011894484212002612
396.155172,,0.0006327557373788462,396.183,0.7739999890327454,0.023230996950905837
396.62069,,0.0012599164772334542,396.649,0.7720000147819519,0.019177532632066726
397.086207,,0.0027646338023271846,397.114,0.7480000257492065,-0.03277956911856801
397.551724,,0.0023507702138106114,397.579,0.7490000128746033,-0.030255329872686455
398.017241,,0.0002079109585435988,398.039,0.7699999809265137,0.01584590990930086
398.48275900000004,,0.002262230560901266,398.505,0.753000020980835,-0.02084803619438359
398.94827599999996,,0.0016670110363777104,398.97,0.7490000128746033,-0.029237648426290466
399.413793,,0.000638755450779547,399.436,0.7710000276565552,0.018989172624978973
399.87931,,0.002089934165671809,399.906,0.7490000128746033,-0.028682327040090567
400.344828,,0.0016673824114161687,400.368,0.7739999890327454,0.02599670071678052
400.810345,,0.0005420593397899529,400.832,0.7509999871253967,-0.023952134393434972
401.27586199999996,,6.058689085402897e-05,401.294,0.7730000019073486,0.024080355552146458
401.741379,,0.00031106469650488887,401.765,0.7720000147819519,0.021942998412393167
402.206897,,0.0006531486650910175,402.228,0.7490000128746033,-0.02818706801736547
402.672414,,0.0007508665875419727,402.693,0.7860000133514404,0.052339798241812695
403.137931,,0.0008767364988954301,403.158,0.7749999761581421,0.028232669860712906
403.60344799999996,,0.001541547553045645,403.624,0.7710000276565552,0.01932212277228637
404.068966,,0.002798081377540518,404.091,0.777999997138977,0.03432825333578923
404.534483,,0.0038398073646397812,404.549,0.7599999904632568,-0.005172602484110448
405.0,,0.00359053606247529,405.014,0.7710000276565552,0.01847525264586913
405.465517,,0.0018336912565736154,405.479,0.7699999809265137,0.015956952665225482
405.931034,,0.00043891777350937833,405.947,0.7480000257492065,-0.03232450216788772
406.39655200000004,,0.0018305717621858147,406.409,0.753000020980835,-0.021783891851835935
406.862069,,0.0016149911534750515,406.88,0.8690000176429749,0.2305985806439596
407.327586,,0.00022638648866239806,407.342,0.7549999952316284,-0.018083388520219346
407.793103,,0.0011388722756017372,407.806,0.777999997138977,0.03174288613117736
408.258621,,0.0016119261590133746,408.276,0.7720000147819519,0.018429142093578942
408.72413800000004,,0.0014734467300580364,408.734,0.7739999890327454,0.02259315737720578
409.18965499999996,,0.0016821194698158665,409.204,0.7620000243186951,-0.0036892643321832005
409.655172,,0.0025751171431598542,409.67,0.765999972820282,0.004945117107894049
410.12069,,0.003366873755650723,410.131,0.7760000228881836,0.026712932424924025
410.586207,,0.0030293562282274803,410.596,0.7269999980926514,-0.07999817903330719
411.05172400000004,,0.0014123031400309558,411.061,0.7490000128746033,-0.03196601394747004
411.51724099999996,,0.0006956092147122127,411.527,0.7919999957084656,0.06187450501488346
411.982759,,0.0026078928622244838,411.992,0.7710000276565552,0.016335226347990433
412.448276,,0.0046088490889188444,412.457,0.7739999890327454,0.023130623875500064
412.913793,,0.007375779729558638,412.92,0.7549999952316284,-0.017965538204193207
413.37931,,0.010579122355960835,413.39,0.7739999890327454,0.02375605192230133
413.844828,,0.01274489982074301,413.85,0.7739999890327454,0.024102634954764605
414.31034500000004,,0.012753409720619929,414.32,0.7490000128746033,-0.030008540866365997
414.775862,,0.010835502494886521,414.784,0.7710000276565552,0.018273599465709105
415.241379,,0.007844829873368252,415.246,0.7519999742507935,-0.02278319853607432
415.706897,,0.004259853832777774,415.712,0.7739999890327454,0.025460145467186026
416.172414,,0.00028751964078532733,416.176,0.7570000290870667,-0.011298068004296457
416.63793100000004,,0.0035754418416492476,416.641,0.765999972820282,0.008545272712631067
417.103448,,0.006512690757298734,417.108,0.7630000114440918,0.0021944349258941984
417.568966,,0.007876416622302573,417.573,0.7739999890327454,0.026288342942266965
418.034483,,0.007785763719405638,418.035,0.7739999890327454,0.026357158751243517
418.5,,0.0072594114704441215,418.501,0.7480000257492065,-0.030281402563539655
418.96551700000003,,0.0072901574621328505,418.965,0.7570000290870667,-0.01073105120744772
419.43103399999995,,0.0075748774335227245,419.431,0.7480000257492065,-0.0304588109679986
419.896552,,0.006736891765929388,419.894,0.6290000081062317,-0.28989919325709423
420.362069,,0.004135583470017345,420.364,0.7739999890327454,0.02576637853144696
420.827586,,0.0008496899789943684,420.825,0.8040000200271606,0.09084129339558987
421.293103,,0.00154807447980407,421.295,0.75,-0.027124652326356666
421.758621,,0.0025968021768733246,421.758,0.7720000147819519,0.02046166069383196
422.22413800000004,,0.00279304419511446,422.22,0.75,-0.027827546688602992
422.689655,,0.002382239134484918,422.685,0.7549999952316284,-0.0172970812753263
423.15517200000005,,0.0011670073247770976,423.15,0.7480000257492065,-0.03290311000497233
423.62069,,0.0005671333954388524,423.616,0.7739999890327454,0.02340491410382145
424.086207,,0.0017537875548817258,424.083,0.777999997138977,0.031813089600672986
424.55172400000004,,0.0015061901408985204,424.549,0.7730000019073486,0.020653960394630057
425.017241,,1.844368806982231e-05,425.014,0.7710000276565552,0.01607957073200716
425.482759,,0.001977900474550461,425.479,0.7409999966621399,-0.049442323778747375
425.948276,,0.003782037028041302,425.94,0.7699999809265137,0.013635342669575948
426.413793,,0.0052762427836453825,426.409,0.7609999775886536,-0.006012873941147207
426.87931000000003,,0.006052508796241224,426.872,0.7739999890327454,0.02233364094550546
427.344828,,0.0052708603752107475,427.335,0.7559999823570251,-0.01679444475396704
427.810345,,0.002828604013724806,427.806,0.7519999742507935,-0.02536122483164925
428.275862,,0.0002967064863100782,428.268,0.7739999890327454,0.02277233990128995
428.741379,,0.00042259177877081345,428.734,0.7519999742507935,-0.02490543801927063
429.20689699999997,,0.0005200405573165934,429.197,0.7609999775886536,-0.005004013998461739
429.672414,,0.0009569577968657719,429.663,0.7630000114440918,-0.00032135832724997375
430.137931,,0.0005264233280924156,430.128,0.7599999904632568,-0.0065104446569702
430.603448,,0.002867293523354935,430.593,0.7570000290870667,-0.012688851769152196
431.068966,,0.004082478717008513,431.058,0.7480000257492065,-0.03194029428660099
431.534483,,0.0036091217714335697,431.524,0.777999997138977,0.03376344152259929
432.0,,0.00237446448573873,431.988,0.7720000147819519,0.021013849214988327
432.46551700000003,,0.0013012243496145128,432.454,0.7649999856948853,0.006053531237144254
432.931034,,0.0007459526563520692,432.917,0.8199999928474426,0.12612908933131212
433.396552,,0.001149525463414135,433.379,0.7699999809265137,0.017399071636089322
433.862069,,0.003155355815507963,433.847,0.7699999809265137,0.01754686709766766
434.327586,,0.00655512206873162,434.309,0.7490000128746033,-0.028117688556228426
434.79310300000003,,0.009596983146952115,434.78,0.7409999966621399,-0.045524497469512454
435.258621,,0.010092869933830831,435.242,0.7559999823570251,-0.012888167687533097
435.724138,,0.007406349775537506,435.708,0.7710000276565552,0.01968450772800718
436.189655,,0.003178333731534957,436.172,0.7559999823570251,-0.013162351764038262
436.655172,,0.0002442636054566221,436.638,0.765999972820282,0.008402409355952541
437.12068999999997,,0.000707907316581356,437.102,0.7739999890327454,0.02556248838655752
437.586207,,0.0036174452705036077,437.568,0.7509999871253967,-0.024854471081903317
438.051724,,0.003374414344138838,438.032,0.7689999938011169,0.014023705390664769
438.517241,,0.007593220128167628,438.497,0.7609999775886536,-0.003761764350837542
438.982759,,0.031111331518599974,438.962,0.753000020980835,-0.021554635792628014
439.448276,,0.05804349866363392,439.427,0.7720000147819519,0.019479839576792404
439.913793,,0.07386602523115528,439.891,0.7490000128746033,-0.030973444031766342
440.37931000000003,,0.0708667764457138,440.354,0.7739999890327454,0.0231748164163104
440.844828,,0.0534631282895404,440.824,0.7730000019073486,0.02071533213372536
441.310345,,0.031362041544621855,441.287,0.7730000019073486,0.020480919268119176
441.775862,,0.009997715538950009,441.758,0.7699999809265137,0.013764366510334506
442.241379,,0.010878232013141663,442.22,0.753000020980835,-0.023393961498157295
442.70689699999997,,0.03135353879254676,442.686,0.7739999890327454,0.022298985524634798
443.172414,,0.04745278747071492,443.15,0.824999988079071,0.1334175493227673
443.637931,,0.05406494453018836,443.616,0.7749999761581421,0.024559712109038838
444.103448,,0.050372341231097066,444.08,0.7749999761581421,0.024698200431903752
444.568966,,0.04099026152588214,444.539,0.7680000066757202,0.009644469101153252
445.03448299999997,,0.031808037193577436,445.006,0.7820000052452087,0.0403941841308171
445.5,,0.025480414667132995,445.471,0.7689999938011169,0.012364348435133052
445.965517,,0.02102157205911905,445.939,0.6579999923706055,-0.22914081847401152
446.431034,,0.016749627516356055,446.402,0.753000020980835,-0.02182491061695762
446.896552,,0.012559794711927327,446.865,0.7720000147819519,0.019923807996654146
447.36206899999996,,0.009436063038762767,447.335,0.7870000004768372,0.05295979649866471
447.827586,,0.007780580587642793,447.799,0.75,-0.02730300069022773
448.29310300000003,,0.006807052921326361,448.261,0.7739999890327454,0.025311186148501533
448.758621,,0.005248867252397703,448.726,0.7689999938011169,0.014713861965759075
449.224138,,0.002373604391521641,449.189,0.7549999952316284,-0.015531293461338745
449.689655,,0.0014358271643550775,449.655,0.7739999890327454,0.02607071290977535
450.155172,,0.004892445304043937,450.123,0.7739999890327454,0.026224118512000082
450.62068999999997,,0.0067906490603235545,450.589,0.753000020980835,-0.019433136782211993
451.086207,,0.006964933023915897,451.054,0.75,-0.025937686625837557
451.551724,,0.006220808777190791,451.519,0.7519999742507935,-0.021613269555977577
452.017241,,0.005339681176095169,451.984,0.777999997138977,0.0349361815790821
452.482759,,0.004423743964721426,452.45,0.7720000147819519,0.021710179933757373
452.94827599999996,,0.003382256923077561,452.91,0.7720000147819519,0.021502549848523025
453.413793,,0.002672373703667452,453.379,0.746999979019165,-0.033218879403414024
453.87931,,0.003000980355671799,453.843,0.7710000276565552,0.018773767336211875
454.344828,,0.004393524425672827,454.305,0.753000020980835,-0.020767489837847583
454.810345,,0.006056158752502454,454.769,0.7689999938011169,0.01374511171663157
455.27586199999996,,0.007098443928515287,455.238,0.753000020980835,-0.0214682513566584
455.741379,,0.006993451180937683,455.704,0.7720000147819519,0.019572974636590124
456.206897,,0.00556310984441007,456.168,0.7739999890327454,0.02359063087362669
456.672414,,0.0031821833225676066,456.634,0.7689999938011169,0.012382335011532412
457.137931,,0.0010219390270342341,457.098,0.7739999890327454,0.022994862211980882
457.603448,,0.0003631893616176311,457.564,0.75,-0.029530630954097015
458.06896600000005,,0.0012023508526057339,458.029,0.7480000257492065,-0.03407645594937455
458.53448299999997,,0.0019159277816762999,458.494,0.7739999890327454,0.022434958393344886
459.0,,0.0008801426705146507,458.954,0.7839999794960022,0.04414852280249219
459.465517,,0.001664912723766564,459.42,0.746999979019165,-0.036471513831946335
459.931034,,0.0038389023798826435,459.889,0.765999972820282,0.004975099929583981
460.39655200000004,,0.004127942047358361,460.351,0.7480000257492065,-0.034127889902102165
460.86206899999996,,0.002629890824012343,460.82,0.7739999890327454,0.02268637339751025
461.327586,,0.0003676147342657651,461.283,0.7820000052452087,0.040337382620213004
461.793103,,0.0018577256397978702,461.749,0.7559999823570251,-0.01604015281941512
462.258621,,0.003698707905691489,462.215,0.7739999890327454,0.023479621726252585
462.724138,,0.005103600156985584,462.681,0.75,-0.028477048878836446
463.18965499999996,,0.006337580726687655,463.14,0.7490000128746033,-0.030308986982430987
463.655172,,0.007604285651754134,463.605,0.7739999890327454,0.024508741901816792
464.12069,,0.008435445117224535,464.072,0.7749999761581421,0.0270336746357344
464.58620699999994,,0.008078669525358573,464.538,0.7739999890327454,0.025185736049308943
465.051724,,0.006553776723492153,465.002,0.7720000147819519,0.021133089298911837
465.517241,,0.004633237279414452,465.468,0.7519999742507935,-0.022171539960504874
465.98275900000004,,0.0027772785331343845,465.935,0.7689999938011169,0.015088900660060228
466.448276,,0.0007373585603161115,466.398,0.746999979019165,-0.03267032166932908
466.913793,,0.0018069728278592339,466.865,0.753000020980835,-0.019485277649335525
467.37931,,0.004740380785182232,467.327,0.7860000133514404,0.05246205614379937
467.844828,,0.007608758106309827,467.791,0.7480000257492065,-0.030336748980568224
468.31034500000004,,0.009811925077011294,468.254,0.7910000085830688,0.06327323928536738
468.77586199999996,,0.01068688586944487,468.719,0.7710000276565552,0.019569485203924854
469.241379,,0.009803127222377575,469.19,0.7710000276565552,0.019383928129540155
469.706897,,0.0075389017039085,469.656,0.7490000128746033,-0.028781660996793024
470.172414,,0.005325002017694105,470.12,0.7480000257492065,-0.031238737303557845
470.63793100000004,,0.004803702133638076,470.579,0.7519999742507935,-0.022837505548789154
471.10344799999996,,0.006281253365719548,471.051,0.7820000052452087,0.042184564623355965
471.568966,,0.008168116230532756,471.509,0.7739999890327454,0.024405346480202924
472.034483,,0.008345686395519107,471.977,0.7739999890327454,0.02405414323027079
472.5,,0.006033615810879702,472.443,0.734000027179718,-0.0634340039826376
472.965517,,0.0021389655441097955,472.906,0.8429999947547913,0.1737166862046253
473.43103399999995,,0.0018223545591449025,473.375,0.7720000147819519,0.018742997602338884
473.89655200000004,,0.004651107760930069,473.836,0.7730000019073486,0.02067278427724575
474.362069,,0.005743580512842305,474.305,0.7549999952316284,-0.018744878295355445
474.827586,,0.0052885149951143046,474.769,0.7580000162124634,-0.012358351613624264
475.293103,,0.0041644369733473,475.231,0.7480000257492065,-0.03423761484312909
475.758621,,0.003097491677337488,475.697,0.7870000004768372,0.050696789961264976
476.22413800000004,,0.002020461986637581,476.162,0.7730000019073486,0.02022477066685962
476.689655,,0.0006095778770095657,476.628,0.7480000257492065,-0.034151633808450134
477.155172,,0.0009440007016279667,477.095,0.7480000257492065,-0.034005204154875054
477.62069,,0.0022287715931874432,477.554,0.7480000257492065,-0.033807181357539365
478.086207,,0.0033048554534578045,478.02,0.7680000066757202,0.01000959076844676
478.55172400000004,,0.0043632303048191075,478.487,0.7590000033378601,-0.009315601944245779
479.01724099999996,,0.004697062853196016,478.954,0.75,-0.028610848715761417
479.482759,,0.0027504267105101683,479.419,0.7570000290870667,-0.013027734631148534
479.948276,,0.002191016537050173,479.88,0.7519999742507935,-0.023578959150812723
480.413793,,0.00852337853657025,480.349,0.7699999809265137,0.015978250233314617
480.87931000000003,,0.013257202337246622,480.81,0.7739999890327454,0.02502387367485212
481.344828,,0.014725847979537856,481.28,0.7509999871253967,-0.024774706272835012
481.810345,,0.013945908885961655,481.745,0.7599999904632568,-0.004887352572436022
482.275862,,0.013121840154688171,482.209,0.7329999804496765,-0.06347148062090978
482.74137900000005,,0.013316068534986035,482.675,0.7730000019073486,0.023866413938816847
483.206897,,0.013837189239512111,483.135,0.7490000128746033,-0.028282150273705266
483.672414,,0.013510291444332346,483.601,0.7720000147819519,0.02190893228440258
484.13793100000004,,0.012224970571043423,484.068,0.7760000228881836,0.030646837384685526
484.603448,,0.011164231750981659,484.534,0.7739999890327454,0.026253744155304102
485.068966,,0.011305321206145394,484.999,0.7450000047683716,-0.03702123574290895
485.534483,,0.011749931382732233,485.465,0.75,-0.026278806419191163
486.0,,0.010278603472457595,485.925,0.7689999938011169,0.01491271854698551
486.46551700000003,,0.0060954249497486065,486.395,0.7710000276565552,0.01902238890454505
486.931034,,0.0013806309941499788,486.858,0.7789999842643738,0.03616707981044485
487.396552,,0.0008541373645224418,487.32,0.75,-0.027326309686488248
487.862069,,0.00026268933932911166,487.787,0.75,-0.027658451774379523
488.327586,,0.0004497885821025965,488.249,0.7829999923706055,0.04389552955201657
488.79310300000003,,0.001217164469199064,488.715,0.7689999938011169,0.013055184690381114
489.258621,,0.004721985549647386,489.182,0.8270000219345093,0.13909138519060754
489.724138,,0.007343356027971665,489.647,0.7730000019073486,0.021143327693583867
490.189655,,0.00745828668106825,490.113,0.6520000100135803,-0.2427437009656351
490.655172,,0.006379872716648742,490.579,0.7950000166893005,0.06856846235390719
491.12069,,0.006750894365730741,491.044,0.7720000147819519,0.018270476659074088
491.586207,,0.00940174740596267,491.509,0.7459999918937683,-0.03851070192924865
492.05172400000004,,0.012365921253557505,491.969,0.7519999742507935,-0.02551937220499162
492.517241,,0.013172031303712502,492.435,0.7739999890327454,0.02238881581971106
492.982759,,0.011476277836632765,492.902,0.7760000228881836,0.02678419323442917
493.448276,,0.008937057289871412,493.364,0.7739999890327454,0.022524317918946626
493.913793,,0.0070901971873682116,493.832,0.7689999938011169,0.01178500391061468
494.37931000000003,,0.006158751092089161,494.295,0.75,-0.029404237510669784
494.844828,,0.005684357200988186,494.765,0.75,-0.02915506160246991
495.310345,,0.0055019975267698445,495.227,0.7609999775886536,-0.004904442088990738
495.775862,,0.005896930783846804,495.693,0.765999972820282,0.006302486131238068
496.241379,,0.0070692584889440295,496.157,0.7739999890327454,0.02406456569974254
496.70689699999997,,0.008564641670756283,496.623,0.7689999938011169,0.013513485228744298
497.172414,,0.009422053605148056,497.09,0.7990000247955322,0.07921454901475194
497.637931,,0.009139631591979598,497.549,0.7910000085830688,0.06211659137496059
498.103448,,0.008229587047713195,498.021,0.753000020980835,-0.020361720025212585
498.568966,,0.00735092918219219,498.479,0.75,-0.02661959823758705
499.03448299999997,,0.00620943202019047,498.947,0.7490000128746033,-0.02856182999018892
499.5,,0.004073827620211336,499.409,0.753000020980835,-0.01965993132336093
499.96551700000003,,0.0012530617280413475,499.877,0.7590000033378601,-0.006455475680939184
500.431034,,0.0008815222180956349,500.34,0.5789999961853027,-0.39854161584905046
500.89655200000004,,0.0015757852615912926,500.81,0.7739999890327454,0.026298785639830867
501.362069,,0.0015682557406955944,501.272,0.7490000128746033,-0.028226885065786186
501.827586,,0.0018969676200156086,501.738,0.7739999890327454,0.026121868508907298
502.293103,,0.00258323352586782,502.201,0.7710000276565552,0.019415025227616154
502.758621,,0.0031116400566049513,502.667,0.7490000128746033,-0.02873430435230245
503.224138,,0.003649027810284959,503.132,0.7739999890327454,0.025471420623400107
503.68965499999996,,0.004868830576587142,503.598,0.777999997138977,0.033892973203632916
504.15517200000005,,0.0065681138007788594,504.065,0.7699999809265137,0.016147709401962314
504.62068999999997,,0.007295427287829079,504.531,0.7490000128746033,-0.029933688881122137
505.08620699999994,,0.005908803242451662,504.991,0.7739999890327454,0.02419853320386086
505.55172400000004,,0.003184666581887007,505.457,0.9729999899864197,0.45742611730744376
506.017241,,0.0012165039746346359,505.925,0.7519999742507935,-0.024355197003073807
506.48275899999993,,0.0010660167422203715,506.387,0.753000020980835,-0.022448250902752077
506.948276,,0.0015204158748459437,506.85,0.7699999809265137,0.014348811457749706
507.413793,,0.0006017239319385277,507.32,0.765999972820282,0.005433512346889933
507.87931,,0.002022209645349425,507.78,0.75,-0.02958092386983803
508.344828,,0.004703105586813208,508.25,0.7699999809265137,0.013884351106911797
508.810345,,0.00570769006498674,508.715,0.7490000128746033,-0.03192365883383198
509.27586199999996,,0.004830942904193872,509.175,0.8510000109672546,0.19029605220575752
509.74137900000005,,0.0032578551852345825,509.64,0.7910000085830688,0.05963042543084153
510.20689699999997,,0.002542454672688869,510.107,0.7580000162124634,-0.012158883595264135
510.67241399999995,,0.00364551197087655,510.572,0.7720000147819519,0.01849526571107041
511.13793100000004,,0.006121101656729566,511.039,0.75,-0.029240576867578163
511.603448,,0.008079327793495664,511.504,0.7559999823570251,-0.01593947498083986
512.0689659999999,,0.007633451192495345,511.969,0.7900000214576721,0.05839204292998549
512.534483,,0.004656616711244172,512.435,0.7720000147819519,0.01945502986474669
513.0,,0.0008145727462740477,512.895,0.7820000052452087,0.04153328972291235
513.465517,,0.0020574584031653464,513.365,0.753000020980835,-0.0213518030360764
513.931034,,0.0032336427024250726,513.828,0.7720000147819519,0.020332889156903188
514.396552,,0.002983741029463769,514.291,0.7519999742507935,-0.022963781567745763
514.862069,,0.0019146126500856626,514.761,0.753000020980835,-0.020530874184432217
515.327586,,0.0007371758489808796,515.224,0.7739999890327454,0.02544552549426221
515.793103,,0.00026747080936692636,515.69,0.7730000019073486,0.023457039446474297
516.258621,,0.0010483891474936814,516.15,0.7730000019073486,0.02360775359067625
516.724138,,0.0027487543072623123,516.616,0.6809999942779541,-0.17672231096328397
517.189655,,0.004200040533967392,517.083,0.7730000019073486,0.023769892416042958
517.655172,,0.004423805696190465,517.549,0.7480000257492065,-0.03068872587326578
518.1206900000001,,0.003686840155130665,518.014,0.7519999742507935,-0.02201415523368577
518.5862070000001,,0.0032681032273855362,518.48,0.7730000019073486,0.023652178145676384
519.051724,,0.004078163677656352,518.943,0.7910000085830688,0.06274152068326311
519.517241,,0.00571680627602691,519.406,0.7710000276565552,0.019006277876147806
519.982759,,0.006976672254193565,519.869,0.7480000257492065,-0.03129645336671651
520.448276,,0.007107776312085316,520.339,0.7730000019073486,0.022949755856469918
520.9137929999999,,0.006457387457992107,520.802,0.7739999890327454,0.02488949347720957
521.37931,,0.00587066927181776,521.265,0.7689999938011169,0.013746026713108303
521.844828,,0.005638597170564152,521.73,0.7480000257492065,-0.03226034128459423
522.310345,,0.005387534501078158,522.201,0.8109999895095825,0.10474273558423364
522.7758620000001,,0.005057918829758301,522.659,0.7480000257492065,-0.03275289148966362
523.241379,,0.005401080061692578,523.125,0.7559999823570251,-0.01554805456341563
523.7068969999999,,0.006915665401854021,523.59,0.7710000276565552,0.01692949682081786
524.172414,,0.008597498458266413,524.055,0.7720000147819519,0.01893385174134595
524.637931,,0.008748191251556455,524.52,0.7699999809265137,0.014434932835879703
525.103448,,0.007426647939972645,524.987,0.7680000066757202,0.009972170761199037
525.568966,,0.0071887723680938995,525.453,0.7990000247955322,0.07744362121558898
526.034483,,0.010340079338427446,525.92,0.6060000061988831,-0.3430649614919219
526.5,,0.015737834688838836,526.383,0.753000020980835,-0.022798996824116607
526.9655170000001,,0.019359102616296756,526.851,0.7599999904632568,-0.007508899797740765
527.4310340000001,,0.018187519706791007,527.313,0.7870000004768372,0.05139142838710943
527.8965519999999,,0.012830053687140758,527.776,0.7620000243186951,-0.002962625476869869
528.362069,,0.006195574875120206,528.239,0.7680000066757202,0.010252935342051761
528.827586,,0.0004806378506292388,528.704,0.7760000228881836,0.027853055452425557
529.293103,,0.003960012680400495,529.169,0.7739999890327454,0.023689123745385537
529.7586210000001,,0.007449738310941318,529.634,0.746999979019165,-0.034924464658291784
530.224138,,0.009860034069331674,530.106,0.7590000033378601,-0.008560955286454484
530.689655,,0.01096519234251469,530.564,0.753000020980835,-0.021409791283624326
531.155172,,0.011367235015116705,531.031,0.75,-0.02772564137407816
531.62069,,0.012365683564793669,531.497,0.753000020980835,-0.020978552650609928
532.086207,,0.01454751235812657,531.962,0.7770000100135803,0.03150589887833799
532.5517239999999,,0.01673203265739522,532.428,0.7409999966621399,-0.04674772490201574
533.017241,,0.01687168734740206,532.891,0.7770000100135803,0.03183750001517549
533.482759,,0.01411775716087896,533.354,0.7549999952316284,-0.015966592484448365
533.9482760000001,,0.009709938628377861,533.824,0.765999972820282,0.008094058997341681
534.413793,,0.005948690148531428,534.287,0.7739999890327454,0.025586067971719216
534.87931,,0.0045578633208070846,534.754,0.75,-0.026672801305867678
535.344828,,0.005576111969284468,535.216,0.7509999871253967,-0.024500761083218164
535.810345,,0.00718752495501259,535.682,0.7820000052452087,0.04299623307303382
536.275862,,0.006935579586691938,536.147,0.781000018119812,0.040744443043238356
536.7413789999999,,0.003970651966495471,536.613,0.7480000257492065,-0.031253961610565456
537.206897,,0.00035692633139679497,537.08,0.7480000257492065,-0.03138504832845875
537.672414,,0.00039608689607441647,537.539,0.7490000128746033,-0.029362481649393084
538.137931,,0.00323146078880873,538.006,0.7490000128746033,-0.02953908295750942
538.6034480000001,,0.008718801815788943,538.472,0.843999981880188,0.1772420927653041
539.0689659999999,,0.011464873264662603,538.935,0.7300000190734863,-0.07132147075562718
539.5344829999999,,0.009190559771744019,539.405,0.7739999890327454,0.024337828656227852
540.0,,0.004009274690835258,539.869,0.6359999775886536,-0.27651830290407703
540.465517,,0.0001405370665296561,540.331,0.7699999809265137,0.01522045230430299
540.931034,,0.0014638551832582532,540.799,0.7699999809265137,0.015030340758185804
541.396552,,0.001205034098370562,541.261,0.7739999890327454,0.02357276679911833
541.862069,,0.0013003356564898982,541.726,0.7490000128746033,-0.031043322099295126
542.327586,,0.0021622167558507177,542.189,0.7739999890327454,0.023298862324475027
542.7931030000001,,0.002838390186654738,542.655,0.7559999823570251,-0.016011485378883764
543.258621,,0.002692684166038534,543.12,0.7490000128746033,-0.03132511647676683
543.7241379999999,,0.002444909598552665,543.586,0.7720000147819519,0.018753612732620047
544.189655,,0.003408593571625963,544.051,0.7730000019073486,0.020936444989318667
544.655172,,0.005709064435065173,544.517,0.7599999904632568,-0.007347393469521148
545.12069,,0.007592853930669887,544.984,0.777999997138977,0.031940034457304256
545.5862070000001,,0.007122267979042996,545.449,0.7450000047683716,-0.039852830447176864
546.051724,,0.0046284278842229085,545.91,0.7699999809265137,0.014743340479295219
546.517241,,0.00263809582283565,546.379,0.7720000147819519,0.019254837765393728
546.982759,,0.002848527565079828,546.843,0.753000020980835,-0.021965359309683748
547.448276,,0.004054645901459429,547.305,0.753000020980835,-0.02177676686709002
547.9137929999999,,0.0040324307738832405,547.769,0.7480000257492065,-0.03247261759689944
548.3793099999999,,0.0027041933325963018,548.239,0.7680000066757202,0.011301266503072517
548.844828,,0.0019234674845589783,548.705,0.75,-0.027715104308135147
549.310345,,0.0022950023841707755,549.169,0.6700000166893005,-0.20181649388310108
549.775862,,0.0019712418471711044,549.634,0.753000020980835,-0.020813767522831688
550.241379,,0.0006015260394071655,550.098,0.7450000047683716,-0.03808692660912981
550.706897,,0.004034492485481718,550.564,0.7739999890327454,0.025229022478775637
551.172414,,0.0055032657676329115,551.024,0.7480000257492065,-0.03130446119711486
551.637931,,0.004405254752382503,551.491,0.7739999890327454,0.02542512508360048
552.103448,,0.0030112174382462054,551.957,0.9120000004768372,0.32613799493936185
552.568966,,0.0032788941866445974,552.423,0.7730000019073486,0.023340987544403016
553.034483,,0.004301786911370407,552.884,0.7749999761581421,0.027705749150375516
553.5,,0.0036655433371841524,553.353,0.7450000047683716,-0.03767747355532611
553.965517,,0.0005984920659886026,553.817,0.7699999809265137,0.0167332210555433
554.4310340000001,,0.0030855598936162694,554.279,0.746999979019165,-0.03346181971651248
554.896552,,0.004863651519654882,554.745,0.7720000147819519,0.020889786653360103
555.3620689999999,,0.003524460935236667,555.209,0.7319999933242798,-0.06639703447573601
555.827586,,0.0004998312555001558,555.674,0.7720000147819519,0.020585279513251908
556.293103,,0.005713889767140794,556.139,0.7710000276565552,0.01822495282374764
556.758621,,0.009982021302782149,556.605,0.7639999985694885,0.0027799174702118116
557.224138,,0.011255244469591683,557.069,0.7689999938011169,0.013470904834749184
557.689655,,0.008997291712773345,557.535,0.753000020980835,-0.02159238236284014
558.155172,,0.00494816176081546,558.002,0.7519999742507935,-0.023973827705191474
558.6206900000001,,0.0018191032300225725,558.468,0.5540000200271606,-0.45554520595620185
559.0862070000001,,0.0009991721946749103,558.936,0.7599999904632568,-0.006936593703443892
559.5517239999999,,0.00181514012829854,559.398,0.7730000019073486,0.02120874663528185
560.017241,,0.0029483165447422095,559.861,0.7490000128746033,-0.031230517047887197
560.482759,,0.0039423402503387574,560.324,0.7789999842643738,0.03400745493365129
560.948276,,0.005073627685598332,560.795,0.7739999890327454,0.023027738162313058
561.413793,,0.0063468513440782985,561.257,0.746999979019165,-0.03584433233467668
561.87931,,0.007163928395092533,561.723,0.753000020980835,-0.02278185382901742
562.344828,,0.006751676046052382,562.187,0.7490000128746033,-0.03146639456353575
562.8103450000001,,0.004705595462126883,562.653,0.7749999761581421,0.025248296715468594
563.275862,,0.0015481438363889695,563.118,0.7730000019073486,0.02100022708823347
563.7413789999999,,0.0011410132279077295,563.583,0.7519999742507935,-0.02460560096855
564.206897,,0.0019111312592227643,564.051,0.7699999809265137,0.01478841004939539
564.672414,,0.0011382237104175523,564.509,0.7720000147819519,0.019352054075381233
565.137931,,0.0009135965565646765,564.981,0.7480000257492065,-0.032707034589622985
565.603448,,0.002877527251150231,565.439,0.7519999742507935,-0.02374916159819485
566.068966,,0.006672325081027555,565.909,0.7710000276565552,0.017896621207676777
566.534483,,0.010717147095665625,566.372,0.7480000257492065,-0.03196005821176415
567.0,,0.013823144397755614,566.84,0.753000020980835,-0.02082156437291203
567.465517,,0.01573329392559052,567.303,0.7720000147819519,0.02080371701820404
567.931034,,0.016813977102694874,567.765,0.75,-0.026916636828126853
568.396552,,0.017794943652195094,568.235,0.7730000019073486,0.023374649797809347
568.862069,,0.01916276474925794,568.701,0.7519999742507935,-0.022228104459043326
569.327586,,0.019943861586684077,569.165,0.7310000061988831,-0.0678698328363057
569.793103,,0.017672981926340665,569.63,0.7519999742507935,-0.02205215247796217
570.2586210000001,,0.011284497140028433,570.095,0.7760000228881836,0.030256231894653932
570.724138,,0.004727586892152104,570.554,0.7739999890327454,0.025874184925230727
571.189655,,0.006122493854128937,571.02,0.7519999742507935,-0.022126100674666305
571.655172,,0.02085406008952189,571.486,0.7789999842643738,0.03658327713649398
572.12069,,0.044729779860042486,571.958,0.7720000147819519,0.02117766678606259
572.586207,,0.06537425972601578,572.416,0.7699999809265137,0.0166284277038016
573.051724,,0.07164214899574933,572.884,0.7720000147819519,0.02076217727101102
573.517241,,0.06143199752259673,573.346,0.7540000081062317,-0.018703050722843253
573.982759,,0.04045153770075822,573.81,0.7670000195503235,0.00935059540186188
574.4482760000001,,0.015442785119310678,574.279,0.6629999876022339,-0.21751120673732732
574.913793,,0.00967610343648926,574.745,0.7519999742507935,-0.02390077051062627
575.37931,,0.03248744040390063,575.209,0.777999997138977,0.03245832170357608
575.844828,,0.050124301557753236,575.674,0.7720000147819519,0.019115421254013925
576.310345,,0.05997943736425872,576.139,0.7720000147819519,0.01886788570958259
576.775862,,0.06149025264463654,576.605,0.7480000257492065,-0.03363643185155704
577.241379,,0.0565796320385882,577.065,0.777999997138977,0.03154365240892802
577.706897,,0.04870154628390383,577.531,0.7590000033378601,-0.009986307150132587
578.172414,,0.04132129506017341,577.995,0.765999972820282,0.005176897121340593
578.6379310000001,,0.03622710810549992,578.46,0.7509999871253967,-0.027538820398084564
579.1034480000001,,0.03261095318989946,578.928,0.7570000290870667,-0.014450135908192743
579.5689659999999,,0.028091130316913966,579.391,0.7699999809265137,0.013941985221113423
580.034483,,0.021134329604713068,579.854,0.7490000128746033,-0.03168791157281774
580.5,,0.01263745375726109,580.324,0.7710000276565552,0.016412813158396655
580.965517,,0.0051468132837883445,580.784,0.7749999761581421,0.02534242315669696
581.431034,,0.0006337230457118324,581.253,0.7490000128746033,-0.031048423663981577
581.896552,,0.0008365763419215827,581.719,0.7570000290870667,-0.013334395798472693
582.362069,,0.0004958397713747361,582.183,0.7480000257492065,-0.03263521787621857
582.827586,,0.0004265484632063237,582.648,0.7739999890327454,0.024330113224915594
583.2931030000001,,0.0011977093890096276,583.113,0.7739999890327454,0.024655405138616412
583.758621,,0.0013674031524896894,583.579,0.7739999890327454,0.024976116015128346
584.2241379999999,,0.0006711233498257951,584.044,0.7649999856948853,0.005674384092315364
584.689655,,0.0007428935467814412,584.509,0.7409999966621399,-0.04633197890983336
585.155172,,0.0020728739883121667,584.969,0.765999972820282,0.008380967084201963
585.6206900000001,,0.0020824875244630854,585.434,0.7239999771118164,-0.08291819919133117
586.0862070000001,,0.00012224426212282462,585.902,0.7390000224113464,-0.05008448051587068
586.551724,,0.002737330982126363,586.364,0.7509999871253967,-0.02384230937242769
587.017241,,0.004043356046950148,586.832,0.75,-0.025980724957110037
587.482759,,0.0020982823921377306,587.294,0.7490000128746033,-0.02817900170351691
587.948276,,0.0021138818584168382,587.762,0.7609999775886536,-0.002114594819965827
588.4137929999999,,0.005481655966313063,588.224,0.7710000276565552,0.019535529947124042
588.87931,,0.005656361370346353,588.69,0.7590000033378601,-0.006797973233439957
589.344828,,0.003526017573664698,589.157,0.7730000019073486,0.023465516385382162
589.810345,,0.0024437314007621975,589.623,0.753000020980835,-0.02038630157767609
590.2758620000001,,0.004573389553840143,590.088,0.7509999871253967,-0.025056311566388663
590.741379,,0.00826170695406793,590.553,0.7699999809265137,0.01600065888905508
591.2068969999999,,0.009680010298896162,591.017,0.75,-0.027924064376407258
591.672414,,0.007132179315972634,591.482,0.7720000147819519,0.019650579516787565
592.137931,,0.0032076261251644676,591.954,0.7639999985694885,0.0018728203172541534
592.603448,,0.0023593351137191202,592.412,0.765999972820282,0.005899432663971348
593.068966,,0.006469886581012219,592.88,0.7599999904632568,-0.007475188776024054
593.534483,,0.012927647161844967,593.343,0.7480000257492065,-0.03388481683621642
594.0,,0.016992868972083783,593.806,0.7680000066757202,0.009467247996820706
594.4655170000001,,0.01592661401584902,594.275,0.8489999771118164,0.18577105808314986
594.9310340000001,,0.010870546452394513,594.734,0.7480000257492065,-0.03437797808101768
595.3965519999999,,0.005110562552245522,595.204,0.7519999742507935,-0.025706527204674503
595.862069,,0.0010385328885444143,595.67,0.7639999985694885,0.00045699577896770325
596.327586,,0.0011222366668096925,596.135,0.7739999890327454,0.02232640137595798
596.793103,,0.0023054998456591806,596.594,0.7639999985694885,0.0006844560242718623
597.2586210000001,,0.0032044145576714004,597.059,0.765999972820282,0.0052437127075488366
597.724138,,0.003929120570026096,597.524,0.7490000128746033,-0.03153988521429308
598.189655,,0.004316964728900468,597.991,0.7490000128746033,-0.031243093783335445
598.655172,,0.0041830298858347385,598.457,0.7739999890327454,0.023554830141085312
599.12069,,0.0035431562328341465,598.92,0.7570000290870667,-0.0131245340190685
599.586207,,0.002687629605226189,599.39,0.7689999938011169,0.013392087902840516
600.0517239999999,,0.001754273367360368,599.854,0.796999990940094,0.07477203093451046
600.517241,,0.0003523896984152572,600.316,0.7649999856948853,0.005427188669728072
600.982759,,0.0018902119717947958,600.78,0.7710000276565552,0.018853427880282915
601.448276,,0.004434854493009406,601.25,0.7480000257492065,-0.030930627652033336
601.913793,,0.0060394701952848845,601.716,0.7649999856948853,0.006391338715417274
602.37931,,0.006020338886886207,602.175,0.7570000290870667,-0.010801466471889091
602.844828,,0.004941366858701809,602.641,0.7480000257492065,-0.030229382554631545
603.310345,,0.003890488776346824,603.105,0.7590000033378601,-0.006146811668653435
603.775862,,0.0033293124687214792,603.571,0.7710000276565552,0.02004857942428663
604.2413789999999,,0.002843873719624474,604.035,0.7739999890327454,0.026568805733786966
604.706897,,0.0019083894070397245,604.501,0.7739999890327454,0.026486364377921814
605.172414,,0.0006286955187378601,604.965,0.7609999775886536,-0.0019834893233754655
605.637931,,0.0004188813820095355,605.431,0.753000020980835,-0.019621553201864546
606.1034480000001,,0.0008847637549555072,605.894,0.7739999890327454,0.02586522119732439
606.5689659999999,,0.0008534973626024395,606.365,0.7739999890327454,0.025552877348487046
607.0344829999999,,0.00045121600977101846,606.828,0.7480000257492065,-0.03144279571679721
607.5,,0.00036799927852914006,607.29,0.7620000243186951,-0.0013214809289194345
607.965517,,0.00161152562245158,607.761,0.7860000133514404,0.05056919108783522
608.431034,,0.0030571793772636875,608.224,0.7720000147819519,0.019666894388687853
608.896552,,0.004243105673269303,608.689,0.7540000081062317,-0.019942672310400655
609.362069,,0.004536821993301909,609.154,0.7490000128746033,-0.031211528609026446
609.827586,,0.003477828416358513,609.62,0.7689999938011169,0.012015365362314116
610.293103,,0.0014108748879916057,610.08,0.7480000257492065,-0.034041732985171776
610.758621,,0.000361665867758695,610.546,0.7919999957084656,0.06156370494203295
611.2241379999999,,0.0005769402450222188,611.009,0.753000020980835,-0.023599545449201516
611.689655,,0.0006467672901234596,611.475,0.7680000066757202,0.008949237168438859
612.155172,,0.0017946652431476463,611.943,0.7490000128746033,-0.032507065170585714
612.62069,,0.0015076559143841007,612.406,0.7599999904632568,-0.008532871631160325
613.0862070000001,,0.00011883888539596018,612.869,0.7680000066757202,0.008976986452637406
613.551724,,0.0019739607338483487,613.339,0.7549999952316284,-0.019194973066126168
614.017241,,0.0032303168981264543,613.802,0.7680000066757202,0.009343739323892281
614.4827590000001,,0.0038025948770937404,614.265,0.7620000243186951,-0.003452056738407875
614.948276,,0.003986949117643244,614.73,0.7990000247955322,0.077486632849052
615.4137929999999,,0.004315239998731627,615.2,0.7519999742507935,-0.024537918690123752
615.8793099999999,,0.005451720265329485,615.659,0.75,-0.0284917940192497
616.344828,,0.00745775063748337,616.125,0.765999972820282,0.006788503768990359
616.810345,,0.009236526081581674,616.591,0.75,-0.027641661328008514
617.275862,,0.009351697911474213,617.054,0.7720000147819519,0.020710189395575503
617.741379,,0.007491943048260763,617.52,0.753000020980835,-0.020281874223704643
618.206897,,0.004843239176298679,617.984,0.75,-0.026447560115502766
618.672414,,0.0030756087842042615,618.45,0.7570000290870667,-0.010870355345115833
619.137931,,0.003073901303675574,618.917,0.753000020980835,-0.01931210986375003
619.603448,,0.004394774651864748,619.379,0.7730000019073486,0.02447173009745752
620.068966,,0.0057372379990672925,619.85,0.6549999713897705,-0.23246829932362137
620.534483,,0.006004214511919479,620.312,0.7699999809265137,0.018140273585061626
621.0,,0.004966769638627196,620.78,0.7699999809265137,0.018127269078883658
621.465517,,0.003094834723042578,621.243,0.7490000128746033,-0.0277123187940981
621.9310340000001,,0.0011984934265673517,621.708,0.7749999761581421,0.028771508734948707
622.396552,,0.00021110537589735052,622.172,0.7559999823570251,-0.01285194226800054
622.862069,,0.0005615494497342807,622.638,0.7760000228881836,0.030430622339874706
623.327586,,0.0013623640581859123,623.103,0.7680000066757202,0.012658234062910853
623.793103,,0.0007968918304584198,623.569,0.753000020980835,-0.020407404673836567
624.258621,,0.0021019916484776866,624.036,0.7739999890327454,0.024926536712354376
624.724138,,0.006244175506726259,624.494,0.7699999809265137,0.015775431693822395
625.189655,,0.009385998598644855,624.961,0.7699999809265137,0.015333316288231348
625.655172,,0.010090941169523792,625.427,0.765999972820282,0.006184015559049492
626.1206900000001,,0.008661527895601373,625.895,0.7549999952316284,-0.01819566586126328
626.5862070000001,,0.006553914433343298,626.357,0.7570000290870667,-0.014220758493889365
627.0517239999999,,0.005293788622930877,626.821,0.7580000162124634,-0.012381012502361672
627.5172409999999,,0.005682201543851466,627.29,0.7680000066757202,0.00912077323652608
627.982759,,0.007468044078579839,627.749,0.7599999904632568,-0.008529941627816779
628.448276,,0.009631094117835312,628.215,0.7440000176429749,-0.04354005203014168
628.913793,,0.011114638836824228,628.68,0.7720000147819519,0.017384687273446907
629.37931,,0.01127187542946444,629.147,0.7519999742507935,-0.026188415906205464
629.844828,,0.009705662607264215,629.613,0.7739999890327454,0.021819838629987202
630.3103450000001,,0.0062343706397498195,630.08,0.7879999876022339,0.052475585034305675
630.7758620000001,,0.001505056984492551,630.539,0.7720000147819519,0.017844981744819924
631.2413789999999,,0.002670935059674733,631.01,0.7710000276565552,0.015960252207355898
631.706897,,0.004409101676875967,631.469,0.765999972820282,0.005417925216934466
632.172414,,0.0035028579960501584,631.939,0.7739999890327454,0.02324492407160154
632.637931,,0.0016916167602802493,632.402,0.7490000128746033,-0.030788836640497627
633.103448,,0.0008895809203268287,632.865,0.7739999890327454,0.02413117636750664
633.568966,,0.0014097427387357972,633.335,0.753000020980835,-0.021158669882348893
634.034483,,0.0021645208246698915,633.795,0.7710000276565552,0.018512758106639705
634.5,,0.0022884339845236964,634.265,0.7710000276565552,0.0189490089501024
634.9655170000001,,0.0020413764187430503,634.731,0.7699999809265137,0.017174111073671134
635.431034,,0.0020008941500723213,635.193,0.7580000162124634,-0.008610738162061243
635.8965519999999,,0.0018605347995463669,635.659,0.7720000147819519,0.022192990030673907
636.362069,,0.0007613750445411651,636.125,0.753000020980835,-0.01896434623570983
636.827586,,0.0011036468564380524,636.59,0.7490000128746033,-0.02751558551957195
637.293103,,0.0020737336857316654,637.05,0.7739999890327454,0.027035099055721407
637.7586210000001,,0.0008012114019330907,637.516,0.7549999952316284,-0.014355926906255569
638.224138,,0.002103078903213673,637.984,0.7549999952316284,-0.01443448299801604
638.689655,,0.004774840935717417,638.45,0.7850000262260437,0.05076693743585677
639.155172,,0.005993088859834958,638.913,0.753000020980835,-0.019182527915930177
639.62069,,0.005958897259065372,639.375,0.765999972820282,0.00883892981206565
640.086207,,0.005721858906298636,639.843,0.7689999938011169,0.015014621021610143
640.551724,,0.006226257279921123,640.305,0.7730000019073486,0.023320596588312266
641.017241,,0.007460830226164744,640.773,0.7680000066757202,0.011982644043568583
641.482759,,0.008338757145237755,641.235,0.7480000257492065,-0.03205831005695285
641.9482760000001,,0.007881614535436532,641.701,0.7620000243186951,-0.0020350829243519506
642.413793,,0.006488083513238904,642.168,0.7480000257492065,-0.03300959267845233
642.87931,,0.005361392204199508,642.634,0.7699999809265137,0.014466095088715844
643.344828,,0.004744755446522914,643.099,0.7720000147819519,0.018402335395738097
643.810345,,0.0036421082592031045,643.564,0.753000020980835,-0.02336673383958035
644.275862,,0.001549879209493602,644.024,0.7739999890327454,0.022067719438896023
644.7413789999999,,0.0003551658893545466,644.49,0.777999997138977,0.03053319891585714
645.206897,,0.00036489198028299876,644.955,0.7720000147819519,0.0172884178512764
645.672414,,0.001708849487984957,645.42,0.746999979019165,-0.03726971364245994
646.1379310000001,,0.0040678442466909204,645.891,0.7519999742507935,-0.026385082098727034
646.6034480000001,,0.004558726772524916,646.354,0.7720000147819519,0.017263284763489147
647.0689659999999,,0.0027208642311433466,646.814,0.7480000257492065,-0.034866618051040174
647.534483,,0.00023925402156610998,647.283,0.7720000147819519,0.017656461483945035
648.0,,0.0006957874051605227,647.75,0.7039999961853027,-0.13018594313948487
648.465517,,0.00042934638371566725,648.215,0.7559999823570251,-0.016530188883331444
648.931034,,0.0019673959324788704,648.68,0.7720000147819519,0.01874480637845449
649.396552,,0.0018917061800522608,649.14,0.7480000257492065,-0.033086820783437644
649.862069,,0.00012402863415103842,649.606,0.7739999890327454,0.024039703331341783
650.327586,,0.0026767947259562956,650.073,0.8199999928474426,0.12475213824318583
650.7931030000001,,0.004471835618630185,650.539,0.7730000019073486,0.02284952635286754
651.258621,,0.0056191727325660395,651.006,0.7760000228881836,0.02986290169946989
651.7241379999999,,0.006988372380092115,651.464,0.828000009059906,0.1435990990169095
652.189655,,0.008767291966021717,651.932,0.7730000019073486,0.024176075641533602
652.655172,,0.01004670353260371,652.394,0.7739999890327454,0.026699912088262463
653.12069,,0.009734503780486153,652.865,0.7739999890327454,0.026975626833638727
653.5862070000001,,0.007616757746501922,653.327,0.7450000047683716,-0.03600846183610086
654.051724,,0.0045077041704585045,653.791,0.7720000147819519,0.022925583196547278
654.517241,,0.0016266686817114386,654.261,0.7730000019073486,0.02512496879854056
654.982759,,8.190921006680793e-05,654.719,0.7739999890327454,0.027233913565513274
655.448276,,0.0003995189540852987,655.191,0.7739999890327454,0.027075337883539274
655.9137929999999,,7.416933631604756e-05,655.649,0.7699999809265137,0.018117405496351883
656.37931,,0.0005756535234247714,656.114,0.7689999938011169,0.015617391576225792
656.844828,,0.0012253956212138965,656.58,0.7480000257492065,-0.03052486685298038
657.310345,,0.0029962074425107297,657.046,0.7739999890327454,0.025671104636272247
657.7758620000001,,0.0061236302125751456,657.512,0.753000020980835,-0.020573863474208337
658.241379,,0.008903753261977404,657.98,0.7559999823570251,-0.014561367268476812
658.7068969999999,,0.008862874794194365,658.445,0.7599999904632568,-0.006384386003802733
659.172414,,0.005317726040511658,658.906,0.7480000257492065,-0.03306353630446834
659.637931,,0.00041497952946104483,659.375,0.7739999890327454,0.02306469345886618
660.103448,,0.0025878062610389793,659.836,0.7829999923706055,0.042191866956045494
660.568966,,0.0021242216203511658,660.305,0.7149999737739563,-0.10638643934698622
661.034483,,0.0003558515544823524,660.769,0.7720000147819519,0.017429458482569552
661.5,,0.0016455113968705073,661.231,0.753000020980835,-0.02425677443472889
661.965517,,0.0004803261641860696,661.697,0.7360000014305115,-0.061500790266158456
662.4310340000001,,0.005387012124209791,662.165,0.7580000162124634,-0.013685897266140275
662.8965519999999,,0.01008091431869374,662.63,0.7699999809265137,0.012439012446863247
663.362069,,0.011551353205291475,663.095,0.7739999890327454,0.02123380630806991
663.827586,,0.009048007886511722,663.561,0.7480000257492065,-0.03523358132594878
664.293103,,0.004512646663902235,664.021,0.7730000019073486,0.01950213656646284
664.7586210000001,,0.0008423612023901408,664.486,0.746999979019165,-0.036788737355026926
665.224138,,0.0003406719376834392,664.959,0.7519999742507935,-0.025467590969501575
665.689655,,0.0007163622055895926,665.417,0.7480000257492065,-0.03369329629219987
666.155172,,0.002993844099814339,665.88,0.7739999890327454,0.023487001538536546
666.62069,,0.005620403136368185,666.35,0.7730000019073486,0.021875334055579874
667.086207,,0.007687608770677781,666.813,0.75,-0.027652439594325087
667.5517239999999,,0.008092302713183426,667.275,0.8259999752044678,0.1385028927299944
668.017241,,0.0064311188395682955,667.741,0.7739999890327454,0.02577156747887249
668.482759,,0.003991986006723228,668.204,0.7860000133514404,0.052436304047396194
668.948276,,0.003078838278616626,668.67,0.7730000019073486,0.02457983253938363
669.413793,,0.004670038028054099,669.136,0.7580000162124634,-0.007704415804264198
669.87931,,0.006816839214580752,669.602,0.7730000019073486,0.025286647993243386
670.3448279999999,,0.00610096724827192,670.068,0.7490000128746033,-0.026784361683886655
670.810345,,0.0012331728863358197,670.535,0.7699999809265137,0.01908105295391296
