Trial: ,2
Threshold: ,0.0
Maximum EMG: ,0.04109248132642174
Success: ,True

EMG Time,Raw EMG,Filtered EMG,Force Time,Raw Force (V),Filtered Force (N)
0.0,samples,3.154753632485219e-05,0.471,0.7839999794960022,0.003012913353893346
0.46551699999999996,time,3.218236813615906e-05,0.929,0.7879999876022339,0.011194881942140626
0.9310339999999999,value,3.27299364111977e-05,1.394,0.7609999775886536,-0.04786279389088634
1.396552,,3.318452140546569e-05,1.859,0.7699999809265137,-0.028185668613426775
1.862069,,3.3540487733559155e-05,2.327,0.7710000276565552,-0.025637833530950553
2.327586,,3.3792308092192374e-05,2.792,0.7950000166893005,0.02730690033276025
2.793103,,3.393458762197345e-05,3.257,0.7860000133514404,0.008624136824311521
3.258621,,3.3962088848651267e-05,3.723,0.765999972820282,-0.033785064497119675
3.724138,,3.386975713992085e-05,4.186,0.7870000004768372,0.0133328766250401
4.189654999999999,,3.365274660927382e-05,4.655,1.0479999780654907,0.5834924034164861
4.655172,,3.3306446393825607e-05,5.119,0.7609999775886536,-0.04012386061247117
5.12069,,3.2826507228559895e-05,5.582,0.7839999794960022,0.011709170685823913
5.586207,,3.2208868235021355e-05,6.045,0.6389999985694885,-0.30246244621591317
6.051723999999999,,3.144978383818055e-05,6.515,0.7739999890327454,-0.006658756242280552
6.517241,,3.0545850721008544e-05,6.981,0.7950000166893005,0.040684795171302454
6.982759,,2.949403472225424e-05,7.443,0.7910000085830688,0.03342372061496908
7.448276,,2.8291697579034827e-05,7.909,0.7699999809265137,-0.011055853770166772
7.913793000000001,,2.6936623412149934e-05,8.374,0.7850000262260437,0.022676808008096804
8.379309999999998,,2.5427044848534218e-05,8.84,0.765999972820282,-0.017914816386499485
8.844828000000001,,2.3761668671992646e-05,9.305,0.765999972820282,-0.017385256415813392
9.310345,,2.1939700890338563e-05,9.771,0.7900000214576721,0.03514432015472404
9.775862,,1.9960871104298604e-05,10.231,0.7889999747276306,0.03291489594706995
10.241379,,1.7825456061081928e-05,10.697,0.7850000262260437,0.023860545996520335
10.706897,,1.5534302273355354e-05,11.16,0.8109999895095825,0.07988828285094535
11.172414,,1.3088847582541813e-05,11.63,0.7620000243186951,-0.02773983031034903
11.637931,,1.049114154388805e-05,12.09,0.7850000262260437,0.021263995207720907
12.103447999999998,,7.743864509649127e-06,12.56,0.7929999828338623,0.03739161478154982
12.568966000000001,,4.850345286032043e-06,13.023,0.765999972820282,-0.022889574661293908
13.034483,,1.8145772392482201e-06,13.486,0.7870000004768372,0.021292316267274077
13.5,,1.3587672738365407e-06,13.951,0.765999972820282,-0.02609385190815328
13.965517,,4.664324274377424e-06,14.415,0.7860000133514404,0.015829376236127856
14.431034,,8.096027452418556e-06,14.881,0.7710000276565552,-0.01846592702443922
14.896552,,1.164709950128185e-05,15.345,0.7630000114440918,-0.03742855597551339
15.362069,,1.531004561476728e-05,15.811,0.7879999876022339,0.015631907841158765
15.827586000000002,,1.907664926390436e-05,16.275,0.7919999957084656,0.023110921090257933
16.293103,,2.293797036691752e-05,16.74,0.7820000052452087,0.00029565512310851527
16.758621,,2.6884345962453146e-05,17.205,0.7879999876022339,0.012575208291969668
17.224138,,3.090539349195271e-05,17.671,0.7739999890327454,-0.018459291189957393
17.689655,,3.4990016792336e-05,18.138,0.8080000281333923,0.05535531868474994
18.155172,,3.912641489487363e-05,18.601,0.7910000085830688,0.018339702842575564
18.62069,,4.330209372027312e-05,19.064,0.7699999809265137,-0.027111930528674517
19.086207,,4.750388075357395e-05,19.534,0.7250000238418579,-0.1245847141563697
19.551724,,5.171794277544274e-05,20.001,0.765999972820282,-0.0344471585992665
20.017241000000002,,5.5929806718879774e-05,20.463,0.8500000238418579,0.14959602265014213
20.482758999999998,,6.0124383712194724e-05,20.929,0.7860000133514404,0.011393136261092774
20.948276,,6.42859963603865e-05,21.394,0.9190000295639038,0.3025422509656708
21.413793000000002,,6.839840930777649e-05,21.86,0.7670000195503235,-0.027107196271595337
21.87931,,7.244486311490507e-05,22.324,0.765999972820282,-0.027713253620312964
22.344828,,7.640811147231873e-05,22.789,0.7870000004768372,0.01962835845082257
22.810344999999998,,8.027046176296314e-05,23.249,0.7990000247955322,0.04733235473483337
23.275862,,8.401381897347172e-05,23.714,0.8069999814033508,0.06624599067789819
23.741379,,8.761973294271832e-05,24.182,0.7910000085830688,0.03275245014694025
24.206897,,9.106944892360877e-05,24.645,0.7820000052452087,0.014348458903383815
24.672414,,9.434396142124032e-05,25.113,0.7609999775886536,-0.03039686363156896
25.137931,,9.742407125728907e-05,25.574,0.7680000066757202,-0.014367584150761538
25.603448,,0.00010029044579682027,26.045,0.765999972820282,-0.01819649930734093
26.068966,,0.00010292368225968866,26.508,0.7860000133514404,0.02564059274393001
26.534483,,0.00010530437402433765,26.974,0.7730000019073486,-0.0026884092196228703
27.0,,0.00010741317981715514,27.437,0.7850000262260437,0.023180064729112538
27.465517,,0.00010923089566563996,27.902,0.765999972820282,-0.01874903252653993
27.931034,,0.00011073852947851634,28.367,0.7699999809265137,-0.010811273979074155
28.396552,,0.00011191737810065188,28.833,0.7950000166893005,0.04266092913095248
28.862069,,0.00011274910667523208,29.297,0.7870000004768372,0.024052327442365417
29.327586,,0.00011321583013017247,29.763,0.765999972820282,-0.02302770463666372
29.793103000000002,,0.00011330019659025815,30.227,0.7599999904632568,-0.03753710021656022
30.258620999999998,,0.00011298547250104583,30.693,0.7839999794960022,0.013247454308689748
30.724138,,0.00011225562923520065,31.161,0.7990000247955322,0.04440555628188762
31.189655000000002,,0.000111095430936729,31.623,0.7870000004768372,0.01676801323856213
31.655172000000004,,0.00010949052334356748,32.086,0.7910000085830688,0.02406173587109662
32.12069,,0.00010742752331426135,32.549,0.777999997138977,-0.005566726752869658
32.586207,,0.00010489410877007585,33.016,0.7839999794960022,0.00635242899153808
33.051724,,0.00010187910874989785,33.486,0.7990000247955322,0.038066993203456335
33.517241000000006,,9.837259326176889e-05,33.944,0.7960000038146973,0.0307818035073864
33.982759,,9.436596260191161e-05,34.409,0.7870000004768372,0.010662181279484142
34.448276,,8.985203579973998e-05,34.875,0.7680000066757202,-0.03099317560805981
34.913793,,8.482513783564992e-05,35.342,0.7609999775886536,-0.04624865409971125
35.37931,,7.92811852674394e-05,35.807,0.7630000114440918,-0.04164184259067902
35.844828,,7.321776989107842e-05,36.271,0.7739999890327454,-0.017181720887098004
36.310345,,6.663424005230945e-05,36.737,0.7820000052452087,0.0009725618498366327
36.775862,,5.953177921727911e-05,37.202,0.7749999761581421,-0.013345560545213686
37.241378999999995,,5.191348140315239e-05,37.668,0.7749999761581421,-0.01223482060553518
37.706897000000005,,4.378442306351115e-05,38.13,0.7839999794960022,0.008627806393697436
38.172414,,3.515173101835764e-05,38.6,0.7950000166893005,0.03395399193206251
38.637931,,2.6024646014799394e-05,39.061,0.8240000009536743,0.09856166634142284
39.103448,,1.6414581502049352e-05,39.524,0.7850000262260437,0.015044564611326841
39.568965999999996,,6.33517720329904e-06,39.989,0.7710000276565552,-0.014027980496725965
40.034483,,4.197652932624834e-06,40.46,0.765999972820282,-0.023558647462212194
40.5,,1.5165678815069731e-05,40.925,0.7850000262260437,0.0190919096542832
40.965517,,2.6548318742696862e-05,41.389,0.7919999957084656,0.035455423852171354
41.431034,,3.8322610788831896e-05,41.855,0.7860000133514404,0.023321306295092832
41.896552,,5.046319144127584e-05,42.32,0.7590000033378601,-0.034767710002762686
42.362069000000005,,6.294228188849804e-05,42.779,0.7789999842643738,0.009314754640740922
42.827586000000004,,7.572968233406884e-05,43.245,0.7599999904632568,-0.03180934050261815
43.293103,,8.879277470934953e-05,43.711,0.7720000147819519,-0.005641555343574808
43.758621,,0.0001020965341408091,44.179,0.9330000281333923,0.344902336594545
44.224138,,0.00011560354951285229,44.641,0.7879999876022339,0.028548163161451038
44.689655,,0.00012927405344969914,45.105,0.7870000004768372,0.025700419415978573
45.155172,,0.00014306596202063546,45.574,0.7620000243186951,-0.02963632939494598
45.620689999999996,,0.00015693492445184538,46.038,0.7789999842643738,0.0063548563313679685
46.086206999999995,,0.0001708343831050374,46.5,0.7789999842643738,0.0051661130385697585
46.551724,,0.00018471564395818515,46.966,0.7850000262260437,0.01694302238491651
47.017241,,0.00019852795779693274,47.43,0.7870000004768372,0.019938371009508325
47.482759,,0.00021221861229657853,47.896,0.8370000123977661,0.12748436055130966
47.948276,,0.00022573303514407275,48.36,0.75,-0.06342735072466524
48.413793,,0.00023901490831717634,48.825,0.7710000276565552,-0.0189885920166514
48.879310000000004,,0.0002520062936038681,49.29,0.7300000190734863,-0.10953245145446389
49.344828,,0.0002646477694093031,49.756,0.7870000004768372,0.013561086848039073
49.810345,,0.0002768785788601719,50.22,0.7850000262260437,0.008277728632408212
50.275862,,0.0002886367891772513,50.686,0.7699999809265137,-0.02513700151532059
50.741379,,0.00029985946224634616,51.149,0.7940000295639038,0.0266282384851937
51.206897,,0.0003104828362757776,51.619,0.7950000166893005,0.028512421581545024
51.672414,,0.0003204425183851683,52.079,0.7630000114440918,-0.041262878887709825
52.137931,,0.00032967368792560716,52.549,0.7689999938011169,-0.028013758093300076
52.603448,,0.0003381113102854515,53.012,0.7829999923706055,0.0028941250340974957
53.068966,,0.0003456903608891598,53.474,0.7699999809265137,-0.024804582083967904
53.534483,,0.00035234605904877,53.94,0.847000002861023,0.14377398076439918
54.0,,0.0003580141112790802,54.404,0.7730000019073486,-0.016448847645531832
54.465517,,0.000362630963638392,54.87,0.7870000004768372,0.015192552660753863
54.931034,,0.0003661340626069931,55.338,0.7990000247955322,0.04258442610361957
55.396552,,0.00036846212396554585,55.803,0.765999972820282,-0.027993138163645608
55.862069,,0.0003695554090853796,56.268,0.7630000114440918,-0.033181986237730866
56.327586,,0.000369356007992529,56.734,0.7850000262260437,0.016083521989834558
56.793102999999995,,0.0003678081285174059,57.201,0.7889999747276306,0.026082198828967056
57.258621000000005,,0.0003648583907924261,57.66,0.777999997138977,0.0033123109923784786
57.724138,,0.00036045612631093355,58.128,0.7839999794960022,0.01745461842373975
58.189655,,0.0003545536807125733,58.589,0.7689999938011169,-0.014311332348106592
58.655172,,0.000347106719413077,59.06,0.7620000243186951,-0.028832187551197874
59.120689999999996,,0.0003380745351504473,59.523,0.7829999923706055,0.017443494105371413
59.586207,,0.00032742035647498953,59.988,0.7820000052452087,0.0155691582267099
60.051724,,0.00031511165616775845,60.451,0.777999997138977,0.006930964423498094
60.517241,,0.0003011204585309948,60.917,0.7860000133514404,0.024207273138644514
60.982758999999994,,0.00028542364445525444,61.386,0.7689999938011169,-0.013206747136857017
61.448276,,0.00026800325313141443,61.844,0.7739999890327454,-0.002902759107599024
61.913793,,0.00024884677924180937,62.312,0.5899999737739563,-0.40456093642523683
62.379310000000004,,0.0002279474644336421,62.777,0.7929999828338623,0.03674217549283357
62.84482800000001,,0.00020530458184976491,63.242,0.7739999890327454,-0.005757286508789505
63.310345000000005,,0.00018092371246718309,63.708,0.6290000081062317,-0.32287454793046516
63.775862000000004,,0.00015481701197242264,64.171,0.7739999890327454,-0.00825748087971313
64.241379,,0.0001270034668854456,64.634,0.7730000019073486,-0.011754881869219127
64.706897,,9.750913863030453e-05,65.104,0.7710000276565552,-0.017419741958016523
65.172414,,6.636739424145561e-05,65.567,0.7870000004768372,0.016182076860291914
65.637931,,3.361912238984942e-05,66.03,0.7820000052452087,0.004121885400597492
66.103448,,6.870665872244101e-07,66.5,0.7630000114440918,-0.038315036099688164
66.56896599999999,,3.649465796394391e-05,66.966,0.7789999842643738,-0.00434438124657384
67.03448300000001,,7.373906851327252e-05,67.43,0.7789999842643738,-0.005050678664620276
67.5,,0.00011234750229081109,67.895,0.7879999876022339,0.01405327367964918
67.965517,,0.00015223882758171083,68.355,0.7699999809265137,-0.025449644454314465
68.431034,,0.00019332347625107261,68.82,0.7839999794960022,0.004988267224663763
68.896552,,0.00023550336670698297,69.287,0.7639999985694885,-0.038423247777921735
69.362069,,0.0002786718516487822,69.752,0.7860000133514404,0.009886937571181628
69.827586,,0.00032271369173004133,70.219,0.7580000162124634,-0.0505296909814988
70.293103,,0.0003675050562149673,70.685,0.7850000262260437,0.009066073091224178
70.75862099999999,,0.00041291355165010504,71.145,0.7889999747276306,0.018715557636186778
71.22413800000001,,0.0004587982795135131,71.615,0.7699999809265137,-0.02160994971207289
71.689655,,0.0005050099237403153,72.079,0.7580000162124634,-0.04658509439914473
72.15517200000001,,0.0005513908689493001,72.541,0.7940000295639038,0.033078448420457734
72.62069,,0.0005977753501056317,73.009,0.7979999780654907,0.04305205659426624
73.086207,,0.000643989634261387,73.471,0.7860000133514404,0.018156615627817077
73.551724,,0.000689852234936961,73.936,0.7649999856948853,-0.02639636108338418
74.017241,,0.0007351741596332617,74.402,0.7480000257492065,-0.062321725980812565
74.482759,,0.0007797591908520604,74.868,0.7820000052452087,0.012742973907463793
74.94827599999999,,0.0008234042008329703,75.335,0.7870000004768372,0.024477508206811084
75.41379300000001,,0.0008658995000696239,75.801,0.7839999794960022,0.01860940535132982
75.87931,,0.0009070292196430753,76.261,0.7879999876022339,0.02779914152228019
76.344828,,0.0009465717274230664,76.727,0.7910000085830688,0.03460416147130442
76.810345,,0.0009843000779685956,77.19,0.6399999856948853,-0.2943187836516274
77.275862,,0.0010199824954673948,77.66,0.7879999876022339,0.027955241166483083
77.741379,,0.00105338288881059,78.123,0.7919999957084656,0.03629366938445391
78.206897,,0.0010842613984043247,78.586,0.7820000052452087,0.013936333309661207
78.67241399999999,,0.001112374974902833,79.054,0.7120000123977661,-0.13931770499988688
79.137931,,0.0011374779891436112,79.515,0.7649999856948853,-0.024753656272510072
79.603448,,0.0011593228703095924,79.981,0.7990000247955322,0.04829033521509672
80.068966,,0.001177660769059466,80.444,0.8109999895095825,0.07331271248686257
80.53448300000001,,0.0011922422464311965,80.909,0.7739999890327454,-0.008474674653093912
81.0,,0.0012028179927968282,81.374,0.7879999876022339,0.02082830802361297
81.465517,,0.0012091395752057454,81.84,0.7649999856948853,-0.03046350713769187
81.931034,,0.0012109601992167532,82.306,0.7760000228881836,-0.007630468986579396
82.396552,,0.0012080354734179057,82.771,0.7850000262260437,0.01093013875392267
82.86206899999999,,0.00120012419131419,83.238,0.7770000100135803,-0.007429697653888334
83.327586,,0.0011869891617201339,83.704,0.753000020980835,-0.06050425720268262
83.79310299999999,,0.0011683980771231264,84.167,0.7829999923706055,0.004234292256428235
84.258621,,0.0011441243420625884,84.63,0.7620000243186951,-0.04195387879458648
84.72413800000001,,0.0011139478151441686,85.097,0.7649999856948853,-0.03565838828074974
85.189655,,0.0010776555818067775,85.56,0.7910000085830688,0.020948726915847794
85.65517200000001,,0.0010350429401479362,86.03,0.7720000147819519,-0.02028024580094074
86.12069,,0.0009859144976230695,86.493,0.781000018119812,-0.0003101892921399908
86.586207,,0.0009300849151789906,86.959,0.7730000019073486,-0.017192729727813
87.051724,,0.000867379131935287,87.423,0.7710000276565552,-0.020836711670291365
87.517241,,0.0007976328826782565,87.888,0.7870000004768372,0.01487882732266154
87.98275899999999,,0.0007206944914860542,88.353,0.7910000085830688,0.024568302909013077
88.448276,,0.0006364270476801182,88.819,0.765999972820282,-0.028835877270636787
88.913793,,0.0005447082210435967,89.286,0.7860000133514404,0.015853257932552697
89.37931,,0.00044542735782481424,89.744,0.7609999775886536,-0.03747753196609791
89.844828,,0.0003384852036313989,90.209,0.7649999856948853,-0.02764309344204531
90.310345,,0.000223801246454928,90.674,0.7910000085830688,0.030072176119100916
90.775862,,0.00010132166149162406,91.145,0.7910000085830688,0.031061846151548597
91.241379,,2.898801648637255e-05,91.608,0.7749999761581421,-0.0029170214256315197
91.706897,,0.00016716373283471504,92.075,0.7839999794960022,0.017433820716754544
92.17241399999999,,0.00031324322739435134,92.538,0.7710000276565552,-0.01030411482127165
92.63793100000001,,0.00046722230009267553,93.008,0.7720000147819519,-0.007716819696798587
93.103448,,0.0006290182608451772,93.471,0.7910000085830688,0.03389921757284292
93.568966,,0.0007985298095501358,93.929,0.7889999747276306,0.02957166683342959
94.03448300000001,,0.0009757591958499106,94.394,0.7649999856948853,-0.02287790478118376
94.5,,0.0011607859123750803,94.86,0.8009999990463257,0.05520543233507395
94.965517,,0.0013534940395580142,95.327,0.7699999809265137,-0.01285486923773535
95.431034,,0.0015534085161972879,95.793,0.7829999923706055,0.01478801894673682
95.896552,,0.0017601250096528338,96.26,0.7860000133514404,0.0205085110242987
96.36206899999999,,0.0019739894763876565,96.726,0.7630000114440918,-0.03052637064349143
96.827586,,0.0021957564722401082,97.186,0.7889999747276306,0.025110485662898304
97.293103,,0.0024249195639014813,97.649,0.7649999856948853,-0.028235826283104126
97.758621,,0.0026590826083970434,98.12,0.765999972820282,-0.027134696011131092
98.224138,,0.0028968919894622777,98.582,0.7910000085830688,0.0262683053131723
98.689655,,0.003141669277516991,99.046,0.765999972820282,-0.029214384125099063
99.155172,,0.003398280556038088,99.516,0.7599999904632568,-0.04322562634510936
99.62069,,0.003663170629351149,99.974,0.7620000243186951,-0.03970314989933351
100.086207,,0.003922852214563419,100.444,0.7889999747276306,0.018415176184473178
100.551724,,0.004173194474979376,100.91,0.8199999928474426,0.0854004462010789
101.017241,,0.004437917544611172,101.374,0.7829999923706055,0.004406695621443635
101.482759,,0.00474368516337665,101.84,0.7870000004768372,0.012916724658375314
101.948276,,0.005062209070870262,102.304,0.765999972820282,-0.03285619234466856
102.413793,,0.005315284766242174,102.77,0.7620000243186951,-0.04140978179121346
102.87931,,0.005497858593269448,103.235,0.7850000262260437,0.009036076531178487
103.344828,,0.005765836346806605,103.7,0.753000020980835,-0.06017885158855575
103.810345,,0.006253035230320102,104.163,0.722000002861023,-0.12706777193571095
104.275862,,0.006744553680079196,104.626,0.7850000262260437,0.010962698011454188
104.741379,,0.006792854374843039,105.09,0.7739999890327454,-0.012123351951880964
105.206897,,0.0064839406000196075,105.56,0.7870000004768372,0.017155778189314783
105.672414,,0.006815596488373411,106.023,0.7710000276565552,-0.016697792314998693
106.13793100000001,,0.008423612956066652,106.486,0.777999997138977,-0.0004253761935438169
106.603448,,0.00970793673288575,106.951,0.781000018119812,0.007118705779025587
107.068966,,0.007584894030765071,107.416,0.7879999876022339,0.023333330487243155
107.534483,,0.0013144335426660846,107.882,0.7720000147819519,-0.010633761435540177
108.0,,0.005583514116857955,108.349,0.7960000038146973,0.042445465895122186
108.46551699999999,,0.008902748057153735,108.815,0.7879999876022339,0.025685291544571078
108.931034,,0.008215866254371023,109.275,0.7979999780654907,0.04799885582823768
109.396552,,0.006110370663682097,109.741,0.7870000004768372,0.024403597591704865
109.862069,,0.00431032257160163,110.205,0.7889999747276306,0.028962725683826913
110.32758600000001,,0.002684337847476286,110.67,0.7680000066757202,-0.01676081030204239
110.793103,,0.001254579340999441,111.134,0.7950000166893005,0.04191657319878631
111.258621,,0.000939224896802876,111.604,0.7839999794960022,0.017636584757838848
111.724138,,0.0020696800760288997,112.064,0.7409999966621399,-0.07651910079002475
112.189655,,0.003689066859593744,112.534,0.781000018119812,0.010008062430455844
112.655172,,0.005013546436088338,113.005,0.7599999904632568,-0.03648780202615437
113.12069,,0.006559907603840941,113.46,0.765999972820282,-0.024262176957432924
113.586207,,0.008865803615910753,113.925,0.7919999957084656,0.03146098063046728
114.051724,,0.01092301160235204,114.39,0.7950000166893005,0.0370291958530629
114.51724100000001,,0.011283620096551228,114.855,0.7850000262260437,0.014258997719691014
114.982759,,0.010377184939274151,115.32,0.765999972820282,-0.02810583557144973
115.448276,,0.010241120371664334,115.786,0.7799999713897705,0.0014669918718791008
115.913793,,0.011834591524858985,116.253,0.7689999938011169,-0.023356267443270115
116.37931,,0.013782837250753265,116.719,0.7870000004768372,0.015097306360697088
116.84482799999999,,0.013899241024699069,117.179,0.7900000214576721,0.020990465668981422
117.310345,,0.011000522653465713,117.649,0.765999972820282,-0.031801769896984404
117.77586199999999,,0.0053994186651084835,118.112,0.7379999756813049,-0.09315686928760102
118.241379,,0.0010989535157042325,118.574,0.7699999809265137,-0.023632227961464025
118.70689700000001,,0.005614227309952881,119.042,0.7670000195503235,-0.030193655466468627
119.172414,,0.006075219828737736,119.504,0.7870000004768372,0.013521303687449363
119.63793100000001,,0.0033571248963313325,119.97,0.7680000066757202,-0.027568028147035482
120.103448,,0.0005427462449604228,120.441,0.7850000262260437,0.009927122930337488
120.568966,,0.0005207601586795707,120.899,0.7570000290870667,-0.050478626797601546
121.034483,,0.0009270704388065101,121.364,0.7720000147819519,-0.017083221732357656
121.5,,0.002381500825236053,121.829,0.6959999799728394,-0.1818492079309397
121.96551699999999,,0.004355640467640296,122.295,0.7649999856948853,-0.0306414239551318
122.431034,,0.004690281538154735,122.761,0.8140000104904175,0.07703818464630487
122.896552,,0.002415528910628615,123.227,0.7680000066757202,-0.022234997019171695
123.362069,,0.001110307170712876,123.693,0.7620000243186951,-0.034372718356788005
123.827586,,0.0037558772925351544,124.156,0.7739999890327454,-0.007334472238796264
124.293103,,0.004579900461416566,124.619,0.753000020980835,-0.052258049803995094
124.758621,,0.00413024514937775,125.09,0.7879999876022339,0.02473136396545427
125.22413800000001,,0.0031912452874965315,125.553,0.7649999856948853,-0.024753471575315673
125.68965500000002,,0.0016720426042983257,126.016,0.7770000100135803,0.0018833762500643828
126.15517200000001,,0.0008154743249167632,126.486,0.7910000085830688,0.032732207931462996
126.62069000000001,,0.003354314717330541,126.944,0.7870000004768372,0.024210727202150967
127.086207,,0.003806187596794486,127.412,0.7910000085830688,0.03295868938805762
127.55172400000001,,0.0013427132149649384,127.878,0.7570000290870667,-0.04124290059497903
128.017241,,0.001969692643020295,128.343,0.765999972820282,-0.021920400722003356
128.48275900000002,,0.0033348218868560525,128.808,0.7609999775886536,-0.033247878541338885
128.948276,,0.002471771222223747,129.276,0.7870000004768372,0.02282777999266907
129.413793,,0.0015410916895495146,129.734,0.7870000004768372,0.02214192717144172
129.87931,,0.0022795482077358565,130.201,0.7879999876022339,0.023539640147706216
130.344828,,0.004434232700552144,130.667,0.765999972820282,-0.025243213102478235
130.81034499999998,,0.0067502192155550955,131.131,0.7870000004768372,0.019609776700592156
131.275862,,0.008171875882437816,131.6,0.7850000262260437,0.014335187404150102
131.741379,,0.00792362319191491,132.061,0.7670000195503235,-0.025788859423019502
132.206897,,0.005613043540831635,132.53,0.7879999876022339,0.019090346689255293
132.67241399999997,,0.0020374879857796083,132.989,0.7639999985694885,-0.03400743613828485
133.13793099999998,,0.0006437845878513767,133.459,0.7860000133514404,0.013198899373353574
133.60344800000001,,0.0005718941800947485,133.925,0.765999972820282,-0.030990359859730074
134.06896600000002,,0.001761592062119679,134.39,0.9399999976158142,0.34760742936073163
134.53448300000002,,0.003922349420806994,134.855,0.7870000004768372,0.01393332442288999
135.0,,0.004361706881425615,135.32,0.746999979019165,-0.07340061293734992
135.465517,,0.00395664171859335,135.779,0.765999972820282,-0.03204043646614862
135.931034,,0.004201774562416621,136.246,0.7730000019073486,-0.016669776691761576
136.396552,,0.004992987542065755,136.712,0.7990000247955322,0.04024625737510091
136.862069,,0.005272058749755524,137.179,0.777999997138977,-0.005091310540890994
137.327586,,0.005021729381348291,137.642,0.7820000052452087,0.004167234339755697
137.793103,,0.005195707392869886,138.104,0.7720000147819519,-0.016962761860238977
138.258621,,0.0059074212389356355,138.574,0.7620000243186951,-0.03800081659936666
138.724138,,0.00601709066909696,139.038,0.7870000004768372,0.017282865262335516
139.189655,,0.004686437801954507,139.5,0.7649999856948853,-0.02978523407577089
139.655172,,0.002276758961010832,139.966,0.7990000247955322,0.045170204833287195
140.12069,,0.0005030176920280842,140.43,0.7710000276565552,-0.014957677722935341
140.586207,,0.003309436616704523,140.896,0.7820000052452087,0.009848429716617941
141.05172399999998,,0.005742727562321342,141.36,0.7009999752044678,-0.16584108917228335
141.51724099999998,,0.007144387116157386,141.826,0.6830000281333923,-0.20436160092229838
141.982759,,0.007194626967931342,142.293,0.7630000114440918,-0.029481640713384508
142.44827600000002,,0.0061085322991487135,142.759,0.7799999713897705,0.008022530709149284
142.913793,,0.004114135681056061,143.224,0.7820000052452087,0.012715385319266515
143.37931,,0.0014478616233219656,143.689,0.7580000162124634,-0.03937758999376849
143.844828,,0.0008834546198550771,144.15,0.7889999747276306,0.028208951290787543
144.310345,,0.0011912112465739101,144.619,0.7879999876022339,0.025932891562691462
144.77586200000002,,0.0011252825643232242,145.082,0.765999972820282,-0.02223694484641392
145.241379,,0.004139201743196717,145.545,0.7870000004768372,0.023140571628633148
145.706897,,0.004790097869873987,146.009,0.7820000052452087,0.011750566159629952
146.172414,,0.0020990808080785556,146.478,0.8029999732971191,0.05689867521568193
146.637931,,0.001673363233323484,146.944,0.7739999890327454,-0.006973784001898705
147.103448,,0.0034341856619996484,147.409,0.777999997138977,0.0009811172901853164
147.568966,,0.0022534023393986887,147.874,0.7879999876022339,0.021962266721762193
148.034483,,0.00030549446428820116,148.335,0.7879999876022339,0.02113563226517136
148.5,,0.0021570375399429047,148.8,0.7699999809265137,-0.018903841989842667
148.965517,,0.002487788951893987,149.268,0.7480000257492065,-0.0676319297286616
149.43103399999998,,0.001997026365314494,149.733,0.7850000262260437,0.01222882110505413
149.89655199999999,,0.0018814798430015346,150.194,0.7940000295639038,0.031158880744653332
150.362069,,0.002563334434715002,150.664,0.7870000004768372,0.015322364735507348
150.82758600000003,,0.0032664799720990337,151.126,0.6710000038146973,-0.23788053385710323
151.293103,,0.002914809957701435,151.589,0.7879999876022339,0.01665936972585908
151.758621,,0.0014382895359940626,152.057,0.7739999890327454,-0.014074086299388531
152.224138,,5.889130475356971e-05,152.519,0.7699999809265137,-0.02288348552428597
152.68965500000002,,0.0005313877967990045,152.985,0.7879999876022339,0.01637722976347587
153.155172,,0.0001668099633983421,153.455,0.9139999747276306,0.2910729463778317
153.62069,,0.0001618830323870916,153.921,0.7950000166893005,0.03213742389198258
154.086207,,0.0014063827131548707,154.379,0.7860000133514404,0.012978435228289035
154.551724,,0.0034364853394132184,154.844,0.7720000147819519,-0.016965354895606407
155.017241,,0.0047334252588953525,155.316,0.7870000004768372,0.016362578005932663
155.482759,,0.004232702468882472,155.774,0.7960000038146973,0.03669037592471369
155.948276,,0.002464568832908571,156.241,0.7940000295639038,0.033103696541365135
156.413793,,0.0008948430222114336,156.707,0.7860000133514404,0.016472511137308878
156.87931,,0.0003390532313172095,157.175,0.7689999938011169,-0.019763475960446992
157.34482799999998,,0.0004867442804858108,157.637,0.8050000071525574,0.059448221659991037
157.81034499999998,,0.0006227673485623682,158.105,0.796999990940094,0.04275638908348382
158.275862,,0.00013914699061981964,158.567,0.7820000052452087,0.010749668569527821
158.741379,,0.0012123763080915217,159.03,0.7749999761581421,-0.003912804568800898
159.20689700000003,,0.002656135927189045,159.5,0.7739999890327454,-0.00560568500586954
159.672414,,0.002377990003081549,159.959,0.765999972820282,-0.02266572483131321
160.137931,,0.00063273984094546,160.43,0.7950000166893005,0.04075777359838914
160.60344800000001,,0.004666811551356581,160.896,0.7870000004768372,0.023438824138236166
161.06896600000002,,0.0062838972296945655,161.36,0.7789999842643738,0.005985151888923252
161.534483,,0.0038312349646335655,161.826,0.765999972820282,-0.022495701554898773
162.0,,0.0004341068728384785,162.291,0.781000018119812,0.00989687808090289
162.465517,,0.002465978041107928,162.749,0.7910000085830688,0.031276957605690756
162.931034,,0.00081720687045957,163.216,0.7950000166893005,0.03947947845846211
163.396552,,0.0018145980683663828,163.682,0.7879999876022339,0.023627018774260017
163.862069,,0.0019403624828013702,164.145,0.7860000133514404,0.018596219100850665
164.327586,,0.0007056421707253921,164.616,0.7689999938011169,-0.019166372809997154
164.793103,,0.0035459440624293296,165.079,0.7789999842643738,0.00186383899483465
165.258621,,0.004708848660655435,165.541,0.8489999771118164,0.15360611767406007
165.72413799999998,,0.004577444943873151,166.009,0.7480000257492065,-0.06718393592922402
166.189655,,0.004111062621596207,166.471,0.7870000004768372,0.017073450218438962
166.655172,,0.003411116080099629,166.937,0.7639999985694885,-0.033688841734028224
167.12069,,0.002452026037278189,167.402,0.7710000276565552,-0.019016140216784407
167.58620699999997,,0.0020041855606029663,167.867,0.7820000052452087,0.004463163128251632
168.051724,,0.002873293109851358,168.335,0.7870000004768372,0.014977219078146777
168.517241,,0.004518689335219492,168.8,0.7639999985694885,-0.035393670125980346
168.98275900000002,,0.005216011285774479,169.26,0.7870000004768372,0.014577362682677697
169.44827600000002,,0.003975490938276087,169.726,0.7860000133514404,0.012388784096532159
169.913793,,0.0019211287419983753,170.194,0.7990000247955322,0.0408295807187238
170.37931,,0.0011115878136721202,170.656,0.7950000166893005,0.03235789657473163
170.844828,,0.0020863039987585033,171.119,0.7649999856948853,-0.032642341857102214
171.310345,,0.0033020397973539993,171.589,0.7860000133514404,0.013573075930063756
171.775862,,0.003070069907933047,172.05,0.7879999876022339,0.01848455881461025
172.241379,,0.001399539716298957,172.52,0.796999990940094,0.038721050581463565
172.706897,,0.00023620997292404005,172.979,0.7870000004768372,0.0176189356719117
173.172414,,0.0004999918571449448,173.449,0.7580000162124634,-0.04484297138453613
173.637931,,0.0006407280740505659,173.914,0.7870000004768372,0.01906915900652268
174.103448,,0.0021391473982069233,174.379,0.781000018119812,0.006719929810568527
174.568966,,0.002981413409653836,174.845,0.7699999809265137,-0.016552476459413754
175.034483,,0.0028652565377248595,175.309,0.8529999852180481,0.16491922314638927
175.5,,0.0020142520663823655,175.775,0.7870000004768372,0.021706142655007987
175.96551699999998,,0.0009259713066633599,176.235,0.7599999904632568,-0.036623918409107566
176.43103399999998,,0.00022936223340996908,176.701,0.781000018119812,0.009520936815306377
176.896552,,4.650155820989769e-05,177.164,0.7879999876022339,0.02505346445940552
177.36206900000002,,0.0011140463475114563,177.633,0.7580000162124634,-0.04014277513587222
177.827586,,0.004274629514289214,178.094,0.7950000166893005,0.04050694136724485
178.293103,,0.00876714461125664,178.563,0.7910000085830688,0.03170865150173421
178.758621,,0.011731918463701727,179.027,0.7680000066757202,-0.018604219016749288
179.224138,,0.010868902508243116,179.489,0.7910000085830688,0.031186539653130573
179.68965500000002,,0.00661960541460006,179.955,0.7649999856948853,-0.025881007766867938
180.155172,,0.0016066113924225508,180.419,0.7910000085830688,0.030249710894103183
180.62069,,0.0014765693105641886,180.885,0.7680000066757202,-0.02044942294758692
181.086207,,0.0015218700270671352,181.35,0.7739999890327454,-0.008026280082215651
181.551724,,0.0005118662820995375,181.815,0.7870000004768372,0.019608383124622035
182.01724099999998,,0.0024501028874759447,182.282,0.7860000133514404,0.016723923375420037
182.482759,,0.0027339755845770764,182.748,0.7739999890327454,-0.010122903789873357
182.948276,,0.001669169646418532,183.212,0.7620000243186951,-0.03694670420384872
183.413793,,0.0007453629450512762,183.678,0.8029999732971191,0.051740691987784984
183.87931,,0.0008850786559720964,184.146,0.7879999876022339,0.018486520940385283
184.34482799999998,,0.001628078766450979,184.608,0.7630000114440918,-0.036475031889193335
184.81034499999998,,0.0018117767859515386,185.071,0.7919999957084656,0.026303097829321706
185.27586200000002,,0.0006564110865413105,185.534,0.7870000004768372,0.015111940614064904
185.74137900000002,,0.0016971837205712627,186.0,0.7739999890327454,-0.01339522049680947
186.206897,,0.004226464433571715,186.464,0.765999972820282,-0.030891655787814477
186.672414,,0.005473698858959082,186.929,0.7910000085830688,0.023626387318767237
187.137931,,0.004447182331397339,187.394,0.7870000004768372,0.015081188064490712
187.60344800000001,,0.001576208939573148,187.86,0.7689999938011169,-0.023852866526858595
188.06896600000002,,0.0013498819332375738,188.327,0.7639999985694885,-0.03436178487306848
188.534483,,0.0026594558873675846,188.793,0.8220000267028809,0.09247579140220862
189.0,,0.0023391351412454663,189.261,0.7739999890327454,-0.01154521462041648
189.465517,,0.0018129169294397829,189.719,0.7789999842643738,-3.659837731258232e-05
189.931034,,0.002086269840703622,190.186,0.7889999747276306,0.022407496063406262
190.39655199999999,,0.00260342236600575,190.649,0.7620000243186951,-0.03573564680606069
190.862069,,0.002448891121743904,191.119,0.7680000066757202,-0.021981704199635525
191.327586,,0.0021687872714101545,191.582,0.777999997138977,0.00046847430667407673
191.793103,,0.00320624949006506,192.05,0.7870000004768372,0.020702856115121987
192.25862099999998,,0.005369827873350564,192.512,0.7860000133514404,0.01909581612053248
192.72413799999998,,0.00620548708671613,192.978,0.7710000276565552,-0.01308401601348042
193.189655,,0.0039309432516973246,193.44,0.7879999876022339,0.0243663964254348
193.655172,,0.00031028669636957865,193.906,0.765999972820282,-0.02324877829838652
194.12069000000002,,0.0007984704964970504,194.372,0.7870000004768372,0.022710702748611953
194.586207,,0.0019849581615550825,194.838,0.7730000019073486,-0.00769556823213844
195.051724,,0.00553757609049375,195.304,0.777999997138977,0.0031770838194452424
195.517241,,0.005636546037133643,195.77,0.7599999904632568,-0.03617400095886078
195.98275900000002,,0.001793069200697904,196.234,0.7710000276565552,-0.01245494479249653
196.448276,,0.0024192210042706082,196.7,0.7889999747276306,0.026411740523642337
196.913793,,0.0036321429307807625,197.164,0.7699999809265137,-0.01542301122424723
197.37931,,0.0020730751412687738,197.626,0.7870000004768372,0.02109533465208924
197.844828,,0.0006388013577150278,198.094,0.7870000004768372,0.020514118045508203
198.310345,,0.001735467272354389,198.557,0.7730000019073486,-0.01061330661127467
198.775862,,0.005368558324432949,199.019,0.7870000004768372,0.01923460939624507
199.241379,,0.00948926037127834,199.49,0.7950000166893005,0.03600351181736454
199.706897,,0.011585005035394507,199.955,0.7630000114440918,-0.034361408655310774
200.172414,,0.010202249344829153,200.419,0.7870000004768372,0.017308556927901942
200.63793099999998,,0.005743459087405095,200.885,0.765999972820282,-0.029012294951915946
201.103448,,0.0004668883072706352,201.35,0.8140000104904175,0.07505929952721456
201.568966,,0.0026230506824536926,201.816,0.7360000014305115,-0.09529903313416827
202.034483,,0.0019759771584373156,202.276,0.7860000133514404,0.01330080924495263
202.5,,0.001084168282612797,202.741,0.7900000214576721,0.021783742673104484
202.965517,,0.0037521559832373085,203.206,0.7870000004768372,0.015124537127597272
203.431034,,0.004588864958125411,203.671,0.7720000147819519,-0.017566966139567017
203.896552,,0.004221357292323812,204.134,0.7910000085830688,0.023926699294275714
204.36206900000002,,0.0032412622215334955,204.604,0.7879999876022339,0.01759829352996453
204.827586,,0.0007781631405058356,205.067,0.765999972820282,-0.030022793594130563
205.293103,,0.003780659143084859,205.53,0.7870000004768372,0.016129890796951325
205.758621,,0.008466720968862909,205.996,0.7599999904632568,-0.04221307655810215
206.224138,,0.009815381886368844,206.461,0.765999972820282,-0.028595857672828316
206.689655,,0.006598846231769294,206.927,0.7860000133514404,0.015571317637353758
207.155172,,0.001454068220857209,207.394,0.7879999876022339,0.02055481818966299
207.62069,,0.0016101868389795783,207.86,0.7689999938011169,-0.02019936641779807
208.086207,,0.0008094783168968243,208.319,0.7919999957084656,0.030544615195867167
208.551724,,0.0022315864623372243,208.786,0.7670000195503235,-0.02331010172960239
209.01724099999998,,0.004144339854659997,209.25,0.7720000147819519,-0.011847187122143173
209.482759,,0.0026465056814222654,209.715,0.7879999876022339,0.023522543587681938
209.948276,,0.0014950514467393524,210.186,0.7820000052452087,0.010889631189828367
210.413793,,0.004977297418821707,210.648,0.7860000133514404,0.019958264722320165
210.87930999999998,,0.005006532792955913,211.109,0.7990000247955322,0.04853997820714197
211.344828,,0.0023823064621056426,211.579,0.7689999938011169,-0.016662449574851662
211.810345,,0.0010624382804240238,212.042,0.7870000004768372,0.022603305397498833
212.27586200000002,,0.0037706657013094514,212.504,0.7820000052452087,0.011651814329878808
212.741379,,0.008364710366646816,212.97,0.781000018119812,0.009308648067245623
213.206897,,0.009843577576625434,213.441,0.7799999713897705,0.00686388756535399
213.672414,,0.006061090233353451,213.899,0.7860000133514404,0.019576375462622832
214.137931,,9.97950376770124e-05,214.364,0.7739999890327454,-0.0070098507410545005
214.60344800000001,,0.0035447499329829798,214.83,0.7850000262260437,0.016442994057055623
215.068966,,0.0038179208211108918,215.297,0.7720000147819519,-0.01244686193567885
215.534483,,0.003004120931532678,215.763,0.7860000133514404,0.01744842316737913
216.0,,0.002735518830973922,216.227,0.7870000004768372,0.019000852329175966
216.465517,,0.002080595204172263,216.693,0.7730000019073486,-0.012128494069708676
216.93103399999998,,4.1023526687790715e-05,217.156,0.6309999823570251,-0.3221118913486593
217.39655199999999,,0.0023040880022317943,217.619,0.777999997138977,-0.002437293985572651
217.862069,,0.0022945559878269446,218.089,0.765999972820282,-0.02911976296242198
218.327586,,0.00024362941540788055,218.552,0.7860000133514404,0.013981613865515436
218.793103,,0.0028502055205134645,219.02,0.7710000276565552,-0.01908857378735581
219.25862099999998,,0.003088172863339918,219.482,0.7699999809265137,-0.0215651524889371
219.724138,,0.0009121032050526639,219.948,0.7860000133514404,0.01309701716235957
220.18965500000002,,0.0018167155284755272,220.412,0.7889999747276306,0.019544668137293025
220.65517200000002,,0.0032337419065212726,220.878,0.7620000243186951,-0.03925629689144355
221.12069,,0.002493137372642559,221.345,0.7860000133514404,0.013163275259290032
221.586207,,9.70844450177639e-05,221.811,0.7689999938011169,-0.02363601157210779
222.051724,,0.0029380319414290487,222.275,0.7720000147819519,-0.01676357051879957
222.517241,,0.003661307886931226,222.741,0.7889999747276306,0.020698674446868355
222.98275900000002,,0.0010404146817398412,223.205,0.7990000247955322,0.04298773441417217
223.448276,,0.003387031982417182,223.67,0.7910000085830688,0.02612378206443015
223.913793,,0.006221473810231903,224.134,0.7839999794960022,0.011484222861232768
224.37931,,0.005032965410457229,224.596,0.7620000243186951,-0.035808171417772365
224.844828,,0.0004774266958858115,225.064,0.7630000114440918,-0.03298497115094339
225.31034499999998,,0.00401708852475609,225.527,0.777999997138977,0.00032679742001282767
225.775862,,0.004878559421022443,225.993,0.7990000247955322,0.04668017910932898
226.241379,,0.001495570872203833,226.456,0.7870000004768372,0.021090549934155635
226.706897,,0.003119967763643356,226.922,0.765999972820282,-0.02417141838590514
227.172414,,0.005136118094609695,227.387,0.8420000076293945,0.14181696951448022
227.63793099999998,,0.003371810575431863,227.853,0.7850000262260437,0.01795522498124895
228.103448,,5.8815931634147254e-05,228.319,0.7950000166893005,0.03996286780195668
228.56896600000002,,0.0021610458741115517,228.785,0.7739999890327454,-0.005675644679443231
229.03448300000002,,0.0019111743697629053,229.249,0.7860000133514404,0.02046936121943206
229.5,,0.0009312213761757121,229.715,0.7549999952316284,-0.047180500343120386
229.965517,,0.001450622279559312,230.178,0.7519999742507935,-0.053938959786631185
230.431034,,0.0037467505317060642,230.64,0.7609999775886536,-0.03465842328811717
230.896552,,0.006107498660068298,231.108,0.7919999957084656,0.03245809779492705
231.362069,,0.0073696592368904315,231.571,0.777999997138977,0.0014546363224571595
231.827586,,0.008460468323150335,232.034,0.7870000004768372,0.02049458341567614
232.293103,,0.010644229307794363,232.504,0.765999972820282,-0.0258738987671838
232.758621,,0.013092858218034322,232.97,0.7879999876022339,0.021408994887360897
233.224138,,0.013481939441465328,233.433,0.8500000238418579,0.15582826824074375
233.689655,,0.010758994082308872,233.899,0.7870000004768372,0.01792785900820222
234.155172,,0.00623216267415042,234.364,0.7860000133514404,0.015133457345804568
234.62069,,0.0020062516983404962,234.829,0.7620000243186951,-0.037723484807216046
235.086207,,0.0006896026750256838,235.293,0.7620000243186951,-0.038230359013775604
235.55172399999998,,0.0017075795512893237,235.759,0.7829999923706055,0.007092008799817564
236.01724099999998,,0.0015807989019505737,236.224,0.7919999957084656,0.026362257361819536
236.482759,,0.001183598989620842,236.689,0.7480000257492065,-0.0697340842283469
236.94827600000002,,0.0011803379228404686,237.15,0.7820000052452087,0.004212274410202508
237.413793,,0.0015830361434958546,237.619,0.7730000019073486,-0.015410733124874988
237.87931,,0.0019642419292659153,238.082,0.765999972820282,-0.03056308218922396
238.344828,,0.001964480737530387,238.545,0.7910000085830688,0.02411230306629006
238.810345,,0.0016833494469857253,239.016,0.7739999890327454,-0.0126103377641233
239.27586200000002,,0.0019127223366110998,239.478,0.7879999876022339,0.01830153699722008
239.741379,,0.0035474468769954868,239.944,0.7889999747276306,0.020975504897280933
240.206897,,0.006058440709847098,240.409,0.7940000295639038,0.032434578561209834
240.672414,,0.007240982354427587,240.874,0.7850000262260437,0.01344607765463978
241.137931,,0.0057379413987452815,241.339,0.7820000052452087,0.00756434395315222
241.603448,,0.0033303586576597416,241.804,0.7680000066757202,-0.022267656141783956
242.068966,,0.0032132935754645943,242.264,0.7910000085830688,0.028505006255861994
242.534483,,0.006071283605589097,242.729,0.7630000114440918,-0.031858649957193175
243.0,,0.00925167865603327,243.202,0.7860000133514404,0.01884418932676899
243.465517,,0.010063675442447748,243.66,0.7850000262260437,0.01719725184259583
243.93103399999998,,0.008652243816558453,244.131,0.7879999876022339,0.024186921018529473
244.39655199999999,,0.006933516768254026,244.593,0.6069999933242798,-0.36978976283860826
244.862069,,0.005670102898175609,245.057,0.7850000262260437,0.018259391891458043
245.327586,,0.003945285984683248,245.519,0.7599999904632568,-0.036071393522528875
245.793103,,0.0014050241772812643,245.985,0.7870000004768372,0.022772571638089774
246.258621,,0.0005337117929592543,246.455,0.8330000042915344,0.12289657538922383
246.724138,,0.0006182118373379568,246.914,0.7879999876022339,0.024653339470695666
247.18965500000002,,0.00013359786884212146,247.379,0.7889999747276306,0.026523044503114275
247.655172,,0.0003593030038323734,247.845,0.7710000276565552,-0.013098459888626578
248.12069,,0.0023045577571720274,248.312,0.7720000147819519,-0.011411497104725929
248.586207,,0.0036315542530248766,248.778,0.7870000004768372,0.0207052980365511
249.051724,,0.0026905097007580755,249.245,0.7940000295639038,0.03533907713689423
249.517241,,0.0004372550753580802,249.704,0.7900000214576721,0.025972417397849355
249.982759,,0.0006146997076143571,250.172,0.6290000081062317,-0.3254611463169385
250.44827600000002,,0.0007349224733325825,250.634,0.7699999809265137,-0.018945150804749906
250.913793,,0.003250729745587439,251.104,0.7699999809265137,-0.019598654753467015
251.37931000000003,,0.005055139029963513,251.567,0.7889999747276306,0.021184872359640738
251.844828,,0.005541503237442051,252.031,0.7730000019073486,-0.014222634079565723
252.31034499999998,,0.0048706603090150685,252.5,0.7239999771118164,-0.12144854882975076
252.77586200000002,,0.00273204001812538,252.966,0.7730000019073486,-0.015076407363441824
253.241379,,0.0008779707907808938,253.43,0.7639999985694885,-0.03496313784742171
253.706897,,0.004157260232766419,253.896,0.7879999876022339,0.017158149829275
254.172414,,0.004557688404980793,254.36,0.7940000295639038,0.030182681450971045
254.63793099999998,,0.0017567058422687856,254.825,0.7860000133514404,0.012827102393132889
255.10344800000001,,0.0015614733955209058,255.29,0.7620000243186951,-0.039268258611096146
255.56896600000002,,0.0024836311004872995,255.749,0.7570000290870667,-0.04985741886783615
256.03448299999997,,0.0007884724981833314,256.217,0.8510000109672546,0.1553437342561022
256.5,,0.0013919325132238484,256.682,0.7860000133514404,0.014233896870796995
256.965517,,0.002316217619861769,257.146,0.7789999842643738,-0.0004360201561503876
257.431034,,0.0023181171968169037,257.616,0.7730000019073486,-0.012867960481825742
257.896552,,0.0027454954923011267,258.079,0.7850000262260437,0.013955533424276847
258.362069,,0.00382073849859886,258.541,0.7649999856948853,-0.028918800934792127
258.827586,,0.0041232269560948125,259.009,0.765999972820282,-0.02604408271698696
259.29310300000003,,0.00235061144950422,259.471,0.765999972820282,-0.025372134344632837
259.758621,,0.0007349916917604546,259.936,0.7889999747276306,0.025364597200933373
260.224138,,0.0027661778273378105,260.401,0.9279999732971191,0.32876478963327
260.689655,,0.002532561832701266,260.866,0.765999972820282,-0.023683142684413305
261.155172,,0.001741697956701377,261.331,0.7689999938011169,-0.016747396185465783
261.62068999999997,,0.003114308854889227,261.796,0.7870000004768372,0.02275934933479671
262.086207,,0.006768742907619663,262.263,0.7950000166893005,0.04036245374429724
262.551724,,0.009564048505203211,262.729,0.7680000066757202,-0.018410047303408145
263.017241,,0.008598628316612894,263.19,0.765999972820282,-0.022842140648319447
263.482759,,0.004594837583993579,263.66,0.796999990940094,0.04449734856433416
263.94827599999996,,0.0009761748946693049,264.123,0.7620000243186951,-0.032071826068667104
264.413793,,0.00015532131293327257,264.586,0.7889999747276306,0.02632628090110025
264.87931,,0.0017957033985713485,265.049,0.7699999809265137,-0.015589483852287311
265.34482799999995,,0.004173908377517366,265.519,0.7739999890327454,-0.007476903699413854
265.810345,,0.005582119687744487,265.985,0.7870000004768372,0.020181182732447314
266.27586199999996,,0.0044538812607754896,266.448,0.7940000295639038,0.03472595889753556
266.741379,,0.00015970934566963537,266.914,0.7870000004768372,0.018749974627955666
267.206897,,0.0054025768423740595,267.379,0.7870000004768372,0.01802711534090354
267.672414,,0.008470780254154079,267.845,0.7689999938011169,-0.02188721645755529
268.137931,,0.007029007989557005,268.304,0.7879999876022339,0.018853897927742773
268.603448,,0.0032077173187319377,268.77,0.7630000114440918,-0.03619995420820456
269.06896600000005,,0.000990135697450998,269.235,0.7739999890327454,-0.01273909472041177
269.53448299999997,,0.00173864279778677,269.701,0.824999988079071,0.09796792282700911
270.0,,0.0031428933989733937,270.164,0.7850000262260437,0.010532233985864206
270.465517,,0.0027909306941286925,270.633,0.7950000166893005,0.03215211617984825
270.931034,,0.0013105014381013988,271.094,0.7870000004768372,0.0146844841649076
271.396552,,0.0007824212225176529,271.564,0.9070000052452087,0.27621587667713826
271.86206899999996,,0.0011458869394561652,272.027,0.765999972820282,-0.030749246571421546
272.327586,,0.0001803843741949835,272.49,0.7870000004768372,0.015348612128889359
272.793103,,0.002988487782608778,272.955,0.7820000052452087,0.004910768612438714
273.258621,,0.0061818698436444846,273.419,0.7480000257492065,-0.06861293466218155
273.724138,,0.00663013537717914,273.885,0.7620000243186951,-0.037484462772716914
274.18965499999996,,0.004011349613489351,274.35,0.8519999980926514,0.15928081718930104
274.655172,,0.0003431302150666862,274.815,0.7839999794960022,0.011860451709077896
275.12069,,0.0023472722881159765,275.283,0.7929999828338623,0.03221404959361558
275.586207,,0.0034994160555921593,275.748,0.7739999890327454,-0.008440817264151693
276.051724,,0.0036471606947526764,276.213,0.7649999856948853,-0.02733898721563275
276.517241,,0.003303043296625097,276.679,0.7940000295639038,0.03649981938739063
276.98275900000004,,0.002256100318962587,277.141,0.7749999761581421,-0.004308277820547509
277.448276,,0.00012940481805759558,277.604,0.7910000085830688,0.031047020692862748
277.913793,,0.0037824072094094934,278.075,0.8169999718666077,0.08808448172195438
278.37931,,0.007231018297091987,278.538,0.7860000133514404,0.020823381985500565
278.844828,,0.008443825420556703,279.009,0.7590000033378601,-0.03784887221153637
279.31034500000004,,0.006449466823720909,279.471,0.7609999775886536,-0.03347241704995435
279.77586199999996,,0.002100462678497105,279.929,0.7699999809265137,-0.01397850144983583
280.241379,,0.0024125156337062898,280.401,0.7870000004768372,0.02281552573268336
280.706897,,0.004707381444280203,280.859,0.7860000133514404,0.020272860255555747
281.172414,,0.0036816375913154425,281.324,0.7480000257492065,-0.06299017277148981
281.637931,,0.0005393861104473392,281.79,0.7879999876022339,0.023584788802324248
282.10344799999996,,0.0020887546469684493,282.256,0.765999972820282,-0.024995093215947655
282.568966,,0.0026229593237379585,282.722,0.7860000133514404,0.017870053461049425
283.034483,,0.0017459596106756939,283.19,0.7730000019073486,-0.011196790699917898
283.5,,0.000848596635619023,283.653,0.7689999938011169,-0.02066945687231982
283.965517,,0.0001360231498074894,284.116,0.7860000133514404,0.015619247553926453
284.431034,,0.0009030839260007776,284.579,0.7760000228881836,-0.006882388495733346
284.89655200000004,,0.0017994871655094451,285.049,0.765999972820282,-0.029329025121003417
285.362069,,0.00112758833508847,285.511,0.7910000085830688,0.02455277380086421
285.827586,,0.0015654151142639305,285.977,0.8569999933242798,0.1678547694735655
286.293103,,0.004612191485813065,286.44,0.7699999809265137,-0.022064367795028194
286.758621,,0.005555582344461718,286.905,0.7839999794960022,0.008182193671887189
287.22413800000004,,0.0035128841778660582,287.372,0.8119999766349792,0.06905923232352616
287.689655,,0.00011808551430890615,287.838,0.7680000066757202,-0.026792660164898008
288.155172,,0.0033003965383135575,288.305,0.7749999761581421,-0.011401102097306702
288.62069,,0.005261071843548779,288.771,0.765999972820282,-0.030740490727787208
289.086207,,0.006500096972140637,289.231,0.6690000295639038,-0.2416837754280195
289.55172400000004,,0.007402064286730871,289.697,0.7710000276565552,-0.01897255169843862
290.01724099999996,,0.007606391258910086,290.164,0.7699999809265137,-0.020571715357606053
290.482759,,0.006865205351807685,290.626,0.7870000004768372,0.01712016308687967
290.948276,,0.005902504612694026,291.09,0.7839999794960022,0.011294865502734605
291.413793,,0.0057893306987129725,291.56,0.7630000114440918,-0.033711920302287646
291.87931,,0.006490721827675899,292.023,0.7900000214576721,0.02586744344464933
292.344828,,0.006617215168047632,292.486,0.7720000147819519,-0.012604217445560745
292.81034500000004,,0.004905493371802421,292.952,0.7870000004768372,0.020785097254426416
293.275862,,0.001660701048329991,293.419,0.7870000004768372,0.021438727320206064
293.74137900000005,,0.0013495806583973984,293.885,0.7649999856948853,-0.025914177217254426
294.206897,,0.0022497544479124754,294.345,0.7940000295639038,0.03774982989774975
294.672414,,0.0006496826891069792,294.811,0.7710000276565552,-0.011985086363131352
295.13793100000004,,0.0017067860536675978,295.275,0.7689999938011169,-0.016089535104294606
295.603448,,0.0023935218092061097,295.741,0.7839999794960022,0.01671378083846944
296.068966,,0.0009262875540945219,296.205,0.7870000004768372,0.02324060231947679
296.534483,,0.0006487033401706366,296.671,0.7739999890327454,-0.005223662328164417
297.0,,0.0003096946163473653,297.134,0.7870000004768372,0.022828239002163152
297.46551700000003,,0.0015303225204446782,297.604,0.7699999809265137,-0.014600249957852744
297.931034,,0.002832536312620758,298.064,0.7599999904632568,-0.03688784938168617
298.396552,,0.0024606997424222675,298.534,0.7839999794960022,0.01480372295571009
298.862069,,0.0010657312544251904,299.005,0.7799999713897705,0.005416960791100042
299.327586,,0.00014117438159952348,299.46,0.781000018119812,0.006868153807496449
299.79310300000003,,0.0006131087348573191,299.926,0.7689999938011169,-0.020036751803917365
300.258621,,0.000485987319785727,300.391,0.7889999747276306,0.022764812056338044
300.724138,,0.00013029648912833076,300.856,0.7839999794960022,0.011113919116919904
301.189655,,4.19291439686086e-05,301.323,0.7900000214576721,0.023465500921281475
301.65517200000005,,0.000755912748507147,301.789,0.7570000290870667,-0.049091422493906994
302.12069,,0.002365828634009523,302.253,0.7839999794960022,0.009149122719627454
302.586207,,0.004211519247018676,302.718,0.7680000066757202,-0.026195331865991604
303.05172400000004,,0.005417354022429614,303.179,0.7689999938011169,-0.02439105172151519
303.517241,,0.005715568348019968,303.648,0.7839999794960022,0.00803785459987002
303.982759,,0.005440068329334784,304.112,0.7879999876022339,0.01663385537529037
304.448276,,0.004856841069636966,304.575,0.781000018119812,0.001401207811488241
304.913793,,0.0039816082125084,305.045,0.7860000133514404,0.012448399041517911
305.37931000000003,,0.0029691931057883674,305.508,0.765999972820282,-0.030839319649176782
305.844828,,0.002050890238924203,305.974,0.7789999842643738,-0.0021089580888093424
306.310345,,0.0009957322765302115,306.436,0.765999972820282,-0.02991332460452173
306.775862,,0.0007037407563003457,306.902,0.7839999794960022,0.009915169900784233
307.241379,,0.002760066027720616,307.371,0.7599999904632568,-0.041683444664718995
307.70689699999997,,0.003673673465496974,307.829,0.7620000243186951,-0.0365823950829123
308.172414,,0.001972547878942509,308.301,0.7979999780654907,0.04262499131819507
308.637931,,0.0020213147830422697,308.759,0.7839999794960022,0.012909946116026937
309.103448,,0.005946039581881177,309.224,0.7889999747276306,0.024575377829631703
309.568966,,0.0073319761314889565,309.689,0.7459999918937683,-0.06837270765304283
310.034483,,0.005956180885260843,310.16,0.7519999742507935,-0.05462942371390983
310.5,,0.003986676374211018,310.622,0.7720000147819519,-0.010468171982791784
310.96551700000003,,0.0035593147987784787,311.09,0.7710000276565552,-0.012159159321460968
311.431034,,0.004532760483014691,311.552,0.7870000004768372,0.023071804107452
311.896552,,0.004947734323617004,312.016,0.7699999809265137,-0.013718991876695459
312.362069,,0.003452009868744679,312.486,0.7549999952316284,-0.04628717492787086
312.827586,,0.0009154096051158968,312.944,0.734000027179718,-0.09206693068529874
313.29310300000003,,0.00040304776171940816,313.416,0.7630000114440918,-0.02905395166517023
313.758621,,0.0008201028042690959,313.874,0.7860000133514404,0.020753604323672206
314.224138,,0.0036824351007650503,314.342,0.7910000085830688,0.031222434054929
314.689655,,0.006193966968552281,314.807,0.765999972820282,-0.023778360140487415
315.155172,,0.007289802187667007,315.271,0.7829999923706055,0.012629783237226399
315.62068999999997,,0.007148836278498779,315.737,0.7720000147819519,-0.012039685617186513
316.086207,,0.005913624993512317,316.201,0.7739999890327454,-0.008440942489094817
316.551724,,0.0033448266007308825,316.667,0.7950000166893005,0.03652144281809208
317.017241,,3.7886301921737526e-06,317.135,0.7870000004768372,0.018296782760108356
317.482759,,0.0026805319884107455,317.597,0.765999972820282,-0.028232552732690566
317.94827599999996,,0.004180663778935056,318.06,0.7860000133514404,0.014603794588974688
318.413793,,0.005571395582994751,318.53,0.7979999780654907,0.040074750671079656
318.87931000000003,,0.007331727717417958,318.989,0.7900000214576721,0.022058075727580975
319.344828,,0.008016809390136215,319.459,0.7879999876022339,0.01721614288717164
319.810345,,0.006359490031451331,319.925,0.7699999809265137,-0.02236685768926254
320.275862,,0.0034738905674996574,320.39,0.7699999809265137,-0.022606356732430333
320.741379,,0.0016008132383530233,320.855,0.7960000038146973,0.03393441491018626
321.20689699999997,,0.0015238644518853174,321.32,0.7860000133514404,0.012183204878929961
321.672414,,0.002352688779634571,321.786,0.7689999938011169,-0.02468034855123077
322.137931,,0.0031885949796091966,322.245,0.7910000085830688,0.023556188353848987
322.603448,,0.004022418880757363,322.711,0.8379999995231628,0.12638378903508452
323.068966,,0.0052774688567425775,323.179,0.7490000128746033,-0.06697249974684646
323.53448299999997,,0.0069926031412814865,323.641,0.8199999928474426,0.0883497483990149
324.0,,0.008330365479313777,324.104,0.7689999938011169,-0.022047811894348852
324.465517,,0.007982785804663769,324.575,0.7789999842643738,0.0005054331172340549
324.931034,,0.0055414027226546375,325.038,0.800000011920929,0.04705356721089363
325.396552,,0.00223817441914461,325.5,0.7739999890327454,-0.008789055818451937
325.86206899999996,,0.000323655082540165,325.967,0.800000011920929,0.048639468868592335
326.327586,,0.0018595746554572001,326.43,0.7630000114440918,-0.031229813210799456
326.793103,,0.0030616827248503282,326.896,0.7870000004768372,0.02173254033419636
327.258621,,0.003939225606753339,327.36,0.7950000166893005,0.03975034243521375
327.724138,,0.0034568450438003874,327.825,0.7879999876022339,0.024984687575610905
328.189655,,0.0008459545681323012,328.291,0.75,-0.057438322386249095
328.655172,,0.0031628883622240363,328.756,0.7710000276565552,-0.011452708951501576
329.12068999999997,,0.006252045238658432,329.22,0.7699999809265137,-0.01353638433486391
329.586207,,0.0057160565939463675,329.685,0.7870000004768372,0.023454686270515644
330.051724,,0.000788947165644423,330.149,0.7680000066757202,-0.018125060486452745
330.517241,,0.005662149790063094,330.619,0.765999972820282,-0.022802032808219797
330.982759,,0.008778747081397947,331.079,0.7850000262260437,0.018148352578409542
331.44827599999996,,0.0060838571448340525,331.549,0.7870000004768372,0.021951373779043975
331.913793,,9.725794918742116e-05,332.012,0.7599999904632568,-0.037519664544126946
332.37931,,0.005109610052319522,332.474,0.7879999876022339,0.02276111679598434
332.844828,,0.006464230758405337,332.94,0.8050000071525574,0.05902583633047373
333.310345,,0.005435139831842217,333.405,0.7620000243186951,-0.03545540041797076
333.77586199999996,,0.004656554209157016,333.871,0.7829999923706055,0.009493330771148164
334.241379,,0.0050137908306628004,334.337,0.765999972820282,-0.028325871015252364
334.706897,,0.005288364272681957,334.803,0.7870000004768372,0.016688463959403307
335.17241399999995,,0.0044014972487544015,335.268,0.7770000100135803,-0.005767780623358515
335.637931,,0.003021539666199968,335.734,0.7699999809265137,-0.021600208034789736
336.103448,,0.0024366493452999587,336.201,0.7649999856948853,-0.032970054227074656
336.56896600000005,,0.0024454751976327647,336.659,0.7630000114440918,-0.0376844499093646
337.034483,,0.0013481696006719215,337.127,0.7649999856948853,-0.03355405077159505
337.5,,0.0018285678878331693,337.589,0.7870000004768372,0.014287214147327433
337.965517,,0.005796391892851567,338.06,0.7879999876022339,0.01651829535595219
338.431034,,0.008175417618486036,338.522,0.7689999938011169,-0.024683459130437672
338.89655200000004,,0.007893912508924135,338.988,0.7870000004768372,0.014858765040767724
339.36206899999996,,0.005947307206801018,339.452,0.7699999809265137,-0.021727738096389046
339.827586,,0.003920343283046906,339.917,0.7950000166893005,0.033299660194465654
340.293103,,0.0022872050484197574,340.382,0.7860000133514404,0.014346752554732162
340.758621,,0.00041146432105187985,340.848,0.7699999809265137,-0.019783090141902653
341.224138,,0.0019469049321733346,341.316,0.7710000276565552,-0.016825093068287975
341.68965499999996,,0.0036225529947667983,341.774,0.7699999809265137,-0.01819810154499618
342.155172,,0.003051166356932076,342.245,0.7950000166893005,0.037076229180987415
342.62069,,0.00010439986134447583,342.704,0.781000018119812,0.007361348142598129
343.086207,,0.0037465773882911736,343.175,0.7900000214576721,0.027709583653955934
343.551724,,0.006987871547500493,343.637,0.777999997138977,0.0022374057594650135
344.01724099999996,,0.008944313772695963,344.105,0.7620000243186951,-0.032039231230015584
344.48275900000004,,0.009171748878469733,344.567,0.7699999809265137,-0.014137018982434281
344.948276,,0.007234887519459629,345.035,0.8040000200271606,0.06028771248927727
345.413793,,0.0037973948095583066,345.497,0.7760000228881836,-0.0004963810178884182
345.87931,,0.0010568999078914914,345.963,0.7749999761581421,-0.00259679399291795
346.344828,,0.0008945438757749938,346.429,0.7820000052452087,0.012589431629536874
346.81034500000004,,0.002614435656243252,346.894,0.7620000243186951,-0.031188918893999478
347.275862,,0.003394563272157544,347.356,0.7699999809265137,-0.014100558183075602
347.741379,,0.0013303186986716603,347.822,0.7870000004768372,0.02247103125880408
348.206897,,0.0023606079801462296,348.286,0.7870000004768372,0.021895759641103314
348.672414,,0.004504078992604338,348.752,0.7639999985694885,-0.028880784975295316
349.13793100000004,,0.003307503834707599,349.217,0.765999972820282,-0.02526390890983049
349.60344799999996,,0.00029124707238858207,349.682,0.7870000004768372,0.01969736553009574
350.068966,,0.0014169121701527473,350.145,0.7649999856948853,-0.029048771813483795
350.534483,,0.0006194771646763659,350.615,0.7990000247955322,0.044209415645304756
351.0,,0.0008125698522737803,351.079,0.7850000262260437,0.012917876622751763
351.465517,,0.0006217426908782213,351.541,0.765999972820282,-0.0292174600785662
351.93103399999995,,0.0009434331794118089,352.005,0.7820000052452087,0.004971789940512346
352.396552,,0.0017758169876106473,352.475,0.7879999876022339,0.017467078453586037
352.862069,,0.0007309951723690968,352.941,0.75,-0.06578789709808423
353.32758600000005,,0.001376842675822809,353.405,0.7720000147819519,-0.018200150050094864
353.793103,,0.003265074652816964,353.87,0.7710000276565552,-0.020586815114207853
354.258621,,0.004454531699195137,354.335,0.7820000052452087,0.0033119139242536524
354.72413800000004,,0.004944654225195371,354.794,0.7860000133514404,0.012104555211264722
355.189655,,0.004563206640956177,355.261,0.7829999923706055,0.005789084126424712
355.655172,,0.003124878792739613,355.727,0.781000018119812,0.0017881975802345779
356.12069,,0.0009477028275612172,356.19,0.7990000247955322,0.04148551159248805
356.586207,,0.0010654068251452695,356.66,0.7889999747276306,0.020291566454326632
357.05172400000004,,0.0018991117767444107,357.123,0.7820000052452087,0.005726496179825225
357.517241,,0.001125051092809863,357.586,0.7950000166893005,0.03480589365034189
357.982759,,0.0006754970047603451,358.049,0.765999972820282,-0.0275700227782845
358.448276,,0.0022373967376146556,358.519,0.7620000243186951,-0.035457118843287755
358.913793,,0.002474189958597602,358.985,0.7689999938011169,-0.019382906986866833
359.37931000000003,,0.0010110455040423887,359.448,0.8309999704360962,0.116489358359536
359.844828,,0.0018221292155472981,359.914,0.9440000057220459,0.36342520101891973
360.310345,,0.004907986647960541,360.379,0.796999990940094,0.043843853416703694
360.775862,,0.00643090430057795,360.844,0.8130000233650208,0.07928968613635154
361.241379,,0.005202143307914663,361.309,0.7609999775886536,-0.03352733984591756
361.706897,,0.0024093017475396413,361.775,0.7739999890327454,-0.004863159820150871
362.172414,,0.0010679348135480464,362.234,0.8140000104904175,0.08248260238574587
362.63793100000004,,0.002706437073871251,362.701,0.7829999923706055,0.014996671919552024
363.103448,,0.005053927629083203,363.171,0.7739999890327454,-0.0047091635250643225
363.568966,,0.004230481588256153,363.634,0.7760000228881836,-0.0005983223155009649
364.034483,,0.0006859043793109255,364.097,0.7900000214576721,0.029515077399414908
364.5,,0.0063686140270500825,364.56,0.777999997138977,0.0028544009034118063
364.96551700000003,,0.008865760175129984,365.031,0.7689999938011169,-0.017384029361481635
365.431034,,0.00752631428919927,365.493,0.7990000247955322,0.04725056299828502
365.896552,,0.0047986229672872,365.958,0.7820000052452087,0.009417194163040663
366.362069,,0.003148668618201757,366.422,0.781000018119812,0.00639555192092788
366.827586,,0.0031346707287093992,366.888,0.7860000133514404,0.01642500925025784
367.29310300000003,,0.003869373050921861,367.352,0.7649999856948853,-0.030184471429529697
367.758621,,0.0042016483807197896,367.818,0.7870000004768372,0.016920653425926486
368.224138,,0.0035261200114466013,368.283,0.7850000262260437,0.011797177462039926
368.689655,,0.0023347045298907996,368.748,1.031999945640564,0.5492452428273197
369.155172,,0.0020063027060469502,369.213,0.7630000114440918,-0.03737571471466834
369.62068999999997,,0.003216438434850957,369.679,0.8069999814033508,0.05804703499818546
370.086207,,0.0044560827153843924,370.142,0.7200000286102295,-0.13179776202958157
370.55172400000004,,0.0031174832869306055,370.604,0.8109999895095825,0.06630091649981576
371.017241,,0.001412922716293405,371.075,0.7760000228881836,-0.009959729698498126
371.482759,,0.0064464939438981135,371.537,0.7910000085830688,0.022863457466848324
371.948276,,0.008542125084883102,372.008,0.7950000166893005,0.03186880776273076
372.413793,,0.007135304809622924,372.471,0.7649999856948853,-0.03306163670951757
372.87931000000003,,0.004911712268449551,372.929,0.7699999809265137,-0.02161493639684965
373.344828,,0.004428358544112219,373.394,0.7879999876022339,0.018261672809409938
373.810345,,0.00504375794350926,373.86,0.7639999985694885,-0.03327741604882728
374.275862,,0.003962162290264876,374.327,0.7850000262260437,0.013287219898208937
374.741379,,0.000149622360508304,374.792,0.7720000147819519,-0.014182665890791852
375.20689699999997,,0.003942603212310215,375.257,0.7620000243186951,-0.03510337937382839
375.672414,,0.005232010314089215,375.723,0.7789999842643738,0.0027855996686474765
376.137931,,0.0036796623850038042,376.186,0.7739999890327454,-0.00729518615300257
376.603448,,0.0019649020841660298,376.656,0.7720000147819519,-0.01090448115716632
377.068966,,0.001986678249628074,377.119,0.7870000004768372,0.022435718172414555
377.53448299999997,,0.002954391811601918,377.582,0.7689999938011169,-0.016227168994144888
378.0,,0.002791015522539913,378.045,0.7889999747276306,0.027773755581982317
378.465517,,0.0003146656753501406,378.515,0.7879999876022339,0.02588534520257315
378.931034,,0.0038544108286662888,378.974,0.7820000052452087,0.01295701854222766
379.396552,,0.00748586469193824,379.444,0.7879999876022339,0.026020930682621336
379.862069,,0.007936167517060425,379.91,0.7200000286102295,-0.12228773974168565
380.327586,,0.004339225428244796,380.376,0.7879999876022339,0.025550558141656344
380.79310300000003,,0.0011030297521857561,380.834,0.7820000052452087,0.012030264615636683
381.258621,,0.00479033160940194,381.301,0.8069999814033508,0.06592445316101235
381.724138,,0.004939917915236201,381.767,0.7860000133514404,0.01949517336049493
382.189655,,0.002688852851910386,382.234,0.7689999938011169,-0.01830534684929881
382.655172,,0.0001593738485380541,382.7,0.7710000276565552,-0.014774849830449422
383.12068999999997,,0.0016382771076665042,383.16,0.5540000200271606,-0.48841107326170047
383.586207,,0.002640691171813486,383.63,0.7910000085830688,0.027040130008599474
384.051724,,0.0024315202640176506,384.093,0.7149999737739563,-0.13941422178521984
384.517241,,0.00038903324730196753,384.556,0.7870000004768372,0.01661375517465161
384.982759,,0.0027286283116537626,385.019,0.7870000004768372,0.01584856040991239
385.44827599999996,,0.004565182565331633,385.49,0.7699999809265137,-0.021858920498019012
385.913793,,0.0035218209772287516,385.955,0.7870000004768372,0.014623428423051034
386.37931,,0.0007719816095075758,386.419,0.7910000085830688,0.022916976390862015
386.84482799999995,,0.0010984556937731391,386.885,0.7850000262260437,0.009571499668160642
387.310345,,0.0012146313874816222,387.35,0.7570000290870667,-0.05154871039115671
387.775862,,0.0011399019431639766,387.815,0.7919999957084656,0.024744923918228936
388.241379,,0.0023299438020700385,388.275,0.765999972820282,-0.031700723669453416
388.70689699999997,,0.003807590802311704,388.741,0.7900000214576721,0.020938696983585914
389.172414,,0.0031853107078911734,389.206,0.7839999794960022,0.008360426498369761
389.637931,,0.00028171605722505136,389.671,0.7990000247955322,0.04166122542945532
390.103448,,0.00461578651665482,390.134,0.7919999957084656,0.02713986305492857
390.56896600000005,,0.007310977979491304,390.604,0.765999972820282,-0.028690740174964088
391.03448299999997,,0.007698122773492615,391.068,0.7620000243186951,-0.03653245012344172
391.5,,0.006591148172765921,391.53,0.7760000228881836,-0.005127827668565116
391.965517,,0.004593288252539713,391.996,0.7910000085830688,0.028458612208074538
392.431034,,0.0019623904862979304,392.461,0.765999972820282,-0.025125844502552768
392.896552,,0.0003684129824922138,392.927,0.7870000004768372,0.021454859635192267
393.36206899999996,,0.0012280743110786878,393.394,0.7919999957084656,0.03309858694458031
393.827586,,0.0010127323509991502,393.86,0.7860000133514404,0.020675491845576006
394.293103,,0.0017664781798450338,394.319,0.7850000262260437,0.01902320255074857
394.75862099999995,,0.004454169415543687,394.785,0.7839999794960022,0.01723141931425631
395.224138,,0.006801728209433222,395.249,0.7850000262260437,0.019645298564626587
395.68965499999996,,0.005315769209324573,395.715,0.7649999856948853,-0.023852549350435966
396.155172,,0.00017095954851426004,396.183,0.7699999809265137,-0.013047332345355156
396.62069,,0.005285418234792401,396.645,0.7820000052452087,0.012847715387380818
397.086207,,0.005620313144006059,397.113,0.7870000004768372,0.02333950893407331
397.551724,,0.0015933622374393963,397.576,0.7580000162124634,-0.04038320275301413
398.017241,,0.0027139463092706985,398.046,0.7870000004768372,0.022131485349091314
398.48275900000004,,0.0048503872234929605,398.508,0.7699999809265137,-0.015674981480675088
398.94827599999996,,0.0059377115537087724,398.974,0.7829999923706055,0.011798936884385897
399.413793,,0.007369905016983854,399.436,0.765999972820282,-0.02613948896413678
399.87931,,0.008129132537008407,399.902,0.7850000262260437,0.014329006907522493
400.344828,,0.006537237145375793,400.367,0.7829999923706055,0.009050487806368033
400.810345,,0.0029370223082154155,400.833,0.765999972820282,-0.02887399717040045
401.27586199999996,,0.0006757805938886857,401.298,0.9150000214576721,0.2949212551832567
401.741379,,0.002563072128844907,401.764,0.7839999794960022,0.008787090956633938
402.206897,,0.0019063633943005398,402.224,0.7739999890327454,-0.013617173242703118
402.672414,,0.0011417296801668414,402.689,0.7919999957084656,0.025110862561231448
403.137931,,0.004958489969878786,403.16,0.7820000052452087,0.002982495175198209
403.60344799999996,,0.006940169179290523,403.622,0.7639999985694885,-0.03641889540631831
404.068966,,0.005606854915370258,404.09,0.7699999809265137,-0.02337131015915037
404.534483,,0.001976371909281016,404.552,0.7609999775886536,-0.0428413330193534
405.0,,0.001540953828656218,405.02,0.7910000085830688,0.02281441920982785
405.465517,,0.0032983436917494117,405.482,0.7820000052452087,0.003652967161121715
405.931034,,0.003450712819750506,405.948,0.7910000085830688,0.023844131923380776
406.39655200000004,,0.003455296166056183,406.415,0.765999972820282,-0.029920211305548665
406.862069,,0.004681791448695036,406.874,0.7950000166893005,0.034059409783758106
407.327586,,0.006949866896321735,407.345,0.7990000247955322,0.043645402617026645
407.793103,,0.008332747100391726,407.811,0.765999972820282,-0.02733306565897032
408.258621,,0.007089855597522347,408.275,0.765999972820282,-0.026400011143410784
408.72413800000004,,0.004019112598226638,408.734,0.8159999847412109,0.08345275303066035
409.18965499999996,,0.0020692703355401558,409.201,0.7649999856948853,-0.02677866729932845
409.655172,,0.002978896669346866,409.667,0.7860000133514404,0.01978402336196869
410.12069,,0.00492203153833555,410.134,0.7870000004768372,0.022679364529058013
410.586207,,0.004512444788207346,410.597,0.7580000162124634,-0.03990163499805133
411.05172400000004,,0.001010377116499621,411.06,0.7919999957084656,0.034635908064464656
411.51724099999996,,0.0025991498869129864,411.53,0.8420000076293945,0.14388259680941307
411.982759,,0.0031032140354316407,411.989,0.7860000133514404,0.022034499853414668
412.448276,,0.0007109315388240172,412.46,0.7889999747276306,0.02856229527270439
412.913793,,0.0014483016130993397,412.925,0.7699999809265137,-0.013005885856336732
413.37931,,0.0008696287103818826,413.39,0.7730000019073486,-0.006805155085926938
413.844828,,0.0019819021569342297,413.855,0.8019999861717224,0.05588932191079187
414.31034500000004,,0.004546436096066755,414.32,0.7870000004768372,0.022587900967527785
414.775862,,0.004784941605033009,414.786,0.7889999747276306,0.0262070966961523
415.241379,,0.0029843177488393436,415.245,0.7889999747276306,0.025375218871224486
415.706897,,0.0012280581826273162,415.711,0.753000020980835,-0.0539567122025173
416.172414,,0.0010269859504271717,416.179,0.7699999809265137,-0.01786232155924652
416.63793100000004,,0.0016659591905578883,416.641,0.7720000147819519,-0.014460078683787826
417.103448,,0.0014361798223313648,417.104,0.7850000262260437,0.012925161345432756
417.568966,,0.0003376389024162621,417.574,0.7870000004768372,0.016393024342939
418.034483,,0.0004908183534845063,418.038,0.765999972820282,-0.030172309133082095
418.5,,0.0032916990450891164,418.5,0.7860000133514404,0.012688174627414818
418.96551700000003,,0.006910558694522511,418.966,0.7739999890327454,-0.014044468225360342
419.43103399999995,,0.007765648956710972,419.43,0.765999972820282,-0.03192011677583289
419.896552,,0.004665648715105918,419.896,0.7990000247955322,0.03968590542762468
420.362069,,0.0005149589366821273,420.36,0.8109999895095825,0.0657078893504149
420.827586,,0.0009814668591170911,420.825,0.7839999794960022,0.00693528242027565
421.293103,,0.00021747930675753208,421.29,0.765999972820282,-0.032059022445328676
421.758621,,0.000656559895915641,421.756,0.7879999876022339,0.016255927031955462
422.22413800000004,,0.001899114900858015,422.223,0.7720000147819519,-0.01806590327799685
422.689655,,0.005435865043046748,422.689,0.7900000214576721,0.02182197328911599
423.15517200000005,,0.006233697482023168,423.151,0.7860000133514404,0.013894886339268376
423.62069,,0.003343555824248575,423.62,0.7990000247955322,0.043096361683884726
424.086207,,0.0006101611105390457,424.083,0.7860000133514404,0.015717307753387044
424.55172400000004,,0.0025135170044206325,424.545,0.7720000147819519,-0.013805837814438036
425.017241,,0.0015962729646050724,425.009,0.7829999923706055,0.01114062377550434
425.482759,,0.0005938415267156456,425.478,0.7839999794960022,0.014273480242745863
425.948276,,0.0021166963127718158,425.944,0.6919999718666077,-0.18526660341522713
426.413793,,0.0022290184197676552,426.409,0.7730000019073486,-0.0079889338454506
426.87931000000003,,0.001410875183278123,426.875,0.7860000133514404,0.021028069150927885
427.344828,,0.00030721572070879365,427.334,0.7630000114440918,-0.028519123216578526
427.810345,,0.0009187738484802211,427.8,0.7990000247955322,0.050323491734208255
428.275862,,0.0020975405394622116,428.264,0.7720000147819519,-0.008252112503544925
428.741379,,0.0024847306357466082,428.729,0.7889999747276306,0.028861395380250253
429.20689699999997,,0.0013972315743720322,429.202,0.7689999938011169,-0.01480941846113937
429.672414,,0.0005909580420012229,429.66,0.6959999799728394,-0.17412230866219705
430.137931,,0.0018348831296491528,430.131,0.7739999890327454,-0.00462626444362989
430.603448,,0.0014563544847625424,430.593,0.7910000085830688,0.03182032070492498
431.068966,,0.0005044690773655565,431.057,0.6399999856948853,-0.2978806576923271
431.534483,,0.0006604834300796693,431.519,0.7910000085830688,0.030256124963247477
432.0,,0.0020690973858702067,431.985,0.8069999814033508,0.06419008409066816
432.46551700000003,,0.0031473835025942897,432.455,0.7689999938011169,-0.019576336492565894
432.931034,,0.0025641477629232377,432.914,0.7739999890327454,-0.009684694859773737
433.396552,,0.00090127781634896,433.379,0.7950000166893005,0.03507283528289527
433.862069,,0.00011251411158610402,433.845,0.7590000033378601,-0.044313927399638436
434.327586,,0.0014413209642180503,434.312,0.7459999918937683,-0.07352417406862864
434.79310300000003,,0.004012849348568329,434.778,0.8029999732971191,0.04986640193918863
435.258621,,0.005621713537797662,435.242,0.7689999938011169,-0.02487840538755543
435.724138,,0.004952507122506541,435.708,0.7889999747276306,0.018166714903652712
436.189655,,0.0028131471313408295,436.171,0.7760000228881836,-0.010523917348352676
436.655172,,0.0010793429016225744,436.641,0.7710000276565552,-0.021614421498844183
437.12068999999997,,0.000788235414520384,437.101,0.7850000262260437,0.008866613216292202
437.586207,,0.0015645555535996002,437.564,0.765999972820282,-0.03236978873121083
438.051724,,0.002567677630781656,438.034,0.7649999856948853,-0.0342174959563515
438.517241,,0.0034617466463240393,438.497,0.7910000085830688,0.022921125129391585
438.982759,,0.004431961017683241,438.963,0.7649999856948853,-0.03308215265114522
439.448276,,0.00562203551198798,439.428,0.7910000085830688,0.02433245108273453
439.913793,,0.006744906326943719,439.894,0.7820000052452087,0.005598633953989161
440.37931000000003,,0.007042928682975744,440.354,0.7730000019073486,-0.013058133342024332
440.844828,,0.005466222435866229,440.82,0.7730000019073486,-0.012060255041534141
441.310345,,0.0013349810138228169,441.286,0.7910000085830688,0.028169035783065403
441.775862,,0.004408897735903526,441.752,0.7699999809265137,-0.01658486131368862
442.241379,,0.008727245309901576,442.219,0.699999988079071,-0.16814137948643
442.70689699999997,,0.008583441661470476,442.685,0.6389999985694885,-0.3001728735854249
443.172414,,0.004355309428024299,443.145,0.7710000276565552,-0.01183604851106179
443.637931,,0.000195436901198802,443.615,0.7860000133514404,0.021468320070184243
444.103448,,0.00016583750673391712,444.079,0.7870000004768372,0.02412491470474413
444.568966,,0.0026642944143930045,444.541,0.7820000052452087,0.013548389445188389
445.03448299999997,,0.005081074719521479,445.009,0.7749999761581421,-0.0015568978710351592
445.5,,0.0049792128013812584,445.471,0.7680000066757202,-0.01683846529309506
445.965517,,0.0035955057699189243,445.937,0.7910000085830688,0.03306393826159493
446.431034,,0.003399198035196848,446.404,0.7929999828338623,0.03704633126472667
446.896552,,0.005521817513123388,446.87,0.7739999890327454,-0.004879452533292421
447.36206899999996,,0.009049349846342904,447.334,0.7850000262260437,0.018413611244660996
447.827586,,0.011633695756722837,447.799,0.7720000147819519,-0.010701163865002302
448.29310300000003,,0.01092914133142656,448.259,0.7879999876022339,0.023269177882194146
448.758621,,0.006746488142911346,448.724,0.7699999809265137,-0.016902743638816074
449.224138,,0.0020456570752052294,449.194,0.7889999747276306,0.023496650655716003
449.689655,,0.0005593767600116535,449.656,0.5989999771118164,-0.3914527470467433
450.155172,,0.0027956168093147995,450.123,0.7919999957084656,0.028037508170696033
450.62068999999997,,0.005346153265505653,450.586,0.7889999747276306,0.02056387628463724
451.086207,,0.004836074784429633,451.05,0.7649999856948853,-0.032577443389800856
451.551724,,0.0015901729123694156,451.52,0.7730000019073486,-0.01589212291101041
452.017241,,0.0014858062531702921,451.985,0.7630000114440918,-0.03828960716719388
452.482759,,0.002595070170630134,452.448,0.7870000004768372,0.013539323714670448
452.94827599999996,,0.0021945626587550515,452.914,0.7649999856948853,-0.03468240140534654
453.413793,,0.0011339932436381674,453.379,0.8550000190734863,0.16128253772292755
453.87931,,0.0005158442437750608,453.844,0.777999997138977,-0.006403977287590477
454.344828,,0.002515224139739717,454.309,0.5879999995231628,-0.42010151790641104
454.810345,,0.0036199533317921627,454.775,0.7630000114440918,-0.038428557479369886
455.27586199999996,,0.002384619588350734,455.234,0.7870000004768372,0.014422838906910356
455.741379,,0.0014367485868536402,455.701,0.7990000247955322,0.04127227214873842
456.206897,,0.0062771534943233094,456.164,0.753000020980835,-0.058119854874158404
456.672414,,0.009423778971051941,456.633,0.7870000004768372,0.01687376817167467
457.137931,,0.008917176275055361,457.097,0.7910000085830688,0.026573872433151065
457.603448,,0.005484404657127093,457.56,0.7760000228881836,-0.00508451778984244
458.06896600000005,,0.0022799782564470587,458.03,0.7820000052452087,0.009012319903384781
458.53448299999997,,0.0019726892967538772,458.493,0.8600000143051147,0.17994502326052442
459.0,,0.0041013204961638135,458.959,0.7990000247955322,0.047989135338395855
459.465517,,0.005809638507236544,459.423,0.7910000085830688,0.031414551410301195
459.931034,,0.005145217749134791,459.889,0.7649999856948853,-0.024491864279134884
460.39655200000004,,0.0030343966975038485,460.352,0.4169999957084656,-0.7820706193199572
460.86206899999996,,0.0017104453007500096,460.818,0.7929999828338623,0.03751996147253443
461.327586,,0.0017548529751056068,461.282,0.7680000066757202,-0.016706414389883874
461.793103,,0.0016949416231477903,461.748,0.7870000004768372,0.024748089882097164
462.258621,,0.0005681273930757686,462.212,0.7910000085830688,0.033341789191148
462.724138,,0.0005997277326479553,462.677,0.7120000123977661,-0.13907066801061788
463.18965499999996,,0.0007645607544202771,463.145,0.765999972820282,-0.021893649307828826
463.655172,,0.0007956497745482171,463.608,0.8510000109672546,0.1626677214575258
464.12069,,0.001771029122217199,464.075,0.8930000066757202,0.2534175795926627
464.58620699999994,,0.002430538793311634,464.537,0.7889999747276306,0.025979640104259065
465.051724,,0.0004390216727569204,465.005,0.7860000133514404,0.018503734535066273
465.517241,,0.004055722992162582,465.468,0.7689999938011169,-0.019528595299674545
465.98275900000004,,0.007895014519138852,465.934,0.7870000004768372,0.01866685165517769
466.448276,,0.008190181798027689,466.401,0.7850000262260437,0.013296018518516046
466.913793,,0.005034115257924122,466.859,0.7879999876022339,0.01885643061058718
467.37931,,0.0009120443130085699,467.33,0.7820000052452087,0.0048772165650349895
467.844828,,0.0014305668734849995,467.789,0.7789999842643738,-0.002470356530802015
468.31034500000004,,0.0004750808323140756,468.256,0.652999997138977,-0.2776735299195146
468.77586199999996,,0.0030984606688983347,468.722,0.7739999890327454,-0.014613265080013546
469.241379,,0.006083411441488129,469.19,0.7599999904632568,-0.045514212541735134
469.706897,,0.004722361508792974,469.653,0.777999997138977,-0.006527207061355685
470.172414,,0.0015245779269244433,470.116,0.7910000085830688,0.021745827644724765
470.63793100000004,,0.00848889904822797,470.586,0.7649999856948853,-0.034767003063168066
471.10344799999996,,0.010631100880717554,471.049,0.7310000061988831,-0.10853244525857002
471.568966,,0.006259672899608736,471.512,0.7720000147819519,-0.018732826734473906
472.034483,,0.0007594409309268429,471.977,0.8199999928474426,0.086471251015928
472.5,,0.0047244969763830195,472.44,0.7599999904632568,-0.04348231474435396
472.965517,,0.003486162566646938,472.906,0.7889999747276306,0.020576219159351504
473.43103399999995,,0.00013215618368661727,473.372,0.7689999938011169,-0.02203387233949751
473.89655200000004,,0.002134563854587598,473.838,0.7820000052452087,0.007307070253709343
474.362069,,0.0018239623396753219,474.305,0.7870000004768372,0.019243295985696036
474.827586,,0.0019806586166275708,474.764,0.7889999747276306,0.024636341747373662
475.293103,,0.004957533705489125,475.231,0.7940000295639038,0.03652653611522984
475.758621,,0.009461093662624228,475.696,0.7760000228881836,-0.0017623813072937377
476.22413800000004,,0.011688747988218081,476.164,0.753000020980835,-0.0510444877673966
476.689655,,0.00935191970653637,476.626,0.6370000243186951,-0.3030701524623382
477.155172,,0.004036773756152168,477.094,0.7889999747276306,0.028629105185348863
477.62069,,0.0005196065184337323,477.557,0.7820000052452087,0.013756713068721409
478.086207,,0.0021911284342001477,478.019,0.6679999828338623,-0.23440926359009862
478.55172400000004,,0.0020966735002679623,478.489,0.7649999856948853,-0.023067119586425478
479.01724099999996,,0.0023948903372017372,478.955,0.7879999876022339,0.02686948687388021
479.482759,,0.0032482632513101636,479.419,0.8040000200271606,0.06137836012079257
479.948276,,0.003029336137534362,479.885,0.7870000004768372,0.02382583959320614
480.413793,,0.0011532268507347804,480.349,0.7870000004768372,0.023159946435110657
480.87931000000003,,0.0008979792833156612,480.815,0.7699999809265137,-0.014673784830469523
481.344828,,0.0017301721578784253,481.275,0.7870000004768372,0.02145990309436317
481.810345,,0.0017120363423063806,481.741,0.7699999809265137,-0.016559688338177683
482.275862,,0.0016870411131508591,482.205,0.7649999856948853,-0.028484905005810437
482.74137900000005,,0.001358629889000393,482.67,0.7889999747276306,0.022752755725810356
483.206897,,0.00029958258808157617,483.138,0.7870000004768372,0.017360657170305157
483.672414,,0.0003009635718943594,483.601,0.7699999809265137,-0.02066443798638907
484.13793100000004,,0.0013331803919650164,484.064,0.7850000262260437,0.01110415170846128
484.603448,,0.004720958891200077,484.534,0.7889999747276306,0.019012462218147272
485.068966,,0.006775950413688758,485.005,0.796999990940094,0.035765948332430915
485.534483,,0.004954215966195716,485.46,0.7879999876022339,0.015633766103828706
486.0,,4.114789391526419e-05,485.925,0.7739999890327454,-0.015224568378021483
486.46551700000003,,0.005057242712346331,486.39,0.7599999904632568,-0.045905773362742895
486.931034,,0.007231204419567172,486.855,0.7870000004768372,0.012920102923522662
487.396552,,0.005882977182789773,487.323,0.753000020980835,-0.060969010835564254
487.862069,,0.0028195797772796174,487.788,0.7850000262260437,0.009109579275881633
488.327586,,0.0010638836050831254,488.253,0.7960000038146973,0.03360319695401984
488.79310300000003,,0.002254360862299067,488.719,0.7710000276565552,-0.020183236461492633
489.258621,,0.004844660724584217,489.182,0.7870000004768372,0.015484929188801854
489.724138,,0.005482989789687535,489.645,0.7720000147819519,-0.016279701964079563
490.189655,,0.002418921082623609,490.112,0.7649999856948853,-0.03053833014060952
490.655172,,0.002812973208710724,490.575,0.7860000133514404,0.016251789836092767
491.12069,,0.0070065034764524225,491.045,0.7850000262260437,0.015126935109183124
491.586207,,0.008090274379723636,491.508,0.7599999904632568,-0.03830261769203451
492.05172400000004,,0.00638647148112875,491.974,0.7900000214576721,0.028044533615213828
492.517241,,0.003702267761882848,492.436,0.7649999856948853,-0.025513392157424243
492.982759,,0.0015735700942466739,492.902,0.7919999957084656,0.0341115900765306
493.448276,,0.0002399881159803846,493.367,0.7879999876022339,0.026067308509293185
493.913793,,0.0010054959443127596,493.833,0.7739999890327454,-0.00391508791313832
494.37931000000003,,0.0026076573384588536,494.298,0.7599999904632568,-0.03406602118564187
494.844828,,0.003973858911102269,494.764,0.7860000133514404,0.022749340904412104
495.310345,,0.004134229891344955,495.231,0.7870000004768372,0.02491402114657136
495.775862,,0.0031219124118505967,495.689,0.7699999809265137,-0.012320915050529258
496.241379,,0.0020175331921405085,496.157,0.7879999876022339,0.026518602798010417
496.70689699999997,,0.001245217812716973,496.619,0.7710000276565552,-0.011061490182144118
497.172414,,0.00023729712007331346,497.09,0.765999972820282,-0.022648904776010923
497.637931,,0.0029297244071028418,497.552,0.7960000038146973,0.041886830948241735
498.103448,,0.004680461027531311,498.016,0.7680000066757202,-0.020043316891845884
498.568966,,0.0024663346225654594,498.486,0.7409999966621399,-0.07987170169023677
499.03448299999997,,0.0034183716512725254,498.944,0.765999972820282,-0.026457575575773704
499.5,,0.008621024984600654,499.409,0.7720000147819519,-0.014452085557068952
499.96551700000003,,0.009161499573630704,499.875,0.7900000214576721,0.023716448109563717
500.431034,,0.005631761304662302,500.342,0.8100000023841858,0.06629490407182344
500.89655200000004,,0.0020235481294091336,500.807,0.7870000004768372,0.015275393508106685
501.362069,,0.0011128070274285691,501.272,0.8029999732971191,0.04933486296565269
501.827586,,0.002190543976090173,501.738,0.7680000066757202,-0.027580869480158515
502.293103,,0.0030732913310717877,502.204,0.7699999809265137,-0.0237315184072341
502.758621,,0.002960867069791131,502.67,0.7990000247955322,0.039112318850462256
503.224138,,0.002724235391615359,503.13,0.7689999938011169,-0.026402506157865824
503.68965499999996,,0.0031369558951390773,503.6,0.7820000052452087,0.0019510225577263202
504.15517200000005,,0.0035913265116811147,504.06,0.7850000262260437,0.008703578977720679
504.62068999999997,,0.0026114666107950736,504.53,0.7680000066757202,-0.027937904491763713
505.08620699999994,,0.0003185234938298264,504.996,0.7889999747276306,0.01837611474700601
505.55172400000004,,0.003426009420252377,505.454,0.7860000133514404,0.012552876423876504
506.017241,,0.003924745968740965,505.92,0.8209999799728394,0.08964753988718992
506.48275899999993,,0.0012208457659864628,506.386,0.7879999876022339,0.018698438397279617
506.948276,,0.0020683670559081004,506.851,0.777999997138977,-0.0020671909995382608
507.413793,,0.0032449521744306016,507.315,0.7860000133514404,0.016425250782956306
507.87931,,0.0027688923890454077,507.781,0.7950000166893005,0.03710631707850533
508.344828,,0.0031919203909463274,508.246,0.7820000052452087,0.009834330684739061
508.810345,,0.005619432665618996,508.712,0.7710000276565552,-0.013135864239756625
509.27586199999996,,0.008586556013225527,509.175,0.7820000052452087,0.011737463531771575
509.74137900000005,,0.010074783998289366,509.644,0.7620000243186951,-0.03104205348159971
510.20689699999997,,0.009290077235511295,510.105,0.640999972820282,-0.2940073526681272
510.67241399999995,,0.006372769411880639,510.574,0.7870000004768372,0.024562650879934714
511.13793100000004,,0.0017013637709024712,511.038,0.765999972820282,-0.02087810862119003
511.603448,,0.0036909977076903114,511.5,0.7860000133514404,0.022822666424565773
512.0689659999999,,0.00786021828537374,511.966,0.7730000019073486,-0.0055589291706732375
512.534483,,0.009377623525094848,512.43,0.7580000162124634,-0.0384829895674431
513.0,,0.008891940323926354,512.896,0.8489999771118164,0.15935299707010517
513.465517,,0.00821933450983352,513.36,0.7739999890327454,-0.004628572697183169
513.931034,,0.00793637144359757,513.826,0.7829999923706055,0.01425146078348652
514.396552,,0.007150123554722504,514.291,0.7860000133514404,0.019936001889140787
514.862069,,0.005883912670027283,514.757,0.8140000104904175,0.07998992671803667
515.327586,,0.0060786416768251325,515.223,0.7620000243186951,-0.0343157686999496
515.793103,,0.008997250991836667,515.689,0.7870000004768372,0.01909674191175459
516.258621,,0.012559139027604058,516.15,0.9010000228881836,0.2664056189644609
516.724138,,0.013025700591363785,516.62,0.765999972820282,-0.028738511124788257
517.189655,,0.009566618623983593,517.082,0.7879999876022339,0.018224789458623037
517.655172,,0.005648361841039459,517.545,0.7639999985694885,-0.03494338753661297
518.1206900000001,,0.004883560254375433,518.013,0.7620000243186951,-0.04006880851407489
518.5862070000001,,0.006525030070796823,518.475,0.7879999876022339,0.01594340157469684
519.051724,,0.0066307549083803605,518.941,0.7889999747276306,0.017645078933072253
519.517241,,0.0033814794668761273,519.408,0.7870000004768372,0.012981417848874745
519.982759,,0.0006036941368624878,519.874,0.7670000195503235,-0.030718629921516895
520.448276,,0.001875551984079743,520.338,0.765999972820282,-0.03284218216290307
520.9137929999999,,0.00044003189016346986,520.803,0.7879999876022339,0.015323935760091842
521.37931,,0.0010069817439599229,521.268,0.7879999876022339,0.015734005596607675
521.844828,,0.0010672832728089027,521.734,0.765999972820282,-0.031624382289101804
522.310345,,0.0008611160417482704,522.201,0.7760000228881836,-0.009121935698824978
522.7758620000001,,0.0013904935031967573,522.659,0.9850000143051147,0.44705771672033573
523.241379,,0.0016857727181498825,523.127,0.7710000276565552,-0.018226645343018034
523.7068969999999,,0.0004805412026225053,523.589,0.8100000023841858,0.06775942720804769
524.172414,,0.0015541113828801117,524.06,0.7870000004768372,0.018707349469265982
524.637931,,0.0026454909122722034,524.523,0.7839999794960022,0.013233675050059013
525.103448,,0.0025647436682843484,524.988,0.7689999938011169,-0.018411633366926708
525.568966,,0.0030062093847442327,525.451,0.7820000052452087,0.010885270152266101
526.034483,,0.0049885281776443835,525.917,0.765999972820282,-0.023088587512027473
526.5,,0.007032017021471592,526.382,0.7749999761581421,-0.002713145860871265
526.9655170000001,,0.006901798271982796,526.848,0.7860000133514404,0.021879547769505975
527.4310340000001,,0.0046670802496041434,527.313,0.6100000143051147,-0.3610970942367255
527.8965519999999,,0.0027940974459467124,527.778,0.800000011920929,0.053133256490025066
528.362069,,0.0029161113271501506,528.245,0.7680000066757202,-0.01648024130087037
528.827586,,0.0036456980988272126,528.704,0.7910000085830688,0.033548455012535484
529.293103,,0.0026840980232867716,529.175,0.7789999842643738,0.007143875796536244
529.7586210000001,,0.0005011941261844914,529.637,0.7870000004768372,0.024140484363544292
530.224138,,0.0002193856061955368,530.105,0.7789999842643738,0.006120353476742724
530.689655,,0.0033432457737884373,530.567,0.7599999904632568,-0.036005203317082984
531.155172,,0.006985952593479625,531.035,0.7630000114440918,-0.030318900250319903
531.62069,,0.006683095974052611,531.497,0.7820000052452087,0.010133641426583625
532.086207,,0.0016893627466431796,531.962,0.7919999957084656,0.030916204647031938
532.5517239999999,,0.003680969634504138,532.429,0.7919999957084656,0.029881712832069668
533.017241,,0.004457861883538758,532.895,0.7689999938011169,-0.021260907041134664
533.482759,,0.0001952603735408667,533.354,0.7730000019073486,-0.013548450370312543
533.9482760000001,,0.004866928255826335,533.819,0.7870000004768372,0.01601243896814006
534.413793,,0.006633544757460571,534.286,0.7720000147819519,-0.017516701416321466
534.87931,,0.005367521931460715,534.752,0.7889999747276306,0.018787233916136962
535.344828,,0.004556814714983389,535.219,0.7860000133514404,0.011657085150745261
535.810345,,0.0060137574813787665,535.685,0.7720000147819519,-0.019281902367040093
536.275862,,0.007417249423077896,536.146,0.7760000228881836,-0.010836423032705362
536.7413789999999,,0.005568119675533654,536.609,0.7820000052452087,0.002142777995404462
537.206897,,0.001071560673683609,537.079,0.7870000004768372,0.013122550078247844
537.672414,,0.001999811903700096,537.542,0.7770000100135803,-0.008401230671509993
538.137931,,0.001097171736513905,538.005,0.7910000085830688,0.022530166666460558
538.6034480000001,,0.001848972683053684,538.475,0.7990000247955322,0.04054420638628963
539.0689659999999,,0.0031065258575859326,538.94,0.7860000133514404,0.012943072198645031
539.5344829999999,,0.00150333865139691,539.405,0.7879999876022339,0.018135433307217265
540.0,,0.0008948868114991434,539.864,0.824999988079071,0.09966902752206439
540.465517,,0.0016740497810423995,540.33,0.7879999876022339,0.020043243135420392
540.931034,,0.00040003476399389393,540.796,0.7609999775886536,-0.03776692912060397
541.396552,,0.00160542804061017,541.261,0.7620000243186951,-0.03457848350000982
541.862069,,0.0024248665620169017,541.726,0.7889999747276306,0.02522008373820746
542.327586,,0.0005066001204960761,542.198,0.7839999794960022,0.015238663562835354
542.7931030000001,,0.003835543740679191,542.656,0.5320000052452087,-0.5329644621539861
543.258621,,0.007455539275321588,543.119,0.800000011920929,0.05160555650064387
543.7241379999999,,0.00678087710351181,543.589,0.7699999809265137,-0.013202042298839648
544.189655,,0.0021509110597352087,544.05,0.765999972820282,-0.02151688794082017
544.655172,,0.0018947718073821203,544.52,0.7860000133514404,0.022292210328747643
545.12069,,0.001822232258256866,544.985,0.7649999856948853,-0.02339313529620953
545.5862070000001,,0.0008570642617059707,545.448,0.7870000004768372,0.024432800077073564
546.051724,,0.0020918824886590323,545.914,0.7649999856948853,-0.023768495123414907
546.517241,,0.0005904805702278098,546.379,0.7839999794960022,0.017197309125878257
546.982759,,0.0011475793932103125,546.845,0.7789999842643738,0.005732046914016296
547.448276,,0.0004912555644796727,547.305,0.8209999799728394,0.09653879499185963
547.9137929999999,,0.0025615412922807444,547.77,0.7839999794960022,0.015130255358637193
548.3793099999999,,0.006335978146075008,548.234,0.7850000262260437,0.0164324985138003
548.844828,,0.009196913875892256,548.7,0.777999997138977,0.00025337867867917304
549.310345,,0.00956413817627348,549.168,0.7699999809265137,-0.018128579146232785
549.775862,,0.006153747546594463,549.63,0.7850000262260437,0.013602920583304685
550.241379,,6.676096558319271e-05,550.098,0.7820000052452087,0.006151812769145715
550.706897,,0.005207453245450227,550.56,0.7870000004768372,0.0161907415017775
551.172414,,0.005739188968093905,551.031,0.7739999890327454,-0.012899996770817872
551.637931,,0.0024278825661123494,551.493,0.7699999809265137,-0.02227470622110493
552.103448,,0.0005019289726390104,551.959,0.7889999747276306,0.01858691025429784
552.568966,,0.000355377818919842,552.422,0.7549999952316284,-0.05587710636747878
553.034483,,0.0012548020995776018,552.888,0.7860000133514404,0.011424426284442603
553.5,,0.001163368255268332,553.355,0.7900000214576721,0.020062686760143382
553.965517,,0.0011286698688668128,553.82,0.800000011920929,0.04193548049763379
554.4310340000001,,0.0032130227823359172,554.286,0.7620000243186951,-0.040607862154606766
554.896552,,0.003258019509663795,554.744,0.9539999961853027,0.37809114922444975
555.3620689999999,,0.0024448619897035114,555.209,0.7879999876022339,0.016977393178249228
555.827586,,0.0033686412891849845,555.675,0.7699999809265137,-0.02157289465096174
556.293103,,0.006477947090396144,556.145,0.7870000004768372,0.016228524363535293
556.758621,,0.008976750042233484,556.608,0.765999972820282,-0.028683832754286997
557.224138,,0.007645895498801474,557.071,0.7649999856948853,-0.029974524800415868
557.689655,,0.0023392767285547343,557.534,0.7990000247955322,0.045009183433810426
558.155172,,0.00374133643219953,558.001,0.765999972820282,-0.025982167175890903
558.6206900000001,,0.007048354803817179,558.464,0.7860000133514404,0.018462253506768105
559.0862070000001,,0.006694273057952,558.93,0.7699999809265137,-0.015583924962414872
559.5517239999999,,0.004691459161070498,559.397,0.7620000243186951,-0.03228426208478085
560.017241,,0.0035745927785961495,559.862,0.781000018119812,0.009733702470619715
560.482759,,0.0038682352952326493,560.327,0.7900000214576721,0.02984279950152878
560.948276,,0.0038432185159837733,560.792,0.7940000295639038,0.038922854521182215
561.413793,,0.0017533212430154192,561.257,0.7879999876022339,0.026070711423480927
561.87931,,0.0018625606953545195,561.723,0.7710000276565552,-0.010898017420340373
562.344828,,0.004428159193315045,562.186,0.7480000257492065,-0.06109249250463963
562.8103450000001,,0.0038938705962376172,562.656,0.7870000004768372,0.023638730058439996
563.275862,,0.0007128112900147052,563.116,0.7940000295639038,0.0385121952935609
563.7413789999999,,0.0028137912651969325,563.579,0.7870000004768372,0.02275664093341425
564.206897,,0.004696807130796024,564.049,0.7870000004768372,0.022139929988655525
564.672414,,0.004439173727401756,564.512,0.7710000276565552,-0.013427911583616151
565.137931,,0.0025737979569305913,564.977,0.7609999775886536,-0.03599558017348193
565.603448,,6.119558300762655e-05,565.44,0.7649999856948853,-0.02811014818410949
566.068966,,0.0024628167967418774,565.906,0.7870000004768372,0.018968579351361675
566.534483,,0.003697806628975143,566.372,0.765999972820282,-0.027630761412880893
567.0,,0.0035282723390679203,566.838,0.7889999747276306,0.021660061044401283
567.465517,,0.0025219205542906485,567.305,0.7739999890327454,-0.01178358641004644
567.931034,,0.0013770165513068652,567.77,0.7889999747276306,0.020209138660753884
568.396552,,0.00048256387384378697,568.235,0.7919999957084656,0.026155578610423155
568.862069,,0.00012114350989267706,568.701,0.7710000276565552,-0.020071082475878195
569.327586,,0.00045937408141597734,569.164,0.781000018119812,0.0013676396071803905
569.793103,,0.001053585171290568,569.627,0.7730000019073486,-0.01627266875634523
570.2586210000001,,0.0008434021156832635,570.089,0.7570000290870667,-0.051200509648013905
570.724138,,0.0009765173628857452,570.56,0.7870000004768372,0.01423179399835575
571.189655,,0.004216479310258168,571.023,0.9340000152587891,0.33470886396653715
571.655172,,0.007781893662811463,571.486,0.7820000052452087,0.003908065265688316
572.12069,,0.010101667977274369,571.951,0.777999997138977,-0.004329238464566977
572.586207,,0.009709982440246298,572.415,0.7649999856948853,-0.03206982746833238
573.051724,,0.006417495305167693,572.881,0.7870000004768372,0.016528161695763585
573.517241,,0.0021547414268941445,573.345,0.7850000262260437,0.01290391165377508
573.982759,,0.0003654714498097603,573.811,0.6309999823570251,-0.3218351845529824
574.4482760000001,,0.00038713730590515404,574.278,0.7820000052452087,0.00792720359892551
574.913793,,0.00023327093464811156,574.744,0.7649999856948853,-0.02833151537819604
575.37931,,0.0003917175967659481,575.209,0.7699999809265137,-0.01668873229049727
575.844828,,0.0016889620090878373,575.674,0.7910000085830688,0.029761920437427744
576.310345,,0.0014572510074595676,576.138,0.7839999794960022,0.015140129558231016
576.775862,,0.0011527986472380052,576.601,0.8880000114440918,0.24226244593526525
577.241379,,0.00420950484762337,577.064,0.7900000214576721,0.02919804378698717
577.706897,,0.00469996882124284,577.534,0.7649999856948853,-0.024939145494443874
578.172414,,0.001421219558723971,578.005,0.7979999780654907,0.04716023438844898
578.6379310000001,,0.0038861151989247346,578.46,0.7910000085830688,0.03198411388974803
579.1034480000001,,0.008098571056369649,578.926,0.7519999742507935,-0.05304010602030899
579.5689659999999,,0.00923630926704301,579.39,0.7720000147819519,-0.009653517414182647
580.034483,,0.0076038463313934,579.856,0.7519999742507935,-0.05353646360785316
580.5,,0.00497741422596171,580.323,0.8209999799728394,0.09636830430879482
580.965517,,0.0030780240435393257,580.789,0.7860000133514404,0.019596581521152373
581.431034,,0.0025431629174535427,581.254,0.7879999876022339,0.02335408484651924
581.896552,,0.0027841799102850087,581.719,0.7739999890327454,-0.007809662847382079
582.362069,,0.0027516208814509315,582.182,0.7940000295639038,0.035058012637487694
582.827586,,0.0020735015790399667,582.644,0.765999972820282,-0.026671061655455807
583.2931030000001,,0.0013682575443662174,583.112,0.7630000114440918,-0.033933945126289236
583.758621,,0.0013488005123678988,583.574,0.7910000085830688,0.02636254449375359
584.2241379999999,,0.001990990369273571,584.045,0.7889999747276306,0.02134267806106031
584.689655,,0.0028665492200969167,584.508,0.7739999890327454,-0.01193673833317079
585.155172,,0.0039036771208784365,584.974,0.7979999780654907,0.03983112530223713
585.6206900000001,,0.005278051010137951,585.437,0.7630000114440918,-0.0368464052586251
586.0862070000001,,0.0065851690243351885,585.903,0.7820000052452087,0.00422922388939085
586.551724,,0.006642586450419204,586.367,0.7850000262260437,0.010561441843228509
587.017241,,0.0045708405469650475,586.833,0.7990000247955322,0.04097952229523112
587.482759,,0.0010412940172764738,587.297,0.7870000004768372,0.014875261718095747
587.948276,,0.001975918002091307,587.763,0.7739999890327454,-0.013287688255396852
588.4137929999999,,0.002929939268632405,588.227,0.765999972820282,-0.030444124355008213
588.87931,,0.001965476491805592,588.693,0.7889999747276306,0.02004166572508864
589.344828,,0.00048305354405297476,589.157,0.7870000004768372,0.016153901277503543
589.810345,,0.0001621918618094188,589.619,0.753000020980835,-0.05737306683496345
590.2758620000001,,0.0005304538667266016,590.089,0.7850000262260437,0.012950721040706855
590.741379,,0.002128856808748511,590.552,0.7739999890327454,-0.010365749194190933
591.2068969999999,,0.0037149599601423453,591.016,0.765999972820282,-0.027124042114367555
591.672414,,0.004662460894428187,591.486,0.7860000133514404,0.01712194226283783
592.137931,,0.004935746687937335,591.944,0.7839999794960022,0.013420071591405808
592.603448,,0.004441777099406978,592.412,0.7870000004768372,0.020575256603419294
593.068966,,0.0026270301630878347,592.877,0.7770000100135803,-0.0006464680280240283
593.534483,,0.0006142380075723097,593.343,0.7889999747276306,0.025991193107579427
594.0,,0.003945962783133049,593.809,0.7559999823570251,-0.04549545175029513
594.4655170000001,,0.0053375748807501875,594.275,0.777999997138977,0.0027464661657660315
594.9310340000001,,0.004071975705286185,594.741,0.7649999856948853,-0.025369976074382558
595.3965519999999,,0.0015624344998878075,595.205,0.6499999761581421,-0.2758215941313202
595.862069,,0.000314492844295161,595.67,0.8050000071525574,0.061845892839668376
596.327586,,0.0013919318021971272,596.131,0.7630000114440918,-0.029792086010591877
596.793103,,0.0028936279054174174,596.601,0.7739999890327454,-0.006066449818179704
597.2586210000001,,0.005156825696379291,597.064,0.7990000247955322,0.04806403898968688
597.724138,,0.0070180589271182925,597.526,0.7870000004768372,0.021499953468423934
598.189655,,0.007688939852547603,597.992,0.7889999747276306,0.02536594905565127
598.655172,,0.007746432686805902,598.456,0.7580000162124634,-0.042719800228139926
599.12069,,0.007614845185857967,598.922,0.7850000262260437,0.015515697455786662
599.586207,,0.006436900376064103,599.387,0.7739999890327454,-0.009059951347546742
600.0517239999999,,0.003544304489333169,599.853,0.7689999938011169,-0.02056778788413771
600.517241,,0.0002651984744564519,600.32,0.7710000276565552,-0.01681143439736421
600.982759,,0.0008966172582962047,600.786,0.7820000052452087,0.00658392118865044
601.448276,,0.001114626957882003,601.246,0.7680000066757202,-0.024439038396850542
601.913793,,0.004606803548363391,601.712,0.7609999775886536,-0.04014930538133291
602.37931,,0.006536657916008832,602.175,0.765999972820282,-0.02964113141534035
602.844828,,0.005207620303316155,602.645,0.7649999856948853,-0.03211968170287348
603.310345,,0.0018451574692556671,603.108,0.7860000133514404,0.013425565234352512
603.775862,,0.0004159995142692207,603.571,0.7620000243186951,-0.038969565805344594
604.2413789999999,,0.0006099462393967287,604.034,0.7630000114440918,-0.03679801567973785
604.706897,,0.004000226783232914,604.504,0.7870000004768372,0.015582162280412575
605.172414,,0.006411171967152552,604.97,0.765999972820282,-0.0299804514029206
605.637931,,0.005274532677315966,605.433,0.7860000133514404,0.013871653558055187
606.1034480000001,,0.0015479258848230361,605.899,0.7730000019073486,-0.014090834979828564
606.5689659999999,,0.0010735710369790777,606.364,0.7889999747276306,0.021197199902173534
607.0344829999999,,5.665186269830972e-05,606.83,0.765999972820282,-0.028425709952175502
607.5,,0.0032490910166342027,607.29,0.7910000085830688,0.026568002424505164
607.965517,,0.00522180760937742,607.755,0.7860000133514404,0.01622804978507025
608.431034,,0.0037877718611976437,608.219,0.7919999957084656,0.029862950934061838
608.896552,,3.224370455758324e-05,608.685,0.7630000114440918,-0.032762092959352805
609.362069,,0.003956324016324367,609.153,0.765999972820282,-0.025694952193295987
609.827586,,0.006750314502616694,609.616,0.7870000004768372,0.020548155925786026
610.293103,,0.00837572401836796,610.079,0.7739999890327454,-0.007336160743585413
610.758621,,0.008644694369107525,610.549,0.753000020980835,-0.052715611727354526
611.2241379999999,,0.006886813560728965,611.009,0.7609999775886536,-0.034991510191406255
611.689655,,0.003325840962639631,611.479,0.796999990940094,0.04365057376375019
612.155172,,7.634924759872589e-06,611.945,0.7390000224113464,-0.0825894495444107
612.62069,,0.0007710137739763594,612.404,0.7789999842643738,0.004585601642847801
613.0862070000001,,0.0011558308793005964,612.87,0.7789999842643738,0.004523002821148737
613.551724,,0.003262177952956813,613.337,0.7839999794960022,0.015265634251406769
614.017241,,0.0029063013504516764,613.803,0.753000020980835,-0.05250596179952597
614.4827590000001,,0.00010508926687780769,614.268,0.8059999942779541,0.06265359474730423
614.948276,,0.0022247334789350123,614.734,0.7900000214576721,0.027422232295004203
615.4137929999999,,0.0008705878742223585,615.201,0.7870000004768372,0.02046091412973422
615.8793099999999,,0.0043288480369167125,615.659,0.7839999794960022,0.013459786624098928
616.344828,,0.00950800751151333,616.127,0.7620000243186951,-0.03496200273829161
616.810345,,0.010005696085558659,616.589,0.7699999809265137,-0.018037196595843404
617.275862,,0.00534570408401517,617.06,0.7699999809265137,-0.01853957626410211
617.741379,,0.0002652892579725634,617.522,0.777999997138977,-0.0015960133202912027
618.206897,,0.00024297800619861067,617.988,0.7540000081062317,-0.054338819522995435
618.672414,,0.0035671752286397275,618.451,0.7879999876022339,0.019323089988353193
619.137931,,0.006712446668079459,618.917,0.7129999995231628,-0.1444337056724425
619.603448,,0.005251022096715962,619.382,0.7699999809265137,-0.02054619691177159
620.068966,,0.00035304773439587256,619.848,0.7910000085830688,0.02498175533434859
620.534483,,0.0036867408287827403,620.313,0.777999997138977,-0.0034853396858775757
621.0,,0.004443582181184598,620.778,0.7699999809265137,-0.020976910425074588
621.465517,,0.00338598981673974,621.246,0.7699999809265137,-0.020956518511083874
621.9310340000001,,0.003199216203594762,621.704,0.753000020980835,-0.057892225168195796
622.396552,,0.004165856408308743,622.171,0.7689999938011169,-0.022855859406479946
622.862069,,0.003946446414771025,622.634,0.7850000262260437,0.012252134769531273
623.327586,,0.0008638206817182263,623.105,0.7820000052452087,0.006030146467867246
623.793103,,0.003438670203168249,623.567,0.7599999904632568,-0.04153158471109072
624.258621,,0.005513028964168553,624.035,0.765999972820282,-0.028048482731306886
624.724138,,0.004177447864309992,624.497,0.7910000085830688,0.026859753908590932
625.189655,,0.002086248120870043,624.963,0.746999979019165,-0.06854105631767454
625.655172,,0.002781854438132806,625.429,0.843999981880188,0.1432528718263703
626.1206900000001,,0.006727603052680599,625.895,0.7870000004768372,0.019528271477647394
626.5862070000001,,0.010733515747095511,626.356,0.7850000262260437,0.01560926353279874
627.0517239999999,,0.011181917510656376,626.822,0.7699999809265137,-0.016666442320079845
627.5172409999999,,0.00769237311769972,627.286,0.7680000066757202,-0.020665758960588775
627.982759,,0.0035579494365004603,627.752,0.7870000004768372,0.021030262293332908
628.448276,,0.002253849545722092,628.219,0.7870000004768372,0.02126811087120492
628.913793,,0.0034812857061411323,628.685,0.7749999761581421,-0.004707990860360676
629.37931,,0.003392534703483287,629.145,0.7829999923706055,0.012814258070384306
629.844828,,0.0007714056713071951,629.615,0.7879999876022339,0.023723835111862136
630.3103450000001,,0.006982481879432002,630.076,0.7699999809265137,-0.015552100666155618
630.7758620000001,,0.010322755400606476,630.545,0.7789999842643738,0.003920835139593855
631.2413789999999,,0.008296525345420368,631.005,0.7850000262260437,0.01678779105689761
631.706897,,0.0031763638073175394,631.475,0.7599999904632568,-0.03794729624468052
632.172414,,0.0009140297247326788,631.941,0.7860000133514404,0.01837300994339162
632.637931,,0.0019307430936550925,632.401,0.7730000019073486,-0.010319862953150837
633.103448,,0.0005466221310154782,632.867,0.7839999794960022,0.013240294626215923
633.568966,,0.001628006744067497,633.331,0.7839999794960022,0.012812961079280628
634.034483,,0.003317751944834024,633.796,0.7670000195503235,-0.02466132428371637
634.5,,0.00397981980354239,634.261,0.765999972820282,-0.027275368261004383
634.9655170000001,,0.004117446802032933,634.727,0.7860000133514404,0.015877032449057027
635.431034,,0.0048145896438642885,635.19,0.7850000262260437,0.013305127748475063
635.8965519999999,,0.006220071038324844,635.66,0.7720000147819519,-0.015371965367891911
636.362069,,0.006955120864832976,636.123,0.7979999780654907,0.04096680970542298
636.827586,,0.005768121817202734,636.586,0.765999972820282,-0.028998786062998345
637.293103,,0.0034642658592049565,637.054,0.7630000114440918,-0.0357202468529604
637.7586210000001,,0.002327481628544929,637.516,0.7910000085830688,0.025164256147011187
638.224138,,0.003392573768260747,637.982,0.7639999985694885,-0.033705620495223534
638.689655,,0.004917883231147907,638.444,0.8050000071525574,0.05564517673595606
639.155172,,0.004288237562050802,638.91,0.7870000004768372,0.01652757596516509
639.62069,,0.0013354417310309135,639.375,0.7870000004768372,0.01669438726674089
640.086207,,0.001052880570193722,639.84,0.7680000066757202,-0.02447040593826012
640.551724,,4.105072798507429e-05,640.305,0.7860000133514404,0.015030093169332643
641.017241,,0.0038367387456341696,640.771,0.7879999876022339,0.0197191519112174
641.482759,,0.006837796529365513,641.238,0.7860000133514404,0.01573121869772767
641.9482760000001,,0.005506352356132808,641.704,0.765999972820282,-0.027446381369727324
642.413793,,0.00011421134338888977,642.164,0.777999997138977,-0.0008930524428577094
642.87931,,0.005287621504132829,642.634,0.7910000085830688,0.027841333599645406
643.344828,,0.006442584309497012,643.097,0.7689999938011169,-0.019686195932797274
643.810345,,0.0027171944352620122,643.56,0.7839999794960022,0.013375340202811378
644.275862,,0.002498303537300148,644.031,0.7850000262260437,0.01590429822139678
644.7413789999999,,0.004998782689195214,644.493,0.7739999890327454,-0.007752073846064404
645.206897,,0.0034492115651044482,644.959,0.7870000004768372,0.020829142901172146
645.672414,,0.00025484998645515023,645.423,0.7699999809265137,-0.016006415924030286
646.1379310000001,,0.001192297379317817,645.888,0.7860000133514404,0.018990836687686294
646.6034480000001,,0.00024997627549448764,646.353,0.7760000228881836,-0.0027230371012461818
647.0689659999999,,0.00043234127847494686,646.818,0.7590000033378601,-0.03975574805030102
647.534483,,0.0015169683253356409,647.282,0.7649999856948853,-0.02674812323184174
648.0,,0.004874162695791058,647.748,0.8870000243186951,0.23891884926405427
648.465517,,0.006151745769138455,648.213,0.7900000214576721,0.027404427457031942
648.931034,,0.003897354953992422,648.679,0.7620000243186951,-0.03383658282701575
649.396552,,0.00045357474464446766,649.142,0.7870000004768372,0.020341980407154785
649.862069,,0.0007079793527934464,649.604,0.7649999856948853,-0.027916360589233205
650.327586,,0.0014538304910319566,650.075,0.7879999876022339,0.021833702399399257
650.7931030000001,,0.004865025958695082,650.537,0.7710000276565552,-0.015582509875875908
651.258621,,0.006564026699290206,651.005,0.8109999895095825,0.07117513237999994
651.7241379999999,,0.0052853614865787605,651.467,0.8009999990463257,0.04900348504098116
652.189655,,0.0022286337239216455,651.933,0.7699999809265137,-0.018906109357480168
652.655172,,0.00019711658477956071,652.397,0.765999972820282,-0.0279694086698173
653.12069,,0.00033409574661889764,652.863,0.7829999923706055,0.00875106113429903
653.5862070000001,,0.0015080151318721843,653.328,0.7739999890327454,-0.011132107834784504
654.051724,,0.0033392960255879036,653.794,0.7639999985694885,-0.03314517023431883
654.517241,,0.0031128264878667778,654.254,0.7870000004768372,0.016792052858546194
654.982759,,0.0004520066386612927,654.719,0.7699999809265137,-0.020356791410428322
655.448276,,0.002919055208667816,655.19,0.7829999923706055,0.007916919226959909
655.9137929999999,,0.004284397175084742,655.653,0.7870000004768372,0.01664728030237502
656.37931,,0.0019360371477699998,656.116,0.7680000066757202,-0.02466733021817309
656.844828,,0.002921442540701454,656.579,0.7820000052452087,0.0059746832386160555
657.310345,,0.006182263136377771,657.049,0.7889999747276306,0.02142351654773064
657.7758620000001,,0.004021530545710275,657.512,0.7699999809265137,-0.019720550928784396
658.241379,,0.0030890061040103815,657.977,0.7820000052452087,0.0067179385424539105
658.7068969999999,,0.010147455274280034,658.44,0.7910000085830688,0.026656699639756268
659.172414,,0.012211339501028868,658.906,0.7699999809265137,-0.01873705016609276
659.637931,,0.009048305383865555,659.371,0.7889999747276306,0.023031832494181052
660.103448,,0.0046319251080064435,659.837,0.7710000276565552,-0.015803192352549022
660.568966,,0.0022713307660199673,660.302,0.7730000019073486,-0.0110704664076485
661.034483,,0.0013891139582640527,660.768,0.7870000004768372,0.01979043545406419
661.5,,0.0003828831296557509,661.234,0.7910000085830688,0.028839686139776843
661.965517,,0.0031968288619769547,661.7,0.7739999890327454,-0.007897284880522373
662.4310340000001,,0.004700005175018281,662.164,0.7870000004768372,0.020681965872287572
662.8965519999999,,0.003515872216209886,662.626,0.7630000114440918,-0.03139966774372467
663.362069,,0.001403638453650602,663.09,0.777999997138977,0.001428910468689983
663.827586,,0.0012122897373765139,663.56,0.777999997138977,0.0015166466890569907
664.293103,,0.00334630389979606,664.02,0.7689999938011169,-0.01806694727768698
664.7586210000001,,0.005052332454191477,664.49,0.765999972820282,-0.02464321529498778
665.224138,,0.003402417168672493,664.956,0.7900000214576721,0.027541013638910983
665.689655,,0.0012596155517739125,665.419,0.765999972820282,-0.024909952072616492
