Trial: ,12
Threshold: ,0.0
Maximum EMG: ,0.07269271952410658
Success: ,True

EMG Time,Raw EMG,Filtered EMG,Force Time,Raw Force (V),Filtered Force (N)
0.0,samples,2.1079718661277944e-07,0.467,0.7559999823570251,-0.029246256572018868
0.46551699999999996,time,2.1962237259058825e-07,0.932,0.7620000243186951,-0.0170708851251664
0.9310339999999999,value,2.2804592189595623e-07,1.398,0.7820000052452087,0.02565099150724978
1.396552,,2.3602046570828573e-07,1.862,0.7670000195503235,-0.007807105872822472
1.862069,,2.4349818980138266e-07,2.328,0.7820000052452087,0.024191370528362482
2.327586,,2.5043098572628287e-07,2.795,0.7739999890327454,0.006199659552149572
2.793103,,2.5677060957196284e-07,3.261,0.7620000243186951,-0.02037018184747528
3.258621,,2.624688480653525e-07,3.724,0.7789999842643738,0.016390400070032334
3.724138,,2.674776917356059e-07,4.186,0.7599999904632568,-0.025121373018447624
4.189654999999999,,2.717495148305278e-07,4.654,0.7590000033378601,-0.027254722439484916
4.655172,,2.7523726163550917e-07,5.117,0.781000018119812,0.020882814477000827
5.12069,,2.7789463880740573e-07,5.58,0.7620000243186951,-0.02014768391021346
5.586207,,2.796763132976153e-07,6.05,0.7739999890327454,0.006505715849059977
6.051723999999999,,2.8053811540030384e-07,6.516,0.7630000114440918,-0.01681916049873985
6.517241,,2.804372464234212e-07,6.981,0.7459999918937683,-0.05310530984379727
6.982759,,2.7933249044197494e-07,7.439,0.777999997138977,0.017450084364257247
7.448276,,2.7718442955513716e-07,7.905,0.7490000128746033,-0.044829659409907525
7.913793000000001,,2.7395566203128885e-07,8.371,0.7990000247955322,0.0650391814507214
8.379309999999998,,2.696110226882159e-07,8.836,0.777999997138977,0.0202312877483249
8.844828000000001,,2.64117804819511e-07,9.302,0.7870000004768372,0.04076154134386629
9.310345,,2.5744598294297097e-07,9.769,0.7789999842643738,0.024204457644417726
9.775862,,2.4956843561257276e-07,10.235,0.7699999809265137,0.005390949813633367
10.241379,,2.404611675026296e-07,10.698,0.7789999842643738,0.02569005257356105
10.706897,,2.3010352994114563e-07,11.161,0.7609999775886536,-0.012959544474558916
11.172414,,2.1847843903937108e-07,11.628,0.7599999904632568,-0.014715841042324396
11.637931,,2.0557259053628915e-07,12.09,0.7879999876022339,0.046551309146011584
12.103447999999998,,1.9137667045041475e-07,12.556,0.6140000224113464,-0.332437060243072
12.568966000000001,,1.7588556060702993e-07,13.019,0.7730000019073486,0.013889556950009894
13.034483,,1.59098538087001e-07,13.485,0.7760000228881836,0.020176577546963212
13.5,,1.4101946762379225e-07,13.95,0.699999988079071,-0.14581125596088435
13.965517,,1.2165698595838688e-07,14.416,0.7789999842643738,0.025741212028137908
14.431034,,1.010246771477209e-07,14.884,0.7699999809265137,0.00544061599442524
14.896552,,7.914123781110203e-08,15.349,0.777999997138977,0.022067708825384072
15.362069,,5.603063129108986e-08,15.814,0.7749999761581421,0.01464493779646129
15.827586000000002,,3.1722229700621676e-08,16.28,0.7599999904632568,-0.01897909870527429
16.293103,,6.250942826937088e-09,16.743,0.7749999761581421,0.012727555070768025
16.758621,,2.0342667134759288e-08,17.205,0.7680000066757202,-0.003494438065508671
17.224138,,4.8012286038808924e-08,17.673,0.75,-0.04365030660319987
17.689655,,7.670576444864264e-08,18.135,0.828000009059906,0.12540540898990626
18.155172,,1.0636505149512375e-07,18.599,0.7570000290870667,-0.0300677419629844
18.62069,,1.3692614691220733e-07,19.069,0.7820000052452087,0.023723053520519084
19.086207,,1.6831907220590398e-07,19.534,0.7590000033378601,-0.02692727396433174
19.551724,,2.004678618856286e-07,19.998,0.6830000281333923,-0.19289677720891613
20.017241000000002,,2.332905756556334e-07,20.464,0.7620000243186951,-0.021015861485909487
20.482758999999998,,2.666993324282882e-07,20.929,0.7639999985694885,-0.016721919100502285
20.948276,,3.0060036698041203e-07,21.394,0.765999972820282,-0.012254835852655542
21.413793000000002,,3.348941100286208e-07,21.854,0.7559999823570251,-0.03376125997281317
21.87931,,3.6947529244969844e-07,22.319,0.7770000100135803,0.012432610831099459
22.344828,,4.042330743172952e-07,22.784,0.7739999890327454,0.006488288182046451
22.810344999999998,,4.3905119936680085e-07,23.25,0.8600000143051147,0.19457736649206647
23.275862,,4.738081754360323e-07,23.718,0.7689999938011169,-0.002841717656859862
23.741379,,5.083774813604452e-07,24.18,0.7609999775886536,-0.01934778819708496
24.206897,,5.426278007279618e-07,24.65,0.7580000162124634,-0.024905986136130962
24.672414,,5.764232828202719e-07,25.113,0.7820000052452087,0.0283836151312286
25.137931,,6.096238309846804e-07,25.577,0.7630000114440918,-0.012014944456873195
25.603448,,6.420854185933523e-07,26.039,0.781000018119812,0.02815927769662423
26.068966,,6.736604326552498e-07,26.505,0.4050000011920929,-0.7901282488137755
26.534483,,7.041980450503147e-07,26.97,0.7580000162124634,-0.02028895919302638
27.0,,7.335446112556886e-07,27.436,0.777999997138977,0.023934199359248766
27.465517,,7.615440963301513e-07,27.902,0.7599999904632568,-0.014769953479612838
27.931034,,7.880385278157035e-07,28.368,0.777999997138977,0.024803081074586213
28.396552,,8.128684751045551e-07,28.832,0.7739999890327454,0.01628094784273992
28.862069,,8.358735547059432e-07,29.298,0.7739999890327454,0.0163028652570311
29.327586,,8.568929607304663e-07,29.761,0.7630000114440918,-0.007811881577872923
29.793103000000002,,8.757660197902695e-07,30.224,0.777999997138977,0.024550953275311826
30.258620999999998,,8.923327693917778e-07,30.692,0.7649999856948853,-0.004245922201485161
30.724138,,9.064345587740613e-07,31.154,0.7580000162124634,-0.020114325704768635
31.189655000000002,,9.17914671020705e-07,31.624,0.7559999823570251,-0.025214943675471134
31.655172000000004,,9.266189651466112e-07,32.087,0.7770000100135803,0.019690948289043397
32.12069,,9.323965367338842e-07,32.553,0.7649999856948853,-0.007375008981492393
32.586207,,9.351003955632579e-07,33.016,0.7200000286102295,-0.1063853946302289
33.051724,,9.34588158559857e-07,33.481,0.777999997138977,0.018984549703585464
33.517241000000006,,9.307227562448918e-07,33.947,0.7590000033378601,-0.023390549570730723
33.982759,,9.233731507586487e-07,34.413,0.7760000228881836,0.012707285805824454
34.448276,,9.124150633953408e-07,34.88,0.7870000004768372,0.03580387411837789
34.913793,,8.977317094675455e-07,35.346,0.7739999890327454,0.006710688497316628
35.37931,,8.792145381975763e-07,35.811,0.7720000147819519,0.0017037481673625597
35.844828,,8.567639752157784e-07,36.269,0.7739999890327454,0.005551887919383725
36.310345,,8.302901651319317e-07,36.739,0.7870000004768372,0.033521685450423354
36.775862,,7.997137115362504e-07,37.201,0.7630000114440918,-0.018951254295520702
37.241378999999995,,7.649664116814684e-07,37.669,0.7609999775886536,-0.02332175461551157
37.706897000000005,,7.259919829977486e-07,38.132,0.7960000038146973,0.05309069221300429
38.172414,,6.82746778498262e-07,38.595,0.7599999904632568,-0.02501251066206614
38.637931,,6.35200488045804e-07,39.065,0.7789999842643738,0.016868190618351292
39.103448,,5.833368223703756e-07,39.53,0.7440000176429749,-0.0587553634452005
39.568965999999996,,5.271541766548115e-07,39.989,0.7599999904632568,-0.023145062844438145
40.034483,,4.666662704409035e-07,40.455,0.777999997138977,0.016922859288991662
40.5,,4.019027605526067e-07,40.921,0.7559999823570251,-0.030080368867755135
40.965517,,3.3290982368642547e-07,41.386,0.777999997138977,0.018823600284679214
41.431034,,2.597507052825094e-07,41.851,0.7770000100135803,0.017635946307163145
41.896552,,1.825062312639197e-07,42.317,0.7490000128746033,-0.04238828103379622
42.362069000000005,,1.0127527921649042e-07,42.784,0.7870000004768372,0.04133513078145602
42.827586000000004,,1.6175205578242655e-08,43.25,0.7590000033378601,-0.018803564871983647
43.293103,,7.265777458408152e-08,43.713,0.7870000004768372,0.04296465162570008
43.758621,,1.650682586126157e-07,44.176,0.7739999890327454,0.015287698485301395
44.224138,,2.6088138147712897e-07,44.639,0.777999997138977,0.02450766990588165
44.689655,,3.5990259849428453e-07,45.109,0.777999997138977,0.024857283929923733
45.155172,,4.619175288051438e-07,45.569,0.7559999823570251,-0.022890269845353414
45.620689999999996,,5.666918627928057e-07,46.039,0.7820000052452087,0.033764532629358
46.086206999999995,,6.739713365315941e-07,46.505,0.7590000033378601,-0.01650772061510919
46.551724,,7.834817762538052e-07,46.965,0.7820000052452087,0.03326961596052308
47.017241,,8.949292156994322e-07,47.43,0.7329999804496765,-0.07397463616650278
47.482759,,1.008000089078264e-06,47.895,0.7149999737739563,-0.11382639623289242
47.948276,,1.1223615022221407e-06,48.36,0.7519999742507935,-0.03397963558287891
48.413793,,1.2376615843377845e-06,48.824,0.7580000162124634,-0.02177360603401952
48.879310000000004,,1.3535299225874635e-06,49.29,0.777999997138977,0.020858524784959264
49.344828,,1.4695780815257126e-06,49.758,0.7680000066757202,-0.0019140800009673513
49.810345,,1.585400209205491e-06,50.221,0.7649999856948853,-0.009451336503640499
50.275862,,1.7005737315365695e-06,50.684,0.7710000276565552,0.0026347782041605695
50.741379,,1.8146601362327492e-06,51.154,0.7639999985694885,-0.013556035330860777
51.206897,,1.927205847422928e-06,51.614,0.753000020980835,-0.03838718033801065
51.672414,,2.0377431917243225e-06,52.084,0.7820000052452087,0.02402829563452354
52.137931,,2.1457914562846363e-06,52.55,0.7580000162124634,-0.028899909617990344
52.603448,,2.250858038994062e-06,53.013,0.7799999713897705,0.018534039431129048
53.068966,,2.3524396907481777e-06,53.478,0.7120000123977661,-0.12995148458937933
53.534483,,2.450023849309565e-06,53.943,0.7770000100135803,0.011491515357771155
54.0,,2.543090063969989e-06,54.409,0.7409999966621399,-0.06693502284029057
54.465517,,2.631111509856877e-06,54.873,0.777999997138977,0.013854481812484182
54.931034,,2.7135565903583843e-06,55.339,0.7749999761581421,0.0076678987834687025
55.396552,,2.7898906257613813e-06,55.799,0.7680000066757202,-0.007073359402536993
55.862069,,2.859577625807113e-06,56.265,0.777999997138977,0.015366512445444404
56.327586,,2.9220821434710707e-06,56.732,0.777999997138977,0.01614438315667806
56.793102999999995,,2.9768712068677884e-06,57.195,0.7559999823570251,-0.030907626570144897
57.258621000000005,,3.023416325768971e-06,57.665,0.7839999794960022,0.031046058708934805
57.724138,,3.061195568805791e-06,58.128,0.7609999775886536,-0.01806715710159961
58.189655,,3.089695707004549e-06,58.591,0.656000018119812,-0.24581819912845618
58.655172,,3.1084144188805858e-06,59.054,0.7609999775886536,-0.016075053464397127
59.120689999999996,,3.116862551889696e-06,59.519,0.7749999761581421,0.01536121344164371
59.586207,,3.1145664346108397e-06,59.984,0.777999997138977,0.02275647955333259
60.051724,,3.1010702336101388e-06,60.449,0.753000020980835,-0.030952706224712006
60.517241,,3.0759383485156015e-06,60.921,0.7580000162124634,-0.019428727752989303
60.982758999999994,,3.038757838416403e-06,61.379,0.7620000243186951,-0.010229166467061375
61.448276,,2.989140872291509e-06,61.844,0.7639999985694885,-0.005547381494660966
61.913793,,2.9267271957717266e-06,62.309,0.7739999890327454,0.016393568520916856
62.379310000000004,,2.8511866061486757e-06,62.776,0.777999997138977,0.025088265374971518
62.84482800000001,,2.762221427165552e-06,63.242,0.7739999890327454,0.016180080328738286
63.310345000000005,,2.659568974759761e-06,63.71,0.777999997138977,0.024533226668186338
63.775862000000004,,2.5430040045783983e-06,64.172,0.7559999823570251,-0.023915933946301926
64.241379,,2.4123411317561124e-06,64.64,0.7590000033378601,-0.01804119918582123
64.706897,,2.267437213133007e-06,65.103,0.777999997138977,0.022569527302500055
65.172414,,2.1081936817999255e-06,65.573,0.7620000243186951,-0.013170488187255554
65.637931,,1.934558823591633e-06,66.035,0.7770000100135803,0.01855626703553639
66.103448,,1.746529984907058e-06,66.494,0.7749999761581421,0.013203884081494805
66.56896599999999,,1.544155701021844e-06,66.965,0.7910000085830688,0.04705605964137144
67.03448300000001,,1.3275377338739146e-06,67.431,0.7620000243186951,-0.017111638728576795
67.5,,1.0968330081495211e-06,67.896,0.7760000228881836,0.01245144661507851
67.965517,,8.522554343772116e-07,68.354,0.7850000262260437,0.031198931364242205
68.431034,,5.940776076521887e-07,68.821,0.7630000114440918,-0.017487690581661493
68.896552,,3.226323705654418e-07,69.287,0.7760000228881836,0.01020519917710305
69.362069,,3.8314228902595934e-08,69.755,0.7739999890327454,0.0053642686972945105
69.827586,,2.584193912916662e-07,70.217,0.7599999904632568,-0.025459627346347977
70.293103,,5.67047056614864e-07,70.68,0.7820000052452087,0.022318430002592638
70.75862099999999,,8.869824203884878e-07,71.15,0.7580000162124634,-0.029945939265202042
71.22413800000001,,1.2175735089736799e-06,71.613,0.746999979019165,-0.05371375983727712
71.689655,,1.5581022111664429e-06,72.076,0.7620000243186951,-0.020668700728018873
72.15517200000001,,1.9077839812625586e-06,72.542,0.777999997138977,0.014712439908126441
72.62069,,2.265767766078206e-06,73.004,0.7490000128746033,-0.04780328065028761
73.086207,,2.6311361658582637e-06,73.47,0.777999997138977,0.016164605106656026
73.551724,,3.0029058385996048e-06,73.938,0.777999997138977,0.017050537965740437
74.017241,,3.3800281568605676e-06,74.404,0.7689999938011169,-0.001598924024100478
74.482759,,3.761390125619652e-06,74.869,0.7599999904632568,-0.02020544659933121
74.94827599999999,,4.1458155691858604e-06,75.335,0.7979999780654907,0.06359731007995176
75.41379300000001,,4.5320665945497455e-06,75.795,0.7609999775886536,-0.016016055762904394
75.87931,,4.91884533789808e-06,76.26,0.7580000162124634,-0.021603785034699712
76.344828,,5.304796000296147e-06,76.728,0.777999997138977,0.02283942794869992
76.810345,,5.688507177770311e-06,77.19,0.7739999890327454,0.014891254657984306
77.275862,,6.068514490200216e-06,77.659,0.75,-0.03675738616871806
77.741379,,6.443303512555356e-06,78.12,0.7570000290870667,-0.021015857811124694
78.206897,,6.811313011085849e-06,78.588,0.7599999904632568,-0.014152341599886658
78.67241399999999,,7.170938486103011e-06,79.05,0.6079999804496765,-0.3451554269189586
79.137931,,7.520536021963268e-06,79.516,0.777999997138977,0.025183395079420908
79.603448,,7.858426443800477e-06,79.98,0.7749999761581421,0.01843706848220081
80.068966,,8.182899779438822e-06,80.445,0.7760000228881836,0.020236317444621683
80.53448300000001,,8.492220023763006e-06,80.91,0.7689999938011169,0.004448498659568402
81.0,,8.784630201626863e-06,81.376,0.7620000243186951,-0.011480902267584239
81.465517,,9.058357724148232e-06,81.843,0.7620000243186951,-0.012281274173864508
81.931034,,9.311620031969751e-06,82.309,0.7870000004768372,0.04128775490267128
82.396552,,9.542630517765223e-06,82.769,0.7580000162124634,-0.022859317920743093
82.86206899999999,,9.749604718942443e-06,83.235,0.7820000052452087,0.028421991323427886
83.327586,,9.930766770139662e-06,83.702,0.7770000100135803,0.01651331814125141
83.79310299999999,,1.0084356103737618e-05,84.164,0.7820000052452087,0.02641305277190428
84.258621,,1.0208634385216448e-05,84.632,0.7789999842643738,0.018935600856800044
84.72413800000001,,1.0301892668781027e-05,85.094,0.7580000162124634,-0.02767733308202653
85.189655,,1.0362458757263738e-05,85.56,0.7419999837875366,-0.0632921994340389
85.65517200000001,,1.0388704748895019e-05,86.024,0.765999972820282,-0.011633779611880439
86.12069,,1.0379054752114179e-05,86.489,0.7760000228881836,0.009670768647036329
86.586207,,1.0331992748181007e-05,86.954,0.7839999794960022,0.026780460873530348
87.051724,,1.0246070579947899e-05,87.419,0.7749999761581421,0.007025817552749683
87.517241,,1.0119916043768027e-05,87.884,0.765999972820282,-0.012552165799099551
87.98275899999999,,9.952241060153237e-06,88.35,0.7789999842643738,0.01597560397936615
88.448276,,9.741849897461545e-06,88.817,0.7580000162124634,-0.029401568143580463
88.913793,,9.487647421594452e-06,89.283,0.7739999890327454,0.005988604069839569
89.37931,,9.18864734342479e-06,89.75,0.781000018119812,0.021912691908715556
89.844828,,8.843980434462691e-06,90.213,0.777999997138977,0.01617187933703458
90.310345,,8.45290268010693e-06,90.68,0.7760000228881836,0.012707362596415061
90.775862,,8.014803338727642e-06,91.143,0.7599999904632568,-0.021188358050053764
91.241379,,7.529212873790894e-06,91.606,0.777999997138977,0.019030572529129177
91.706897,,6.9958107252721185e-06,92.076,0.7360000014305115,-0.07145981031001702
92.17241399999999,,6.414432885720739e-06,92.534,0.8109999895095825,0.09293084375414383
92.63793100000001,,5.785079245538852e-06,93.006,0.7789999842643738,0.02415652239797745
93.103448,,5.107920671329162e-06,93.464,0.7770000100135803,0.020663816815814327
93.568966,,4.3833057805580145e-06,93.929,0.7739999890327454,0.014887458809787524
94.03448300000001,,3.611767375274674e-06,94.395,0.7609999775886536,-0.012803739107102445
94.5,,2.7940284972343734e-06,94.861,0.7749999761581421,0.018180784953057187
94.965517,,1.9310080664962106e-06,95.327,0.7599999904632568,-0.014178001724049268
95.431034,,1.0238260654138044e-06,95.792,0.7639999985694885,-0.0053149559853060665
95.896552,,7.380822991262074e-08,96.257,0.7739999890327454,0.01644301295100288
96.36206899999999,,9.175097899413485e-07,96.72,0.7609999775886536,-0.012083802128138147
96.827586,,1.9483788378258402e-06,97.19,0.7770000100135803,0.022400681832883525
97.293103,,3.0168332648473832e-06,97.651,0.7760000228881836,0.01969017263344408
97.758621,,4.1206885858283565e-06,98.12,0.7609999775886536,-0.013663323293425655
98.224138,,5.257539814295743e-06,98.584,0.7599999904632568,-0.016637511987193657
98.689655,,6.424760511410789e-06,99.046,0.7599999904632568,-0.01753113390143533
99.155172,,7.619502583055484e-06,99.512,0.7760000228881836,0.016363098135836814
99.62069,,8.838696858102314e-06,99.977,0.7900000214576721,0.04585953795507804
100.086207,,1.007905447953516e-05,100.443,0.7609999775886536,-0.018335632126861
100.551724,,1.1337069138559036e-05,100.91,0.7519999742507935,-0.03893750854537884
101.017241,,1.2609020180132599e-05,101.375,0.7620000243186951,-0.018095198659696134
101.482759,,1.389097660647872e-05,101.839,0.7590000033378601,-0.025496876025708395
101.948276,,1.5178802003073821e-05,102.305,0.777999997138977,0.01513716111177415
102.413793,,1.6468160409386117e-05,102.77,0.777999997138977,0.014506100907566323
102.87931,,1.7754523154226448e-05,103.229,0.7739999890327454,0.005309168414186567
103.344828,,1.9033176672994243e-05,103.699,0.777999997138977,0.0137048328665692
103.810345,,2.029923132134682e-05,104.162,0.7450000047683716,-0.058336979395077086
104.275862,,2.1547631196895074e-05,104.625,0.7749999761581421,0.007052456343602624
104.741379,,2.2773164977435816e-05,105.095,0.7620000243186951,-0.0210640400781287
105.206897,,2.3970477780974177e-05,105.56,0.7570000290870667,-0.03158184080960886
105.672414,,2.5134084049373185e-05,106.024,0.7760000228881836,0.010346088334133325
106.13793100000001,,2.6258381453897157e-05,106.49,0.777999997138977,0.015379613031623012
106.603448,,2.733766581719699e-05,106.954,0.777999997138977,0.016178498318854206
107.068966,,2.8366147042425683e-05,107.42,0.7599999904632568,-0.022140270791099342
107.534483,,2.9337966036179074e-05,107.884,0.7609999775886536,-0.0189945855142433
108.0,,3.0247212607838145e-05,108.35,0.7910000085830688,0.04737301934288712
108.46551699999999,,3.10879443236549e-05,108.81,0.753000020980835,-0.03439679599180795
108.931034,,3.185420628958368e-05,109.276,0.7710000276565552,0.005816969274025698
109.396552,,3.254005183242473e-05,109.739,0.7889999747276306,0.04597974845944338
109.862069,,3.313956404432867e-05,110.209,0.777999997138977,0.02288294542231168
110.32758600000001,,3.3646878151121585e-05,110.669,0.5019999742507935,-0.5776666505233142
110.793103,,3.405620466026417e-05,111.139,0.7720000147819519,0.011187243521719896
111.258621,,3.4361853239568956e-05,111.599,0.7820000052452087,0.03343969800451873
111.724138,,3.455825727308167e-05,112.068,0.7590000033378601,-0.01636455413059101
112.189655,,3.463999903580188e-05,112.534,0.7749999761581421,0.018627897146187056
112.655172,,3.4601835424190583e-05,112.998,0.7879999876022339,0.04691058035824947
113.12069,,3.443872417470559e-05,113.464,0.777999997138977,0.024912482569337244
113.586207,,3.414585049793671e-05,113.929,0.7400000095367432,-0.05825387986928123
114.051724,,3.371865405130019e-05,114.394,0.7649999856948853,-0.0043210837051954835
114.51724100000001,,3.3152856168714643e-05,114.854,0.777999997138977,0.023329055176012373
114.982759,,3.2444487261238034e-05,115.319,0.6060000061988831,-0.35219169729675387
115.448276,,3.158991429831743e-05,115.784,0.7730000019073486,0.010749885577614469
115.913793,,3.058586827511003e-05,116.25,0.7760000228881836,0.016323646320737413
116.37931,,2.942947156729678e-05,116.718,0.7739999890327454,0.010967197819478657
116.84482799999999,,2.8118265070949346e-05,117.18,0.7749999761581421,0.012140300822433907
117.310345,,2.665023502134902e-05,117.65,0.777999997138977,0.017694898478166757
117.77586199999999,,2.5023839381213713e-05,118.113,0.753000020980835,-0.037699202164480146
118.241379,,2.323803368558838e-05,118.576,0.781000018119812,0.02245615840984521
118.70689700000001,,2.1292296227716963e-05,119.039,0.7570000290870667,-0.03057149972053398
119.172414,,1.918665246756186e-05,119.505,0.7739999890327454,0.005854184930080861
119.63793100000001,,1.6921698542291996e-05,119.97,0.7739999890327454,0.005390169354444365
120.103448,,1.44986237560443e-05,120.435,0.5960000157356262,-0.38271538171801844
120.568966,,1.1919231924597325e-05,120.902,0.7739999890327454,0.004941728160559743
121.034483,,9.18596144930069e-06,121.368,0.7599999904632568,-0.02553083768453876
121.5,,6.301903993700833e-06,121.832,0.7739999890327454,0.00517185555060265
121.96551699999999,,3.2708216358122973e-06,122.297,0.7620000243186951,-0.02060327252116578
122.431034,,9.716236892401978e-08,122.77,0.777999997138977,0.014779514486114809
122.896552,,3.2139261757792873e-06,123.228,0.7739999890327454,0.006729571901680547
123.362069,,6.656584910641539e-06,123.691,0.7559999823570251,-0.03170165925943675
123.827586,,1.0224233501521753e-05,124.154,0.7749999761581421,0.010572663036021501
124.293103,,1.3909562729012434e-05,124.625,0.7739999890327454,0.009343155287497447
124.758621,,1.770452912119632e-05,125.087,0.7570000290870667,-0.02670444399699305
125.22413800000001,,2.1600351975353787e-05,125.553,0.7789999842643738,0.022224983703778473
125.68965500000002,,2.5587512882595583e-05,126.015,0.7739999890327454,0.01231089148389171
126.15517200000001,,2.9655757865403202e-05,126.481,0.7620000243186951,-0.01290357643980066
126.62069000000001,,3.379410223350239e-05,126.947,0.7799999713897705,0.02716284613485576
127.086207,,3.799083825836585e-05,127.412,0.734000027179718,-0.07230876196875992
127.55172400000001,,4.223354576093274e-05,127.877,0.7590000033378601,-0.017224795845411308
128.017241,,4.6509105700840026e-05,128.343,0.7609999775886536,-0.012396780572176835
128.48275900000002,,5.080371684858201e-05,128.81,0.7599999904632568,-0.01426539545478622
128.948276,,5.51029156145474e-05,129.276,0.781000018119812,0.031626559461839655
129.413793,,5.939159910083105e-05,129.739,0.7590000033378601,-0.016337094629284604
129.87931,,6.36540514330813e-05,130.201,0.7749999761581421,0.01831522444673993
130.344828,,6.78739734204307e-05,130.669,0.777999997138977,0.024479080170710422
130.81034499999998,,7.203451558177485e-05,131.132,0.7720000147819519,0.010880589865439431
131.275862,,7.611831456632173e-05,131.599,0.6600000262260437,-0.2337954792062584
131.741379,,8.010753298544522e-05,132.062,0.7620000243186951,-0.012363444019309904
132.206897,,8.39839026614552e-05,132.528,0.7789999842643738,0.02378673172381862
132.67241399999997,,8.772877128696191e-05,132.991,0.7599999904632568,-0.01856160627535025
133.13793099999998,,9.13231524760836e-05,133.456,0.7839999794960022,0.032733939974805996
133.60344800000001,,9.47477791758469e-05,133.921,0.7760000228881836,0.014305542223286522
134.06896600000002,,9.798316039278392e-05,134.387,0.7649999856948853,-0.010635827054727947
134.53448300000002,,0.00010100964117596819,134.854,0.7789999842643738,0.018941711716274248
135.0,,0.00010380746578358232,135.319,0.7649999856948853,-0.012402156933135166
135.465517,,0.00010635684394560972,135.784,0.7599999904632568,-0.02403214831263266
135.931034,,0.00010863802012042381,136.25,0.7760000228881836,0.010217798639631442
136.396552,,0.00011063134562795335,136.713,0.7630000114440918,-0.018566225104418885
136.862069,,0.00011231735352677092,137.176,0.7770000100135803,0.011634284167432746
137.327586,,0.0001136768360869289,137.639,0.8040000200271606,0.07032805853402802
137.793103,,0.00011469092469469938,138.109,0.7599999904632568,-0.02548730473927079
138.258621,,0.00011534117200961148,138.573,0.7770000100135803,0.01176768713476368
138.724138,,0.00011560963617837236,139.035,0.7480000257492065,-0.051030128019902865
139.189655,,0.00011547896689446248,139.501,0.777999997138977,0.014865262789307764
139.655172,,0.00011493249307646596,139.966,0.7739999890327454,0.006823629018997352
140.12069,,0.00011395431192259412,140.432,0.7739999890327454,0.00761337248105274
140.586207,,0.00011252937908344228,140.898,0.777999997138977,0.017210292493398102
141.05172399999998,,0.00011064359967985195,141.364,0.8519999980926514,0.17937972582785422
141.51724099999998,,0.00010828391987789591,141.828,0.777999997138977,0.019148520268938138
141.982759,,0.00010543841871852859,142.294,0.7620000243186951,-0.014713552464653917
142.44827600000002,,0.00010209639988541592,142.755,0.7580000162124634,-0.022457145851798154
142.913793,,9.824848308094703e-05,143.224,0.7850000262260437,0.03728247195116469
143.37931,,9.388669466750345e-05,143.687,0.7609999775886536,-0.014171662573285598
143.844828,,8.900455721879227e-05,144.149,0.7749999761581421,0.01705484961056473
144.310345,,8.359717761450847e-05,144.617,0.777999997138977,0.024186135539291498
144.77586200000002,,7.766133330085087e-05,145.08,0.7369999885559082,-0.06469185797600299
145.241379,,7.11955563295472e-05,145.546,0.781000018119812,0.0314525804259909
145.706897,,6.42002147791209e-05,146.009,0.7860000133514404,0.042459259448558426
146.172414,,5.667759115422464e-05,146.475,0.7590000033378601,-0.016423974421578287
146.637931,,4.863195735204682e-05,146.94,0.777999997138977,0.024739009905554527
147.103448,,4.0069645779136666e-05,147.406,0.7739999890327454,0.015628824107721404
147.568966,,3.099911619756078e-05,147.873,0.777999997138977,0.023796228234266498
148.034483,,2.143101787616714e-05,148.338,0.7630000114440918,-0.009565595923110608
148.5,,1.1378246620957651e-05,148.802,0.7749999761581421,0.015781884502778672
148.965517,,8.559962582218648e-07,149.268,0.7609999775886536,-0.01560511525284963
149.43103399999998,,1.0118195854776443e-05,149.735,0.753000020980835,-0.033982995188812086
149.89655199999999,,2.1524409714081383e-05,150.198,0.7820000052452087,0.028215312507389612
150.362069,,3.3340310366527674e-05,150.666,0.7910000085830688,0.04683827649430594
150.82758600000003,,4.554112283271016e-05,151.129,0.7649999856948853,-0.010763314536001455
151.293103,,5.809961466007564e-05,151.592,0.7789999842643738,0.018838108318659376
151.758621,,7.098608650137174e-05,152.061,0.7590000033378601,-0.025550308947969044
152.224138,,8.41683711024959e-05,152.519,0.7580000162124634,-0.028435797374228373
152.68965500000002,,9.761184107076915e-05,152.991,0.7789999842643738,0.016739072718399018
153.155172,,0.00011127942577978383,153.449,0.8159999847412109,0.09692161967942389
153.62069,,0.0001251316377502149,153.92,0.777999997138977,0.013868753625551008
154.086207,,0.00013912660882732235,154.379,0.7789999842643738,0.015953593982059755
154.551724,,0.00015322013645529243,154.844,0.7730000019073486,0.002960241144203875
155.017241,,0.00016736574032606157,155.31,0.7889999747276306,0.03806678503620466
155.482759,,0.00018151472965583694,155.777,0.7590000033378601,-0.026882654676965153
155.948276,,0.00019561628131617827,156.243,0.781000018119812,0.02160615289931322
156.413793,,0.00020961752901824945,156.706,0.7599999904632568,-0.02345602468798552
156.87931,,0.00022346366371870635,157.169,0.7760000228881836,0.012201555887091976
157.34482799999998,,0.00023709804538368752,157.639,0.7789999842643738,0.019621745747480223
157.81034499999998,,0.0002504623262135533,158.102,0.7739999890327454,0.009671121415596373
158.275862,,0.00026349658539541975,158.569,0.7770000100135803,0.017178945842341087
158.741379,,0.0002761394754132107,159.031,0.8069999814033508,0.0835101380808613
159.20689700000003,,0.000288328379905966,159.497,0.7870000004768372,0.04087988986059783
159.672414,,0.00029999958302456234,159.965,0.7630000114440918,-0.01052363381844914
160.137931,,0.0003110884501949104,160.43,0.777999997138977,0.02295332688824395
160.60344800000001,,0.00032152962015216864,160.895,0.7739999890327454,0.014924795160119308
161.06896600000002,,0.0003312572080656649,161.361,0.7599999904632568,-0.0150224856293437
161.534483,,0.0003402050195281353,161.825,0.7599999904632568,-0.014618431769750292
162.0,,0.0003483067751357051,162.284,0.6970000267028809,-0.15163261608150747
162.465517,,0.0003554963453368606,162.754,0.7739999890327454,0.016192482116520197
162.931034,,0.00036170799517963115,163.217,0.777999997138977,0.024804859215750586
163.396552,,0.0003668766385364586,163.68,0.7720000147819519,0.011464369807241439
163.862069,,0.00037093810133592524,164.149,0.777999997138977,0.024109815200645313
164.327586,,0.0003738293932798017,164.61,0.7609999775886536,-0.013498188652555355
164.793103,,0.0003754889874729284,165.08,0.7620000243186951,-0.012017499836227487
165.258621,,0.0003758571073424345,165.546,0.7699999809265137,0.004608024980102909
165.72413799999998,,0.00037487602017190793,166.009,0.7570000290870667,-0.024598357242677952
166.189655,,0.00037249033652555314,166.474,0.7630000114440918,-0.012463848484599445
166.655172,,0.00036864731478730256,166.939,0.777999997138977,0.019254461156130224
167.12069,,0.0003632971699904917,167.405,0.7820000052452087,0.027014048784282697
167.58620699999997,,0.0003563933860652737,167.869,0.781000018119812,0.023916579404454835
168.051724,,0.0003478930305836563,168.335,0.7620000243186951,-0.018332536862806097
168.517241,,0.00033775707103611124,168.795,0.7739999890327454,0.007046075086801129
168.98275900000002,,0.000325950691629364,169.261,0.7559999823570251,-0.03282195430706061
169.44827600000002,,0.00031244360955244864,169.728,0.7590000033378601,-0.026806097286158657
169.913793,,0.0002972103896176385,170.191,0.777999997138977,0.014216131022813161
170.37931,,0.00028023075614467744,170.654,0.7609999775886536,-0.023033404782204232
170.844828,,0.000261489900921073,171.124,0.7820000052452087,0.022671796617295167
171.310345,,0.00024097878603832797,171.584,0.777999997138977,0.01407813653299883
171.775862,,0.0002186944403741138,172.054,0.7620000243186951,-0.020495922177857152
172.241379,,0.00019464024846374808,172.519,0.7739999890327454,0.00608582445424252
172.706897,,0.00016882623048115682,172.984,0.7639999985694885,-0.015122704893823391
173.172414,,0.00014126931203004253,173.449,0.777999997138977,0.016078255642863002
173.637931,,0.00011199358243052783,173.914,0.777999997138977,0.016878593301405783
174.103448,,8.103054017529824e-05,174.38,0.7490000128746033,-0.045426540349950945
174.568966,,4.8419324222327844e-05,174.839,0.7839999794960022,0.03174953373078916
175.034483,,1.4206929788809543e-05,175.304,0.781000018119812,0.026157032889954277
175.5,,2.155159268665199e-05,175.77,0.7519999742507935,-0.03608968686063186
175.96551699999998,,5.879295673872982e-05,176.235,0.7910000085830688,0.049773575512251395
176.43103399999998,,9.744547853898307e-05,176.706,0.7609999775886536,-0.014755610274409133
176.896552,,0.00013742893632254615,177.168,0.781000018119812,0.029556832410131243
177.36206900000002,,0.0001786544518493555,177.632,0.7609999775886536,-0.013390663646731282
177.827586,,0.00022102439514227042,178.094,0.765999972820282,-0.002004992439461317
178.293103,,0.0002644323137074882,178.56,0.7739999890327454,0.015768569431351066
178.758621,,0.0003087628873995696,179.024,0.7400000095367432,-0.05811979688673257
179.224138,,0.0003538919100482759,179.49,0.8080000281333923,0.09005013330139051
179.68965500000002,,0.00039968629891674613,179.955,0.7900000214576721,0.0506934878384837
180.155172,,0.000446004133001259,180.421,0.7749999761581421,0.01771498039733532
180.62069,,0.0004926947211056294,180.887,0.7829999923706055,0.03469651455997686
181.086207,,0.000539598700541662,181.353,0.777999997138977,0.023220480817116928
181.551724,,0.0005865481672446629,181.817,0.7760000228881836,0.018163377412504348
182.01724099999998,,0.0006333668380409314,182.283,0.7580000162124634,-0.021848076416574286
182.482759,,0.0006798702457067604,182.747,0.546999990940094,-0.4824148124254328
182.948276,,0.0007258659672897342,183.209,0.753000020980835,-0.03453795569718316
183.413793,,0.000771153886016811,183.677,0.7609999775886536,-0.01805425418088563
183.87931,,0.0008155264871184477,184.139,0.7850000262260437,0.03330182695897135
184.34482799999998,,0.0008587691879638409,184.607,0.7739999890327454,0.008448803629189785
184.81034499999998,,0.0009006607026933348,185.069,0.7860000133514404,0.033776649278104504
185.27586200000002,,0.0009409734409677298,185.534,0.7580000162124634,-0.02794458404871475
185.74137900000002,,0.0009794739401560713,186.006,0.7620000243186951,-0.019830518995345475
186.206897,,0.0010159233309224745,186.464,0.765999972820282,-0.011579791794508834
186.672414,,0.0010500778369968993,186.929,0.7739999890327454,0.005537127010018209
187.137931,,0.0010816893089499778,187.395,0.9580000042915344,0.4062610829852876
187.60344800000001,,0.0011105057890095573,187.861,0.777999997138977,0.014129335837469417
188.06896600000002,,0.001136272103394892,188.327,0.781000018119812,0.020858516427588257
188.534483,,0.001158730483584265,188.792,0.7630000114440918,-0.018006276124698777
189.0,,0.001177621222687509,189.258,0.7609999775886536,-0.02186734333752293
189.465517,,0.0011926833663859126,189.721,0.7570000290870667,-0.029956773433864006
189.931034,,0.001203655422422411,190.191,0.777999997138977,0.016528701186333716
190.39655199999999,,0.0012102760737208074,190.654,0.7639999985694885,-0.013152575851306116
190.862069,,0.001212284912563942,191.117,0.777999997138977,0.018228357047787084
191.327586,,0.001209423236460903,191.584,0.7850000262260437,0.03439147539027414
191.793103,,0.0012014348979668445,192.046,0.7789999842643738,0.02223638433785287
192.25862099999998,,0.0011880671140846119,192.512,0.7580000162124634,-0.02262311928532036
192.72413799999998,,0.0011690711708815587,192.977,0.7850000262260437,0.03703941182068653
193.189655,,0.0011442031606958105,193.443,0.7739999890327454,0.013834417989076546
193.655172,,0.0011132249882102566,193.91,0.7770000100135803,0.021028516604500225
194.12069000000002,,0.001075905545421633,194.375,0.7360000014305115,-0.06776124206748893
194.586207,,0.0010320214836340275,194.84,0.7620000243186951,-0.010721941822791866
195.051724,,0.0009813573253073208,195.306,0.6669999957084656,-0.21745317245820284
195.517241,,0.0009237058796963268,195.772,0.7480000257492065,-0.04090424883142587
195.98275900000002,,0.0008588702529237975,196.231,0.7620000243186951,-0.010487210221287629
196.448276,,0.0007866664926124734,196.699,0.7590000033378601,-0.017264007148172677
196.913793,,0.0007069234399896025,197.161,0.7730000019073486,0.012848426978138493
197.37931,,0.000619479021764117,197.624,0.7599999904632568,-0.01599722591733378
197.844828,,0.0005241794085043148,198.094,0.7749999761581421,0.01604204396895958
198.310345,,0.00042088773667802517,198.56,0.7739999890327454,0.013126837546723908
198.775862,,0.00030949451359968476,199.024,0.753000020980835,-0.033433923278122155
199.241379,,0.00018990963975142657,199.49,0.7820000052452087,0.02889061918582668
199.706897,,6.203623915033841e-05,199.95,0.7730000019073486,0.008407128560868947
200.172414,,7.423229838386893e-05,200.416,0.7820000052452087,0.02714790154708909
200.63793099999998,,0.00021895943566437512,200.881,0.7739999890327454,0.00888730068570051
201.103448,,0.00037211588533917844,201.347,0.7549999952316284,-0.03327735067080151
201.568966,,0.0005336475415226302,201.814,0.7739999890327454,0.007430927754194425
202.034483,,0.0007036305321454689,202.279,0.7620000243186951,-0.019293441440513637
202.5,,0.0008822541999347338,202.743,0.7760000228881836,0.010750094688573344
202.965517,,0.0010694878021936746,203.205,0.7609999775886536,-0.022250582894058797
203.431034,,0.001264848865373218,203.673,0.7609999775886536,-0.022425792414461666
203.896552,,0.0014679031152660335,204.135,0.8539999723434448,0.18016505824985646
204.36206900000002,,0.001679139087493008,204.599,0.7570000290870667,-0.03103417038742755
204.827586,,0.00189963745499192,205.068,0.7820000052452087,0.02370826022771424
205.293103,,0.0021290086230364765,205.535,0.7630000114440918,-0.017274116470006172
205.758621,,0.0023644274549986175,205.998,0.7609999775886536,-0.021098030061674086
206.224138,,0.002604104198907001,206.464,0.7739999890327454,0.007861604881908324
206.689655,,0.0028520383007867686,206.928,0.765999972820282,-0.008847185677509434
207.155172,,0.0031146737684289933,207.394,0.7739999890327454,0.00936263216024543
207.62069,,0.0033884566997555952,207.859,0.7739999890327454,0.01017857644307885
208.086207,,0.003656788168734063,208.324,0.7580000162124634,-0.0238544903090429
208.551724,,0.00391317928034188,208.784,0.781000018119812,0.02706285225467929
209.01724099999998,,0.004185988336781348,209.249,0.7730000019073486,0.01040028927094558
209.482759,,0.004510541935385326,209.717,0.7609999775886536,-0.015042538350416187
209.948276,,0.0048560318817200115,210.179,0.7549999952316284,-0.027501333091918552
210.413793,,0.005124529709905353,210.651,0.7620000243186951,-0.01174459964328279
210.87930999999998,,0.005300520396396354,211.113,0.7820000052452087,0.032212904849907964
211.344828,,0.0055722024183146555,211.576,0.7620000243186951,-0.011107749837150977
211.810345,,0.0061207271765150745,212.039,0.7749999761581421,0.017327490461123918
212.27586200000002,,0.006702585680427922,212.505,0.753000020980835,-0.030632021256662582
212.741379,,0.006750130563901512,212.969,0.7570000290870667,-0.022087518272897098
213.206897,,0.0063127046196625744,213.435,0.7789999842643738,0.02553830611027716
213.672414,,0.006607302174381109,213.902,0.7699999809265137,0.005503155600729045
214.137931,,0.008522728242571734,214.368,0.7739999890327454,0.013682053471371747
214.60344800000001,,0.01020271422509573,214.832,0.777999997138977,0.02177026476531535
215.068966,,0.007766752994818185,215.297,0.777999997138977,0.021073790529876762
215.534483,,0.00013062475395324082,215.77,0.7620000243186951,-0.014528871919934325
216.0,,0.008162634255926674,216.228,0.8550000190734863,0.1873182107654934
216.465517,,0.011351196335074453,216.691,0.7870000004768372,0.03840596813652387
216.93103399999998,,0.008997404729290833,217.154,0.7609999775886536,-0.0189771648513812
217.39655199999999,,0.0057950272886311315,217.622,0.7699999809265137,-6.087163697990561e-05
217.862069,,0.005434590465300784,218.091,0.7749999761581421,0.010208638182585975
218.327586,,0.006983442902383315,218.549,0.7609999775886536,-0.020829279047261784
218.793103,,0.007420496892401529,219.019,0.7990000247955322,0.06152595605823262
219.25862099999998,,0.005978640039112834,219.484,0.7749999761581421,0.008921494806989831
219.724138,,0.00496442680961517,219.95,0.7609999775886536,-0.02177105399203896
220.18965500000002,,0.00660344615165707,220.409,0.7609999775886536,-0.0218331788599649
220.65517200000002,,0.010068425522992013,220.881,0.777999997138977,0.015272101954384148
221.12069,,0.012375275917925144,221.339,0.7839999794960022,0.028540098504630185
221.586207,,0.01180562177583852,221.806,0.7789999842643738,0.017964271222545524
222.051724,,0.009423726963457675,222.271,0.7739999890327454,0.007498669255214543
222.517241,,0.0071791731575335015,222.739,0.7770000100135803,0.014558041835395535
222.98275900000002,,0.005498211037307406,223.202,0.7590000033378601,-0.024056002516692328
223.448276,,0.003249053865185629,223.665,0.7760000228881836,0.013641245421775597
223.913793,,0.0003941471206103839,224.135,0.7820000052452087,0.027411055319601405
224.37931,,0.004604261519158082,224.595,0.7609999775886536,-0.01762691001773256
224.844828,,0.007447997474751848,225.065,0.7749999761581421,0.013580785634541426
225.31034499999998,,0.0075879239488829235,225.531,0.7570000290870667,-0.024957580956762964
225.775862,,0.0054066336038620065,225.989,0.7620000243186951,-0.013437836914442178
226.241379,,0.0026477527140105405,226.455,0.777999997138977,0.021977253501422888
226.706897,,0.0011191329975830102,226.924,0.7509999871253967,-0.03637594203275196
227.172414,,0.001437769995941711,227.389,0.8379999995231628,0.15353743635024608
227.63793099999998,,0.0024427102790053855,227.854,0.7870000004768372,0.042688711629691345
228.103448,,0.0019218883110181492,228.32,0.777999997138977,0.023226942339335362
228.56896600000002,,0.0011780207926674997,228.785,0.7870000004768372,0.04285972496689308
229.03448300000002,,0.004957772528015443,229.25,0.8510000109672546,0.18219852085957655
229.5,,0.005915303561275839,229.713,0.7760000228881836,0.01859029195080849
229.965517,,0.0027508647830096987,230.176,0.7590000033378601,-0.018765803146726538
230.431034,,0.0018705840579593788,230.639,0.7480000257492065,-0.043151000824943775
230.896552,,0.004102124214057413,231.11,0.7839999794960022,0.03477275952658581
231.362069,,0.002921390472243133,231.573,0.7599999904632568,-0.018092593601385685
231.827586,,0.000515624006584169,232.035,0.7829999923706055,0.03138702334444446
232.293103,,0.0008647604340085283,232.501,0.7570000290870667,-0.025918626031102388
232.758621,,0.0011299905235427029,232.965,0.7580000162124634,-0.024411955134077443
233.224138,,0.0012718546197936517,233.431,0.7789999842643738,0.020677702547821645
233.689655,,0.001394072034251946,233.896,0.7870000004768372,0.037476805933294506
234.155172,,0.0007174499572853971,234.362,0.7760000228881836,0.012933515194661111
234.62069,,0.0010427975737034344,234.829,0.7739999890327454,0.00806747024480247
235.086207,,0.003098144170923795,235.295,0.7580000162124634,-0.02721498972877566
235.55172399999998,,0.004249851134468425,235.758,0.7620000243186951,-0.01882767411713808
236.01724099999998,,0.0037726723544863213,236.221,0.7599999904632568,-0.023405947210813488
236.482759,,0.0018298001316506597,236.684,0.777999997138977,0.01570196194206701
236.94827600000002,,0.0006919528851777679,237.153,0.7609999775886536,-0.02132668803713375
237.413793,,0.0027454030801583543,237.614,0.8040000200271606,0.07247960147443216
237.87931,,0.0035449299739740594,238.083,0.7789999842643738,0.018249713605788108
238.344828,,0.0026694789164335027,238.549,0.7760000228881836,0.012054152105605453
238.810345,,0.0004406784238223707,239.011,0.7620000243186951,-0.018014923721898397
239.27586200000002,,0.0015720536395079307,239.478,0.781000018119812,0.023888725488179264
239.741379,,0.0013591633660592793,239.942,0.7279999852180481,-0.09101017802082542
240.206897,,0.0013514774167488683,240.408,0.8209999799728394,0.11221581359810326
240.672414,,0.004254674476640261,240.873,0.7749999761581421,0.012633705950862188
241.137931,,0.004761869360245444,241.339,0.7739999890327454,0.011094777615717973
241.603448,,0.0028503520510681016,241.806,0.777999997138977,0.020431931098535246
242.068966,,0.0006930269596631935,242.264,0.7789999842643738,0.02319646948240873
242.534483,,0.00024826720209369983,242.732,0.7820000052452087,0.030263561489132125
243.0,,0.0005067860148211744,243.194,0.753000020980835,-0.03245791038507308
243.465517,,0.0009575622670353971,243.662,0.7549999952316284,-0.027728302549235036
243.93103399999998,,0.0012794739099666482,244.124,0.7620000243186951,-0.01220395692143083
244.39655199999999,,0.00073943075098572,244.595,0.7599999904632568,-0.016394073820076103
244.862069,,0.00036140179136464956,245.057,0.7770000100135803,0.02069948097722546
245.327586,,0.0008438753644992616,245.523,0.7860000133514404,0.040252670656743775
245.793103,,5.7159500138223655e-06,245.987,0.7739999890327454,0.013945858161118624
246.258621,,0.0016709609123552777,246.453,0.7599999904632568,-0.016821248888663685
246.724138,,0.0027792374747883045,246.918,0.7630000114440918,-0.010645993640931222
247.18965500000002,,0.0020198729802294742,247.383,0.7749999761581421,0.01505433143735866
247.655172,,0.0008839863382839629,247.85,0.7860000133514404,0.03850878181447126
248.12069,,0.0045471839938056695,248.309,0.7820000052452087,0.029233177620780645
248.586207,,0.006396522281205731,248.78,0.7770000100135803,0.017746780191317472
249.051724,,0.00450331100220506,249.239,0.777999997138977,0.01931880498169965
249.517241,,0.0006099817291262697,249.709,0.777999997138977,0.018718003774729288
249.982759,,0.006175400556311098,250.172,0.7329999804496765,-0.07989809076133877
250.44827600000002,,0.009421725836359153,250.636,0.7749999761581421,0.011069522566318608
250.913793,,0.009560828979395057,251.105,0.7870000004768372,0.036736637646759294
251.37931000000003,,0.007687861453163933,251.565,0.7739999890327454,0.008012169820447758
251.844828,,0.005252761637449372,252.03,0.7609999775886536,-0.020625722137225272
252.31034499999998,,0.0029549466370186266,252.495,0.7699999809265137,-0.0012377452151312977
252.77586200000002,,0.0008735459546681009,252.963,0.7580000162124634,-0.02749944289826612
253.241379,,0.000805030869494659,253.428,0.781000018119812,0.022596764140339204
253.706897,,0.0015453416967704248,253.895,0.7609999775886536,-0.02088365500624907
254.172414,,0.0011046479602576172,254.36,0.7829999923706055,0.02724131661729541
254.63793099999998,,0.00021299363321746655,254.819,0.781000018119812,0.023174445853796986
255.10344800000001,,0.00010386002680262994,255.285,0.7480000257492065,-0.048344872169600865
255.56896600000002,,0.0011504187891304561,255.754,0.777999997138977,0.01746324541003956
256.03448299999997,,0.0023128324277040873,256.217,0.7580000162124634,-0.025602880017951926
256.5,,0.0022710858788957,256.68,0.7739999890327454,0.009804101347225171
256.965517,,0.0009669887580059863,257.15,0.7120000123977661,-0.12470017888509459
257.431034,,0.0002634415767675155,257.614,0.7620000243186951,-0.015191835977374807
257.896552,,0.00010427501537615711,258.076,0.7089999914169312,-0.13009903484808932
258.362069,,0.0013588108449361486,258.541,0.777999997138977,0.020757121106839308
258.827586,,0.0027707659870176643,259.004,0.765999972820282,-0.00490440095534018
259.29310300000003,,0.0029938935328635615,259.47,0.7760000228881836,0.017303658368268644
259.758621,,0.00229410608419164,259.935,0.7739999890327454,0.01329410576381406
260.224138,,0.0018675220010895717,260.401,0.75,-0.03873012703703369
260.689655,,0.0023031682806281175,260.865,0.7580000162124634,-0.02113066746394324
261.155172,,0.002880738302684771,261.331,0.7739999890327454,0.013800112226933569
261.62068999999997,,0.0025077435922169493,261.795,0.7609999775886536,-0.01454890097523525
262.086207,,0.001013828316748211,262.26,0.7749999761581421,0.015828105855919074
262.551724,,0.000797375835668376,262.728,0.7990000247955322,0.06789935529609188
263.017241,,0.0021928499050920423,263.19,0.7739999890327454,0.013132235706679828
263.482759,,0.003150724441436279,263.658,0.7739999890327454,0.01275642946035561
263.94827599999996,,0.0038410499722507344,264.12,0.7580000162124634,-0.022541330319964095
264.413793,,0.0038604372381459175,264.584,0.7739999890327454,0.011827708332823119
264.87931,,0.0024815846255900327,265.053,0.753000020980835,-0.034447534465488705
265.34482799999995,,0.0002131650968239396,265.519,0.7739999890327454,0.010762444034197016
265.810345,,0.002736280382250856,265.984,0.7739999890327454,0.010220409309802036
266.27586199999996,,0.003082852109691385,266.449,0.7590000033378601,-0.022984670685967955
266.741379,,0.0004475973091777381,266.913,0.7549999952316284,-0.03219223770079051
267.206897,,0.0037782476590057855,267.379,0.7699999809265137,4.210117612392546e-05
267.672414,,0.0068046789215609905,267.843,0.7580000162124634,-0.0264853686227882
268.137931,,0.006739426422298652,268.309,0.7760000228881836,0.012420138516366098
268.603448,,0.004487384743523479,268.773,0.7820000052452087,0.025265347131431738
269.06896600000005,,0.002990361313294618,269.239,0.7559999823570251,-0.03151586555374364
269.53448299999997,,0.00402467802175232,269.702,0.7820000052452087,0.02508663760606307
270.0,,0.006164910828321338,270.165,0.7549999952316284,-0.03368460917475488
270.465517,,0.006706000885792026,270.635,0.9940000176429749,0.487161488382721
270.931034,,0.005137383981509155,271.098,0.7979999780654907,0.060391129460315045
271.396552,,0.003514355900367359,271.565,0.7739999890327454,0.008432857348531948
271.86206899999996,,0.003512186048750209,272.03,0.7620000243186951,-0.017313288211005157
272.327586,,0.004419717562845886,272.496,0.7770000100135803,0.01581831221468458
272.793103,,0.004376566736666705,272.954,0.7770000100135803,0.016309914338720956
273.258621,,0.0025531999340531485,273.42,0.7609999775886536,-0.01803333970867434
273.724138,,0.00039715218346034735,273.888,0.7630000114440918,-0.013154420221396046
274.18965499999996,,0.0032108322516898524,274.354,0.777999997138977,0.02003649470626565
274.655172,,0.004678391887179216,274.821,0.7760000228881836,0.016164434763118032
275.12069,,0.004059042288207102,275.279,0.7730000019073486,0.010072477802432844
275.586207,,0.0017493392705984533,275.747,0.7789999842643738,0.02353336324685076
276.051724,,0.0004656480172582225,276.209,0.7739999890327454,0.012962275146176965
276.517241,,0.0004907404610657797,276.68,0.777999997138977,0.021922448727067875
276.98275900000004,,0.0023617427898589387,277.142,0.7580000162124634,-0.02148901763913616
277.448276,,0.0067349113099385224,277.606,0.7789999842643738,0.024335245164374564
277.913793,,0.010238978695878328,278.076,0.7739999890327454,0.013424725494839525
278.37931,,0.011103728844569694,278.534,0.777999997138977,0.022033733940639528
278.844828,,0.009287494083688787,279.005,0.7699999809265137,0.004414678955316626
279.31034500000004,,0.006353301297041462,279.471,0.7559999823570251,-0.026354078142278886
279.77586199999996,,0.004001051944249107,279.929,0.765999972820282,-0.0049042971237215904
280.241379,,0.0024530372476962397,280.394,0.7599999904632568,-0.01837039263194798
280.706897,,0.0006425094348473427,280.861,0.7300000190734863,-0.08416894374854947
281.172414,,0.0018009273249562328,281.327,0.7889999747276306,0.043901716877327954
281.637931,,0.003415886655217861,281.792,0.7760000228881836,0.015096332507265517
282.10344799999996,,0.002393079295161666,282.257,0.7789999842643738,0.021152128174328134
282.568966,,0.0011589195120800281,282.721,0.7770000100135803,0.016333186552574177
283.034483,,0.005165862614439073,283.191,0.7609999775886536,-0.018954112636054045
283.5,,0.007733214009702157,283.651,0.7760000228881836,0.013342992519142739
283.965517,,0.00856789015325043,284.12,0.8270000219345093,0.12413068280212876
284.431034,,0.00814244020801521,284.584,0.7559999823570251,-0.030806815196731247
284.89655200000004,,0.006490244183110933,285.046,0.7620000243186951,-0.01791211234619906
285.362069,,0.003625858963129699,285.512,0.7739999890327454,0.008134443661632382
285.827586,,0.0005204197000266199,285.977,0.7760000228881836,0.012477723316387445
286.293103,,0.0013648804847598164,286.442,0.7699999809265137,-0.0005254777246526477
286.758621,,0.0014945077462430929,286.909,0.765999972820282,-0.009091754011701677
287.22413800000004,,0.0006402033746969154,287.375,0.7879999876022339,0.03906098438038506
287.689655,,0.0001029228602272522,287.839,0.7599999904632568,-0.0216524301011041
288.155172,,0.00022469734198632163,288.305,0.7789999842643738,0.02008664144276626
288.62069,,0.00015601912018508085,288.769,0.777999997138977,0.01829713770021624
289.086207,,0.0004948358956482226,289.235,0.7039999961853027,-0.1425036159371027
289.55172400000004,,3.151718835112593e-06,289.695,0.7739999890327454,0.01043584328726303
290.01724099999996,,0.0016120617745384797,290.165,0.7590000033378601,-0.02180839733512897
290.482759,,0.0031398927863938463,290.628,0.7739999890327454,0.011295116760944312
290.948276,,0.002563167914936531,291.091,0.7519999742507935,-0.03623678876280452
291.413793,,0.0006762053796885664,291.556,0.7870000004768372,0.04037647171502412
291.87931,,0.004401937687203811,292.019,0.7559999823570251,-0.02685011707455976
292.344828,,0.00543917910518931,292.485,0.7770000100135803,0.019154537914409114
292.81034500000004,,0.0026920325666951466,292.951,0.7609999775886536,-0.015517279801147116
293.275862,,0.0017796229494806098,293.417,0.7630000114440918,-0.011045139860855249
293.74137900000005,,0.004733939543135053,293.883,0.746999979019165,-0.04586422066859159
294.206897,,0.004551057987754109,294.349,0.7630000114440918,-0.01104253293372848
294.672414,,0.002090845657361636,294.813,0.7609999775886536,-0.015510553324216175
295.13793100000004,,0.0007856211577900166,295.279,0.7749999761581421,0.014810904310749395
295.603448,,0.003040036357284477,295.743,0.7739999890327454,0.01239075866544935
296.068966,,0.004788378177751391,296.205,0.7749999761581421,0.014274760960082233
296.534483,,0.006377382790155763,296.669,0.7850000262260437,0.03572404132135054
297.0,,0.007673175927606095,297.139,0.7689999938011169,0.0004971079233563264
297.46551700000003,,0.0081569244880269,297.599,0.7289999723434448,-0.0870373606570876
297.931034,,0.0073194737473921655,298.07,0.7760000228881836,0.014962791314949904
298.396552,,0.005124080195424665,298.536,0.7739999890327454,0.010214937914563939
298.862069,,0.0024947647616802154,298.999,0.5669999718666077,-0.4411403124660399
299.327586,,0.0009283865302012296,299.465,0.7990000247955322,0.06395602128380692
299.79310300000003,,0.0008661085128018504,299.924,0.7789999842643738,0.02007283925605834
300.258621,,0.0008946436280790069,300.39,0.753000020980835,-0.03682858717324377
300.724138,,0.00035759987363925686,300.854,0.6439999938011169,-0.27449972445427856
301.189655,,0.001872428112400546,301.32,0.7620000243186951,-0.017555127007253955
301.65517200000005,,0.0011524687071939519,301.785,0.8040000200271606,0.07388170708100522
302.12069,,0.002505047052143709,302.251,0.7739999890327454,0.008530549425681044
302.586207,,0.006923513578446041,302.714,0.7820000052452087,0.02604216605580778
303.05172400000004,,0.009422939151801342,303.184,0.7609999775886536,-0.019556950959523534
303.517241,,0.009142405206397248,303.647,0.7910000085830688,0.04601975084044638
303.982759,,0.00680871725643255,304.109,0.7480000257492065,-0.04738817847606892
304.448276,,0.003486357005443128,304.577,0.7580000162124634,-0.025281436035080408
304.913793,,0.00022385622054330723,305.039,0.7480000257492065,-0.04671306597880469
305.37931000000003,,0.001971027046206024,305.504,0.7760000228881836,0.0146666204721702
305.844828,,0.0026886755730294947,305.97,0.7739999890327454,0.010697317063953344
306.310345,,0.0023877541790211457,306.435,0.7590000033378601,-0.02159685277739835
306.775862,,0.0017395842278509195,306.903,0.7609999775886536,-0.016870295871022324
307.241379,,0.0010488693861331914,307.369,0.781000018119812,0.027043502223285044
307.70689699999997,,0.0005015915442639547,307.836,0.7620000243186951,-0.014049780588565892
308.172414,,0.00042974700606242955,308.294,0.7580000162124634,-0.022513608124048852
308.637931,,0.0009643323921710121,308.762,0.7749999761581421,0.01471526773718855
309.103448,,0.0017601622492954703,309.224,0.777999997138977,0.021378544666011915
309.568966,,0.0023211038709674376,309.695,0.7839999794960022,0.03450938599599163
310.034483,,0.0024100186078008946,310.157,0.7879999876022339,0.0432131467818747
310.5,,0.0020413219275807813,310.621,0.7870000004768372,0.04095452557872881
310.96551700000003,,0.0011757612923109695,311.091,0.9290000200271606,0.35017905830367985
311.431034,,0.0005032050989189109,311.549,0.7829999923706055,0.03189617205787579
311.896552,,0.003219036397771764,312.019,0.7580000162124634,-0.022823095343420967
312.362069,,0.006162641874789742,312.485,0.7770000100135803,0.018270056638417746
312.827586,,0.007392565484754454,312.95,0.7749999761581421,0.013573562683185674
313.29310300000003,,0.005634283541447371,313.416,0.7490000128746033,-0.04343727311814071
313.758621,,0.002105873012518571,313.881,0.8360000252723694,0.14572510630434662
314.224138,,0.0004988905922316215,314.339,0.7950000166893005,0.056020958283145586
314.689655,,0.001066889934831685,314.807,0.7620000243186951,-0.016241166607540353
315.155172,,0.001155641109230383,315.272,0.7829999923706055,0.029167151255976072
315.62068999999997,,0.0026746220387528206,315.74,0.781000018119812,0.024501817150503365
316.086207,,0.005425199865816291,316.202,0.7680000066757202,-0.0040830749726818135
316.551724,,0.00760412143007739,316.665,0.7910000085830688,0.04581796772715743
317.017241,,0.008017280513716958,317.135,0.746999979019165,-0.05018903758533845
317.482759,,0.00695451172696728,317.598,0.7689999938011169,-0.0023391906470480424
317.94827599999996,,0.005313775331653258,318.061,0.7570000290870667,-0.028494637218830086
318.413793,,0.003744500917455343,318.527,0.777999997138977,0.017315105978883794
318.87931000000003,,0.0026012342541841603,318.99,0.7720000147819519,0.004370314524426707
319.344828,,0.0021190736122220053,319.456,0.777999997138977,0.017634645883677715
319.810345,,0.0024143006106975918,319.922,0.7580000162124634,-0.02568662434960163
320.275862,,0.003384778450955947,320.387,0.777999997138977,0.018188988090122434
320.741379,,0.00461567685759568,320.854,0.7450000047683716,-0.05336266415167613
321.20689699999997,,0.005465859058568136,321.32,0.7879999876022339,0.04069293221133786
321.672414,,0.005402540167558802,321.78,0.7570000290870667,-0.026453130953262634
322.137931,,0.00431142335026759,322.246,0.7910000085830688,0.0480186145584984
322.603448,,0.0024881818685601924,322.714,0.7760000228881836,0.015729704376035922
323.068966,,0.00035033549875183574,323.176,0.7689999938011169,0.0008499689332173588
323.53448299999997,,0.0017449060904333293,323.639,0.7749999761581421,0.014259947660442984
324.0,,0.0032891995252447024,324.109,0.7609999775886536,-0.01594734294241186
324.465517,,0.0034791029115038355,324.569,0.777999997138977,0.021329087108696822
324.931034,,0.0018742583146057333,325.039,0.7689999938011169,0.0018980469412690467
325.396552,,0.0006197246886741798,325.505,0.7760000228881836,0.017256733830221378
325.86206899999996,,0.0020368899111621024,325.97,0.9539999961853027,0.4050949060828419
326.327586,,0.0012709011827168103,326.435,0.7630000114440918,-0.011056547801175619
326.793103,,0.0004819636589120081,326.895,0.7760000228881836,0.017164818389811907
327.258621,,0.0008912863723442569,327.361,0.7609999775886536,-0.01568871903467946
327.724138,,0.0008223975907091952,327.824,0.7770000100135803,0.018928222202939545
328.189655,,0.002961702710410692,328.29,0.7739999890327454,0.012090261353228
328.655172,,0.003275534240630076,328.754,0.7509999871253967,-0.03837215099338517
329.12068999999997,,0.001330612456223167,329.224,0.7760000228881836,0.015699725012294254
329.586207,,0.0012305968257192022,329.688,0.777999997138977,0.019634616620910584
330.051724,,0.0024648924327878804,330.15,0.7739999890327454,0.010483769487310796
330.517241,,0.0019373175119945314,330.618,0.7789999842643738,0.0209410506974077
330.982759,,0.0008591304340427094,331.08,0.753000020980835,-0.036125470249245686
331.44827599999996,,0.0006225160722975795,331.546,0.7839999794960022,0.031018814075389672
331.913793,,0.00140364495456124,332.016,0.765999972820282,-0.008549040813282347
332.37931,,0.0022449396541565896,332.474,0.7609999775886536,-0.0197409325003022
332.844828,,0.002250716904733451,332.94,0.777999997138977,0.017061267020822217
333.310345,,0.0014971619729466858,333.405,0.753000020980835,-0.03756741270708457
333.77586199999996,,0.000862245483137019,333.873,0.765999972820282,-0.009329302999470396
334.241379,,0.0011054683151512825,334.339,1.059999942779541,0.6311968562333721
334.706897,,0.0021988376007183526,334.806,0.7689999938011169,-0.002692419441143046
335.17241399999995,,0.0036339493214373325,335.264,0.7620000243186951,-0.01775919423456938
335.637931,,0.005161123219485998,335.732,0.7620000243186951,-0.017500514541034982
336.103448,,0.006759268015605818,336.194,0.7770000100135803,0.015505042375772209
336.56896600000005,,0.007980435645271403,336.665,0.7739999890327454,0.009352395724119205
337.034483,,0.008070727076021106,337.128,0.7689999938011169,-0.001112031230091068
337.5,,0.00695042589527677,337.591,0.7789999842643738,0.021134989040833423
337.965517,,0.005447913540785613,338.054,0.7620000243186951,-0.015424494451353124
338.431034,,0.004318143506268856,338.519,0.765999972820282,-0.0062314266506061896
338.89655200000004,,0.0035609227403257007,338.984,0.7599999904632568,-0.01883941484040381
339.36206899999996,,0.0029212460553553823,339.449,0.777999997138977,0.020810472645672297
339.827586,,0.0025031153475010112,339.914,0.7749999761581421,0.01466521125011894
340.293103,,0.0024273271603332583,340.379,0.7509999871253967,-0.03728825427783532
340.758621,,0.002166974832246767,340.847,0.6710000038146973,-0.2113163525103632
341.224138,,0.0008731560685691698,341.313,0.7940000295639038,0.05684101128314939
341.68965499999996,,0.0014359975895869169,341.78,0.7580000162124634,-0.021491149003679547
342.155172,,0.003545648299891454,342.246,0.7760000228881836,0.017737299658683075
342.62069,,0.00442763928893215,342.706,0.7630000114440918,-0.01065996547328112
343.086207,,0.004645875052724462,343.176,0.7820000052452087,0.030574211678706713
343.551724,,0.005720670462080855,343.636,0.7739999890327454,0.012904553486634449
344.01724099999996,,0.00811824918326326,344.105,0.7570000290870667,-0.0244460406968053
344.48275900000004,,0.010419944661298733,344.564,0.7549999952316284,-0.029181384572769906
344.948276,,0.01062919063062772,345.029,0.7910000085830688,0.04881983524721912
345.413793,,0.008059208335124121,345.495,0.7760000228881836,0.0156723402056946
345.87931,,0.004004062817794793,345.961,0.7789999842643738,0.021717807915451682
346.344828,,0.0008210993370306006,346.427,0.7739999890327454,0.01032690820935886
346.81034500000004,,0.00017651887653331194,346.892,0.7820000052452087,0.0272671173669968
347.275862,,0.0017220989159977343,347.357,0.7599999904632568,-0.02112810140842731
347.741379,,0.003394474542134195,347.824,0.7639999985694885,-0.012839895987682783
348.206897,,0.003301155426551728,348.29,0.7570000290870667,-0.02846485478038512
348.672414,,0.0014756940645737637,348.75,0.7820000052452087,0.025691307054531105
349.13793100000004,,0.00030395432245246376,349.22,0.7739999890327454,0.008027444899777796
349.60344799999996,,0.00041152655316782367,349.68,0.7789999842643738,0.018769596285594287
350.068966,,0.0011056636816201184,350.15,0.7820000052452087,0.025243405424313217
350.534483,,0.002914850032297093,350.61,0.7739999890327454,0.007843375415825238
351.0,,0.0039872425301933035,351.08,0.7609999775886536,-0.020359488910602654
351.465517,,0.0044376437745857885,351.545,0.777999997138977,0.01688388662716551
351.93103399999995,,0.004785778731865062,352.008,0.8709999918937683,0.219787203889807
352.396552,,0.004833188383343926,352.474,0.7979999780654907,0.06111091564054604
352.862069,,0.003756478984618759,352.94,0.7459999918937683,-0.0517509390692069
353.32758600000005,,0.001269479716118932,353.405,0.765999972820282,-0.007703915988839549
353.793103,,0.0018738569381234547,353.866,0.777999997138977,0.01894509724706147
354.258621,,0.004779147929607729,354.331,0.7549999952316284,-0.030643329746779024
354.72413800000004,,0.007254450396904625,354.795,0.5410000085830688,-0.4963596870971341
355.189655,,0.009355443969004305,355.261,0.765999972820282,-0.005675703597425311
355.655172,,0.010659197971715812,355.724,0.777999997138977,0.02091884491860786
356.12069,,0.010540866285009267,356.194,0.7940000295639038,0.05618159402119544
356.586207,,0.008873238399341827,356.654,0.7839999794960022,0.03474082112867138
357.05172400000004,,0.0062866455881871244,357.124,0.7369999885559082,-0.0673801872856315
357.517241,,0.0041778879386146816,357.587,0.7799999713897705,0.026496924447143917
357.982759,,0.004227631257922081,358.05,0.7559999823570251,-0.025681646295511104
358.448276,,0.006785311227999259,358.516,0.8740000128746033,0.23142029615623058
358.913793,,0.009568999895120703,358.984,0.777999997138977,0.02220473496768369
359.37931000000003,,0.009318889783372215,359.449,0.7789999842643738,0.024232000039748035
359.844828,,0.005559894989755213,359.91,0.7739999890327454,0.013103698235743179
360.310345,,0.0017867870567467809,360.376,0.7620000243186951,-0.013352278055681826
360.775862,,0.001777322944124205,360.843,0.43299999833106995,-0.7305147258190471
361.241379,,0.00502697902113474,361.309,0.7609999775886536,-0.01637361168083029
361.706897,,0.006962804599540989,361.773,0.765999972820282,-0.005984477648800521
362.172414,,0.00406045740899422,362.239,0.7789999842643738,0.021808367393945247
362.63793100000004,,0.00203897061118992,362.702,0.7580000162124634,-0.024481071487427848
363.103448,,0.006336671257571684,363.164,0.7760000228881836,0.014205639737553465
363.568966,,0.006035156589003895,363.632,0.7870000004768372,0.03766817934375682
364.034483,,0.0032360333638073295,364.094,0.7760000228881836,0.013243721007393445
364.5,,0.0020357266931763213,364.56,0.7770000100135803,0.015020777877372276
364.96551700000003,,0.004058234922927627,365.024,0.7549999952316284,-0.03324095295248699
365.431034,,0.007414459637517138,365.49,0.9290000200271606,0.3455959158382801
365.896552,,0.00926876985567396,365.955,0.777999997138977,0.016466129343465277
366.362069,,0.008593698443731333,366.421,0.765999972820282,-0.0097348487651083
366.827586,,0.006640875967338179,366.888,0.7770000100135803,0.014268292416235288
367.29310300000003,,0.005417092748624663,367.353,0.7620000243186951,-0.01828003131746568
367.758621,,0.005889479953605631,367.821,0.75,-0.04420407406094198
368.224138,,0.007387696994196137,368.285,0.7609999775886536,-0.01993854388385052
368.689655,,0.008491497856930177,368.747,0.7590000033378601,-0.02392434154806638
369.155172,,0.008297348095894856,369.209,0.7730000019073486,0.007007598846142023
369.62068999999997,,0.006672660822160315,369.68,0.6669999957084656,-0.22345430039373243
370.086207,,0.0036698041510506456,370.142,0.7789999842643738,0.021056645099156297
370.55172400000004,,0.0004271147210783882,370.61,0.7739999890327454,0.010679206351815665
371.017241,,0.0043202068139830746,371.073,0.7720000147819519,0.006836916985980781
371.482759,,0.0060274694776364605,371.539,0.7820000052452087,0.029121301573447715
371.948276,,0.0048435360688198256,372.002,0.7580000162124634,-0.022701166363312576
372.413793,,0.002455094808662534,372.467,0.781000018119812,0.02782512878969836
372.87931000000003,,0.0012559936859927725,372.935,0.777999997138977,0.02164600738346786
373.344828,,0.0016963636691892862,373.401,0.7820000052452087,0.030646198171884634
373.810345,,0.001904757785864351,373.865,0.7720000147819519,0.009064948467502458
374.275862,,3.2150180630462785e-05,374.331,0.7609999775886536,-0.014782352834206116
374.741379,,0.00378486586014107,374.795,0.7590000033378601,-0.01911329600624848
375.20689699999997,,0.006972552154207168,375.254,0.7620000243186951,-0.012643627718559598
375.672414,,0.007539072096765942,375.724,0.753000020980835,-0.032408353321306864
376.137931,,0.005595394036498804,376.187,0.777999997138977,0.0218156355322879
376.603448,,0.0028023657519616906,376.65,0.7599999904632568,-0.017719385136859774
377.068966,,0.0005527816522924724,377.12,0.7649999856948853,-0.007212520557223193
377.53448299999997,,0.0006983776653552721,377.584,0.777999997138977,0.02066892146409776
378.0,,0.0009144515430650822,378.046,0.7630000114440918,-0.012492136662003814
378.465517,,0.00029116220177729103,378.512,0.7870000004768372,0.03928915496718059
378.931034,,0.00048584744659417676,378.977,0.7789999842643738,0.021345255815878747
379.396552,,0.0006167581083701513,379.443,0.7559999823570251,-0.029270760754021855
379.862069,,1.5719129880612358e-05,379.91,0.7870000004768372,0.03778349100466682
380.327586,,0.0008629664283396289,380.369,0.7490000128746033,-0.045450624536701935
380.79310300000003,,0.001412822928159795,380.836,0.7770000100135803,0.015158232010155275
381.258621,,0.0014488798671366452,381.301,0.753000020980835,-0.03745821753177344
381.724138,,0.000978579703543615,381.773,0.7620000243186951,-0.018104691330840215
382.189655,,0.0005238282047677937,382.231,0.7710000276565552,0.0013314624209448192
382.655172,,0.0010961128936001604,382.698,0.7639999985694885,-0.014002437069512087
383.12068999999997,,0.003110239452634691,383.161,0.7739999890327454,0.0077918542586263104
383.586207,,0.005488895980573731,383.624,0.7620000243186951,-0.01825317697012966
384.051724,,0.00651180805677866,384.094,0.8009999990463257,0.06690096148207673
384.517241,,0.005551142039975454,384.56,0.7900000214576721,0.04320601843183788
384.982759,,0.0035447897731014887,385.023,0.7789999842643738,0.019585719174717943
385.44827599999996,,0.0018715782864024185,385.488,0.7860000133514404,0.035244516686305016
385.913793,,0.001240533204034851,385.955,0.7739999890327454,0.009558910716641559
386.37931,,0.001618490920355168,386.421,0.7590000033378601,-0.022627757525185064
386.84482799999995,,0.002639451397059012,386.88,0.7789999842643738,0.02145686864540111
387.310345,,0.0038269696398273937,387.346,0.7570000290870667,-0.025959251471086443
387.775862,,0.004776380432846255,387.811,0.753000020980835,-0.034174311627897816
388.241379,,0.0053829624937269255,388.276,0.6460000276565552,-0.266823149473894
388.70689699999997,,0.005692095292544862,388.739,0.7739999890327454,0.012461153216744947
389.172414,,0.005449139587006286,389.209,0.7850000262260437,0.03678432043047716
389.637931,,0.004174369014524301,389.672,0.7580000162124634,-0.021749378952120924
390.103448,,0.001942748057448196,390.135,0.777999997138977,0.022035993666798596
390.56896600000005,,0.00020624874048916626,390.603,0.7820000052452087,0.03087947545525273
391.03448299999997,,0.001102112536482941,391.065,0.7580000162124634,-0.021366538832498314
391.5,,0.0007221954614605615,391.531,0.7950000166893005,0.05919646748722611
391.965517,,0.0002766257798462511,391.997,0.7720000147819519,0.008954118616996479
392.431034,,0.0008919319701681202,392.462,0.753000020980835,-0.03265619411763429
392.896552,,0.0024828068707754523,392.929,0.7739999890327454,0.012802964425064997
393.36206899999996,,0.003951016927772353,393.395,0.7609999775886536,-0.015878830942407218
393.827586,,0.00409129628175433,393.854,0.777999997138977,0.02074361004777097
394.293103,,0.0022633376171457315,394.32,0.777999997138977,0.020287161227098522
394.75862099999995,,0.0011408266608993228,394.784,0.7820000052452087,0.02851829149979486
395.224138,,0.004434276923955682,395.25,0.7620000243186951,-0.015550212010931966
395.68965499999996,,0.005463703402354079,395.721,0.7620000243186951,-0.016042998448113223
396.155172,,0.003594336985151202,396.183,0.7770000100135803,0.016162017655302587
396.62069,,0.000705661990437966,396.644,0.847000002861023,0.1682275489372666
397.086207,,0.0005721981792289465,397.114,0.7570000290870667,-0.028241049140351
397.551724,,0.0003817249834882601,397.576,0.781000018119812,0.02371637181672451
398.017241,,0.001712581649303661,398.039,0.7739999890327454,0.008204885307275398
398.48275900000004,,0.0012113285877330309,398.505,0.7620000243186951,-0.01812258228985953
398.94827599999996,,0.0016205057935277348,398.972,0.7599999904632568,-0.022581712609616132
399.413793,,0.0053245977202332415,399.438,0.7760000228881836,0.012259925565116389
399.87931,,0.007683570559564567,399.903,0.7739999890327454,0.007971506910098486
400.344828,,0.0074298815829000765,400.369,0.765999972820282,-0.009305269943746737
400.810345,,0.005346981290349994,400.836,0.777999997138977,0.017069474513794994
401.27586199999996,,0.0034525931917309097,401.294,0.7260000109672546,-0.09591893939149884
401.741379,,0.002703926387206709,401.762,0.753000020980835,-0.03673437677315094
402.206897,,0.002040916592153328,402.224,0.7620000243186951,-0.01671689722405687
402.672414,,0.00032805267299342326,402.695,0.7620000243186951,-0.01627052779691966
403.137931,,0.0014769820383196432,403.157,0.777999997138977,0.019057569020056935
403.60344799999996,,0.0013812216182465236,403.625,0.7789999842643738,0.021715471708076948
404.068966,,0.0006828291986624044,404.087,0.7870000004768372,0.039619195800888594
404.534483,,0.002565128958722104,404.553,0.847000002861023,0.17079465624128481
405.0,,0.0029487582037865433,405.016,0.781000018119812,0.027429365191581574
405.465517,,0.003137673290866626,405.482,0.7580000162124634,-0.022300058681486698
405.931034,,0.004794346653306973,405.947,0.7649999856948853,-0.006729910561965238
406.39655200000004,,0.007070384278187183,406.412,0.777999997138977,0.021842467770693413
406.862069,,0.007524422441315564,406.877,0.777999997138977,0.02201544271300696
407.327586,,0.005553564978526668,407.342,0.7559999823570251,-0.02582440419968373
407.793103,,0.0034548669747527026,407.809,0.777999997138977,0.022110638230897726
408.258621,,0.003680435884742733,408.275,0.7599999904632568,-0.01718613891711238
408.72413800000004,,0.00584711784322045,408.736,0.6420000195503235,-0.2744334743873057
409.18965499999996,,0.006955950218408804,409.206,0.7739999890327454,0.01289869330013422
409.655172,,0.004384744463328967,409.669,0.7620000243186951,-0.013566623935634828
410.12069,,0.001364307940135816,410.132,0.7820000052452087,0.02962532246947409
410.586207,,0.006809074161440474,410.595,0.8389999866485596,0.15338168017564277
411.05172400000004,,0.008668718853330436,411.065,0.765999972820282,-0.006117277249983686
411.51724099999996,,0.006930001239331073,411.53,0.828000009059906,0.12848449621909822
411.982759,,0.004216832518801545,411.99,0.7760000228881836,0.014717997905267509
412.448276,,0.002394503156982901,412.456,0.7580000162124634,-0.02496299602310422
412.913793,,0.001093602499296768,412.92,0.7599999904632568,-0.02104679261696725
413.37931,,0.00030242361879081114,413.386,0.7760000228881836,0.013408533993799753
413.844828,,0.000917652192271968,413.85,0.7820000052452087,0.02612833888711279
414.31034500000004,,0.00040076607783917596,414.316,0.7789999842643738,0.01930264885599899
414.775862,,0.0031513770547777426,414.781,0.7820000052452087,0.025620189394169334
415.241379,,0.005509036181572995,415.247,0.7990000247955322,0.06251701522475339
415.706897,,0.006258288164624691,415.709,0.7820000052452087,0.025422365503706825
416.172414,,0.005789508176322431,416.18,0.7760000228881836,0.012376691407903588
416.63793100000004,,0.005302218345184165,416.643,0.7519999742507935,-0.03980317544327795
417.103448,,0.005358007670857778,417.105,0.7789999842643738,0.019205684234644343
417.568966,,0.005237014359377272,417.573,0.7839999794960022,0.03035635482551201
418.034483,,0.003797444377998642,418.036,0.7400000095367432,-0.06518294174877591
418.5,,0.001173151681115352,418.501,0.75,-0.04302302540124559
418.96551700000003,,0.0007299859969648894,418.965,0.7760000228881836,0.014035921130029725
419.43103399999995,,0.00013477611303947006,419.431,0.7870000004768372,0.03844408382480424
419.896552,,0.002367124753870187,419.898,0.7739999890327454,0.010580658692636757
420.362069,,0.004339519030026501,420.364,0.777999997138977,0.019755870748078493
420.827586,,0.004202275882380329,420.829,0.7570000290870667,-0.025548250335925428
421.293103,,0.002457817551002631,421.295,0.7609999775886536,-0.01641388820624426
421.758621,,0.00035636461076381096,421.758,0.7620000243186951,-0.013855915592159842
422.22413800000004,,0.001330009068575772,422.22,0.7680000066757202,-0.0004568160020764989
422.689655,,0.0020171229284861895,422.684,0.7789999842643738,0.02377409772195575
423.15517200000005,,0.0012478414661964135,423.154,0.7789999842643738,0.02397105662789122
423.62069,,0.00040159526845219817,423.614,0.7620000243186951,-0.012943736670212883
424.086207,,0.001312998702332999,424.083,0.7760000228881836,0.01760081488537817
424.55172400000004,,0.0003836302649605183,424.549,0.7609999775886536,-0.01511540238412939
425.017241,,0.0018115295511260965,425.012,0.7739999890327454,0.013092167712158556
425.482759,,0.0036125244007502787,425.477,0.777999997138977,0.021617457181589854
425.948276,,0.003768878542413587,425.943,0.7620000243186951,-0.013498452203632872
426.413793,,0.002459603404079656,426.409,0.777999997138977,0.02104197336423765
426.87931000000003,,0.0010990879071497211,426.873,0.7739999890327454,0.011959346080279496
427.344828,,0.0009883841869802981,427.339,0.7570000290870667,-0.025484400326850943
427.810345,,0.0020582907625377317,427.799,0.7739999890327454,0.011119227292180005
428.275862,,0.0031268019987017253,428.264,0.7720000147819519,0.006315854389853236
428.741379,,0.0032101868862403314,428.732,0.7870000004768372,0.03855093659841374
429.20689699999997,,0.0021673906352221496,429.194,0.7590000033378601,-0.022880667633740238
429.672414,,0.00035242509492190705,429.665,0.7599999904632568,-0.02110386716099032
430.137931,,0.0016473696154730515,430.128,0.7760000228881836,0.013392476753933923
430.603448,,0.0029249669288022462,430.591,0.7609999775886536,-0.01959839718009152
431.068966,,0.0025865648406917033,431.061,0.8080000281333923,0.08254831759878271
431.534483,,0.0006357936267120557,431.519,0.7089999914169312,-0.1333196834172368
432.0,,0.0015596809398080189,431.991,0.7599999904632568,-0.02231844128260635
432.46551700000003,,0.0020858992061599142,432.449,0.7620000243186951,-0.01799585467886824
432.931034,,0.0001479928283624126,432.921,0.7770000100135803,0.014726390311236275
433.396552,,0.0029944222781880464,433.379,0.7839999794960022,0.030096017108759546
433.862069,,0.004945228902245006,433.844,0.7820000052452087,0.025931225813186347
434.327586,,0.004223672315848463,434.31,0.7480000257492065,-0.04788372178847033
434.79310300000003,,0.0014937102870020962,434.777,0.7749999761581421,0.011256462783613986
435.258621,,0.001161485985110059,435.242,0.7549999952316284,-0.03195193237026914
435.724138,,0.00210488317013786,435.71,0.7620000243186951,-0.016300439923293462
436.189655,,0.0013838300944059895,436.172,0.7770000100135803,0.016804238339472068
436.655172,,0.0003643704310018235,436.635,0.7509999871253967,-0.03940455420390293
437.12068999999997,,0.0002538217735108089,437.105,0.7770000100135803,0.017674035139635096
437.586207,,0.0009273566675253679,437.564,0.7739999890327454,0.011556323227184688
438.051724,,0.0012404275916746308,438.03,0.7549999952316284,-0.029447910521902983
438.517241,,0.0005068514083706803,438.495,0.7749999761581421,0.014474588570528886
438.982759,,0.0006333541352861275,438.962,0.7680000066757202,-0.000477276684896114
439.448276,,0.0010160208661173585,439.428,0.7789999842643738,0.02372671677277271
439.913793,,0.00024354691778661055,439.895,0.7900000214576721,0.04786436844297179
440.37931000000003,,0.0011624753065948546,440.36,0.7770000100135803,0.019643021263967223
440.844828,,0.0025051133293220373,440.825,0.7720000147819519,0.008776173066700275
441.310345,,0.003365542475220142,441.29,0.7590000033378601,-0.019596071230406527
441.775862,,0.0036856707391131655,441.754,0.7739999890327454,0.012958970205393853
442.241379,,0.003923453348391507,442.217,0.7609999775886536,-0.015559082059360073
442.70689699999997,,0.0047912130366746545,442.684,0.7609999775886536,-0.01581971829567461
443.172414,,0.006246141933191952,443.147,0.7829999923706055,0.031793167538205394
443.637931,,0.007012525753987568,443.61,0.7689999938011169,0.0009282550087838847
444.103448,,0.005767126630171471,444.08,0.7820000052452087,0.02885187552293312
444.568966,,0.0027454342577813767,444.546,0.7609999775886536,-0.01732154582894063
445.03448299999997,,0.0002820614017031655,445.008,0.7829999923706055,0.03017701924988271
445.5,,0.0015790836273651186,445.474,0.6539999842643738,-0.2512992149384553
445.965517,,0.000724893178978484,445.939,0.7599999904632568,-0.02078069250323543
446.431034,,0.001363792364155836,446.405,0.7739999890327454,0.009329085689476053
446.896552,,0.0031536456617276497,446.87,0.7879999876022339,0.03948089415076741
447.36206899999996,,0.0033932209073410428,447.336,0.7590000033378601,-0.023995959325726134
447.827586,,0.0019685474695448337,447.795,0.7829999923706055,0.028057647731517935
448.29310300000003,,4.744102732186391e-05,448.26,0.7820000052452087,0.025714836791882353
448.758621,,0.0009992833380474966,448.728,0.7850000262260437,0.032161986974039415
449.224138,,0.0008810396902634728,449.191,0.7609999775886536,-0.020136817028190993
449.689655,,0.0003367317440826411,449.654,0.765999972820282,-0.009177428969367744
450.155172,,1.5390292977471683e-05,450.124,0.7699999809265137,-0.00032170112629507214
450.62068999999997,,6.137545418794569e-05,450.588,0.7630000114440918,-0.015360443754632708
451.086207,,4.618341216997318e-05,451.05,0.7760000228881836,0.013237788492790625
451.551724,,0.0006997568427999026,451.516,0.7519999742507935,-0.038718831194814216
452.017241,,0.0022882453362182706,451.98,0.7580000162124634,-0.025271369237327108
452.482759,,0.004431541742490303,452.446,0.7940000295639038,0.053568650276996296
452.94827599999996,,0.005822204219519657,452.913,0.753000020980835,-0.03532626996546564
453.413793,,0.0051173030058551516,453.379,0.7680000066757202,-0.0022097246432868324
453.87931,,0.002289215999525894,453.844,0.7739999890327454,0.011292382443912983
454.344828,,0.0008215895492326125,454.309,0.7580000162124634,-0.02315547927543
454.810345,,0.0017258728233666488,454.769,0.777999997138977,0.020795254357002836
455.27586199999996,,0.0004094410450272256,455.234,0.7799999713897705,0.025486337564077217
455.741379,,0.0038121275652915664,455.702,0.7680000066757202,-0.00037766015638437045
456.206897,,0.006028762353424075,456.164,0.7590000033378601,-0.019769226505534903
456.672414,,0.006640424002199156,456.632,0.753000020980835,-0.03269565592961059
457.137931,,0.007120859796239813,457.094,0.7870000004768372,0.04144866198920108
457.603448,,0.007916270094003607,457.56,0.7429999709129333,-0.054418654699969565
458.06896600000005,,0.007223711816244663,458.024,0.777999997138977,0.021750340936383415
458.53448299999997,,0.003843777106486414,458.49,0.7549999952316284,-0.028516779619788633
459.0,,1.3757292327173651e-05,458.955,0.7609999775886536,-0.015672627323511386
459.465517,,0.0006592261550371258,459.421,0.7730000019073486,0.010181158661764958
459.931034,,0.002064111578092775,459.887,0.7630000114440918,-0.011948250022649156
460.39655200000004,,0.004308076371802576,460.353,0.781000018119812,0.026882566065692455
460.86206899999996,,0.002592185775291185,460.818,0.7839999794960022,0.03300417950993836
461.327586,,0.0023583248163566253,461.284,0.7570000290870667,-0.02624998459564936
461.793103,,0.006978051966588409,461.747,0.777999997138977,0.01906720141228702
462.258621,,0.008814795018864438,462.209,0.7749999761581421,0.012106938429224794
462.724138,,0.008215978702480654,462.677,0.8109999895095825,0.09013832126492989
463.18965499999996,,0.006872319716041527,463.139,0.7630000114440918,-0.014799777244960935
463.655172,,0.005718527265202649,463.61,0.7730000019073486,0.00667100380457422
464.12069,,0.0042870192764090185,464.072,0.7760000228881836,0.012947829135151067
464.58620699999994,,0.0018090104085383475,464.538,0.753000020980835,-0.037355948703355686
465.051724,,0.00114839758434196,465.002,0.7789999842643738,0.019163959228321148
465.517241,,0.0025492225805138816,465.468,0.7599999904632568,-0.022281337882548713
465.98275900000004,,0.0010604461324334158,465.932,0.7630000114440918,-0.015721071489984452
466.448276,,0.001754019662686917,466.398,0.7680000066757202,-0.0047292817517695755
466.913793,,0.00249687094717794,466.865,0.7699999809265137,-0.00020202300928327154
467.37931,,0.00015677345908069094,467.324,0.7820000052452087,0.02617839279385821
467.844828,,0.0034278144474695535,467.795,0.7770000100135803,0.015581318482406748
468.31034500000004,,0.0033820743340968336,468.254,0.7739999890327454,0.009391845086713152
468.77586199999996,,0.00047150338034636136,468.724,0.7739999890327454,0.009777738834591996
469.241379,,0.0046536222693358735,469.187,0.7620000243186951,-0.01595298695829938
469.706897,,0.005591024648194067,469.65,0.777999997138977,0.019332445391165128
470.172414,,0.0028263694797226206,470.12,0.7990000247955322,0.06551287075669218
470.63793100000004,,0.001564621920806772,470.58,0.7590000033378601,-0.021215763023584078
471.10344799999996,,0.005227752052612105,471.051,0.7480000257492065,-0.04478910531447032
471.568966,,0.006615227819201111,471.509,0.7599999904632568,-0.018292366929738287
472.034483,,0.005192176320779459,471.976,0.7739999890327454,0.012512609635848725
472.5,,0.0019138205604155509,472.442,0.7839999794960022,0.034545415014676145
472.965517,,0.0008746467129919282,472.91,0.7590000033378601,-0.01973938651735868
473.43103399999995,,0.0011180871636688814,473.375,0.7789999842643738,0.023944046473243056
473.89655200000004,,0.0011047675884815914,473.839,0.7789999842643738,0.023980571772730608
474.362069,,0.003711288666146597,474.305,0.7739999890327454,0.013049106668444006
474.827586,,0.004549836501348655,474.77,0.6570000052452087,-0.24196693916361264
475.293103,,0.00313036009118889,475.235,0.7599999904632568,-0.017755008926035654
475.758621,,0.0007376567586249501,475.698,0.7739999890327454,0.012490384059643051
476.22413800000004,,0.0009562951026082408,476.161,0.7549999952316284,-0.029216109747312764
476.689655,,0.001437666201332536,476.629,0.7599999904632568,-0.01868191889441572
477.155172,,0.001451898816275106,477.091,0.7829999923706055,0.031032766871616643
477.62069,,0.0016533321711163116,477.556,0.7760000228881836,0.01536612745683709
478.086207,,0.0016886067290603208,478.019,0.7580000162124634,-0.024274712826951105
478.55172400000004,,0.0008864847472673033,478.485,0.7820000052452087,0.02759169631090428
479.01724099999996,,0.0006215163443211225,478.95,0.765999972820282,-0.007670507689947121
479.482759,,0.001923232034401631,479.416,0.7570000290870667,-0.027652334311409472
479.948276,,0.0023366486452369474,479.881,0.7879999876022339,0.039552764048239174
480.413793,,0.0022145515663623523,480.347,0.7789999842643738,0.019664226281330525
480.87931000000003,,0.002766891904357337,480.813,0.7820000052452087,0.025980652857698672
481.344828,,0.0048262091590316756,481.279,0.6779999732971191,-0.2007527758523395
481.810345,,0.0074248433577639135,481.74,0.7739999890327454,0.008312000769811244
482.275862,,0.00796333162763383,482.209,0.7609999775886536,-0.020023894184269236
482.74137900000005,,0.0046215405773452675,482.673,0.777999997138977,0.01707382053618579
483.206897,,0.0013064288308997946,483.135,0.7599999904632568,-0.022009153992522026
483.672414,,0.00621377536044763,483.606,0.7509999871253967,-0.041416993071596665
484.13793100000004,,0.007654370399325562,484.068,0.7789999842643738,0.01984595782287101
484.603448,,0.006472510027966387,484.534,0.7820000052452087,0.02669618711762838
485.068966,,0.005198257579883413,484.998,0.777999997138977,0.018339912863223656
485.534483,,0.005174991734057141,485.463,0.6370000243186951,-0.28846115195981187
486.0,,0.00593860539425437,485.928,0.7710000276565552,0.0038813420319671714
486.46551700000003,,0.006528797852776804,486.393,0.7609999775886536,-0.017497007466998827
486.931034,,0.006254659431706698,486.858,0.7609999775886536,-0.017094418000867098
487.396552,,0.004592144493413146,487.323,0.7739999890327454,0.011612671896330251
487.862069,,0.0014735376689729576,487.787,0.7480000257492065,-0.044677257854666634
488.327586,,0.0021311954037250324,488.253,0.777999997138977,0.020996244444668907
488.79310300000003,,0.004480428498998009,488.714,0.7789999842643738,0.02343923344255429
489.258621,,0.004399241114428398,489.183,0.7609999775886536,-0.015569623682961553
489.724138,,0.00258271111764481,489.647,0.7760000228881836,0.017252848488793878
490.189655,,0.0012121690961689208,490.109,0.7559999823570251,-0.02624629052429938
490.655172,,0.0015828057831055202,490.577,0.7609999775886536,-0.015350427278110585
491.12069,,0.00233515796395507,491.039,0.7770000100135803,0.019439431316647385
491.586207,,0.0010594043063695579,491.505,0.7749999761581421,0.014945044823999724
492.05172400000004,,0.0023820312620942996,491.97,0.746999979019165,-0.04625860912218083
492.517241,,0.0053610998584768576,492.435,0.7739999890327454,0.012304632728020296
492.982759,,0.005649297770693827,492.903,0.7609999775886536,-0.016328694098405847
493.448276,,0.003958642789968607,493.368,0.777999997138977,0.020356893179655652
493.913793,,0.002649310316060073,493.833,0.7850000262260437,0.035226723971341654
494.37931000000003,,0.002775058878882511,494.298,0.7689999938011169,-2.982091654995858e-05
494.844828,,0.0033608158561242514,494.761,0.7770000100135803,0.01699588813795613
495.310345,,0.003031805288002406,495.224,0.7739999890327454,0.010063220087729663
495.775862,,0.0012206775197245387,495.695,0.7739999890327454,0.009685533047992249
496.241379,,0.0019340625560495402,496.157,0.7649999856948853,-0.010269737410208925
496.70689699999997,,0.005621090543360513,496.625,0.7609999775886536,-0.019291349946834593
497.172414,,0.008217257916879335,497.087,0.7990000247955322,0.06324057127592816
497.637931,,0.008215706690419971,497.553,0.8769999742507935,0.23297898132573103
498.103448,,0.005691973124584482,498.016,0.7480000257492065,-0.048194992341295234
498.568966,,0.0023166282203468244,498.481,0.7760000228881836,0.012747443837993446
499.03448299999997,,0.000305701221337546,498.947,0.7620000243186951,-0.017744882471560718
499.5,,0.0020332303572121293,499.412,0.7519999742507935,-0.03945495713498654
499.96551700000003,,0.0037859128915167925,499.877,0.7620000243186951,-0.01752707849387856
500.431034,,0.005852547270492026,500.342,0.7720000147819519,0.00446131116336009
500.89655200000004,,0.006963997395316013,500.809,0.8640000224113464,0.20515561426035145
501.362069,,0.00561329012574257,501.275,0.7770000100135803,0.015922277812519172
501.827586,,0.0022860392870897267,501.736,0.777999997138977,0.018449551873834086
502.293103,,0.00044313451516764566,502.206,0.7599999904632568,-0.020390787582039435
502.758621,,0.00046540016307817063,502.669,0.7770000100135803,0.017036410334726883
503.224138,,0.001738738396652852,503.132,0.7630000114440918,-0.01307176567582073
503.68965499999996,,0.003779488527032187,503.595,0.7720000147819519,0.006919727543670002
504.15517200000005,,0.0035745909199073754,504.065,0.777999997138977,0.020354474352760582
504.62068999999997,,0.0007726144621289402,504.53,0.6069999933242798,-0.35186619176949196
505.08620699999994,,0.0031390633898917275,504.989,0.7599999904632568,-0.018252224453999245
505.55172400000004,,0.005648875214850539,505.455,0.7820000052452087,0.029905851186046103
506.017241,,0.004853120152711858,505.924,0.7710000276565552,0.006112769642446546
506.48275899999993,,0.0010998601854409727,506.389,0.7459999918937683,-0.04824236924647285
506.948276,,0.0030180882001883376,506.854,0.7519999742507935,-0.035123974727024034
507.413793,,0.004736227193769596,507.32,0.7760000228881836,0.017145045540633938
507.87931,,0.0033866251013342087,507.785,0.781000018119812,0.027956710850664094
508.344828,,0.000688265254525241,508.251,0.7609999775886536,-0.0157575170387779
508.810345,,0.0010153136425512872,508.713,0.7730000019073486,0.010189945578830975
509.27586199999996,,0.0006852900000342895,509.176,0.7739999890327454,0.01212343368752838
509.74137900000005,,0.0009190727306004404,509.639,0.7789999842643738,0.02273090235985169
510.20689699999997,,0.002069546023943698,510.109,0.8309999704360962,0.13570428463186798
510.67241399999995,,0.0013677272056030242,510.573,0.7450000047683716,-0.051996328690940306
511.13793100000004,,0.001008801740737724,511.035,0.7739999890327454,0.01083550277902151
511.603448,,0.0031250706820304657,511.501,0.7720000147819519,0.006126973938193652
512.0689659999999,,0.003248136721128758,511.965,0.7739999890327454,0.010141430380098609
512.534483,,0.002184304776953026,512.431,0.7570000290870667,-0.02722011790470391
513.0,,0.0023525564250641133,512.895,0.7580000162124634,-0.02533914553015224
513.465517,,0.004193220075296444,513.361,0.7910000085830688,0.046294381218764655
513.931034,,0.005358582484633893,513.829,0.777999997138977,0.017754172204244568
514.396552,,0.004476196810178508,514.294,0.777999997138977,0.017586674184629853
514.862069,,0.003741406690875601,514.755,0.7870000004768372,0.03708162092880636
515.327586,,0.005779688908968174,515.225,0.7609999775886536,-0.01961900861449401
515.793103,,0.009121248974489462,515.687,0.7749999761581421,0.01088408287558818
516.258621,,0.009305730384865379,516.15,0.6830000281333923,-0.1894941560579027
516.724138,,0.004608996887875062,516.617,0.765999972820282,-0.008557470769747999
517.189655,,0.001433049075995998,517.08,0.7630000114440918,-0.014935132857267844
517.655172,,0.004213893965103086,517.545,0.7739999890327454,0.00923416419913746
518.1206900000001,,0.003337320603876992,518.016,0.777999997138977,0.018193209153698417
518.5862070000001,,0.002231966633487628,518.474,0.7749999761581421,0.011934841532370209
519.051724,,0.0032644188302142184,518.94,0.7599999904632568,-0.020442612756446387
519.517241,,0.005047111273565852,519.405,0.7590000033378601,-0.022303896812084435
519.982759,,0.0047968413677009596,519.873,0.7580000162124634,-0.024159699304577155
520.448276,,0.001917872102273361,520.338,0.7739999890327454,0.011017837690741234
520.9137929999999,,0.0015621362260760821,520.803,0.7770000100135803,0.01786091522586587
521.37931,,0.0033409836235068742,521.269,0.7599999904632568,-0.0188898512919945
521.844828,,0.00274454681952765,521.732,0.878000020980835,0.23844989831439137
522.310345,,0.0006575654627855787,522.194,0.7749999761581421,0.014275609966661886
522.7758620000001,,0.001504454472953433,522.662,0.7749999761581421,0.014461791137516769
523.241379,,0.002626985202939105,523.125,0.7590000033378601,-0.020258409144013736
523.7068969999999,,0.002384483634153204,523.595,0.753000020980835,-0.03324481398549549
524.172414,,0.0013607455840085759,524.058,0.7820000052452087,0.02996643289636023
524.637931,,0.0005590197102442985,524.523,0.781000018119812,0.027763511027381556
525.103448,,0.0005759352037075616,524.987,0.777999997138977,0.021149796300172108
525.568966,,0.0012153721421371425,525.453,0.5210000276565552,-0.5388966358343841
526.034483,,0.0018032623326406465,525.918,0.7559999823570251,-0.027104809940105903
526.5,,0.0017242118399935006,526.383,0.7749999761581421,0.014052319942198707
526.9655170000001,,0.0008238073424008367,526.85,0.7620000243186951,-0.014541285471041557
527.4310340000001,,0.000388084456134599,527.316,0.7739999890327454,0.011305742568040683
527.8965519999999,,0.0010911599087336395,527.78,0.781000018119812,0.02624382612741876
528.362069,,0.0011560722279223704,528.239,0.781000018119812,0.025925553645677724
528.827586,,0.0016107257336430978,528.71,0.7760000228881836,0.014717980050307842
529.293103,,0.0034143855659789168,529.172,0.7760000228881836,0.014416781279275225
529.7586210000001,,0.005755364526706583,529.64,0.6959999799728394,-0.16015602795120243
530.224138,,0.00643313168575832,530.102,0.7620000243186951,-0.016619007289923014
530.689655,,0.004370088276965743,530.573,0.7599999904632568,-0.021195156519996417
531.155172,,0.001113321124467298,531.035,0.777999997138977,0.01784468686177735
531.62069,,0.0007566388462164893,531.501,0.7620000243186951,-0.01714132102169212
532.086207,,0.00033619506210555433,531.965,0.777999997138977,0.01764095319887914
532.5517239999999,,0.0010868511163029137,532.424,0.7620000243186951,-0.017239999973286253
533.017241,,0.002016549298069291,532.891,0.7739999890327454,0.008934605741759647
533.482759,,0.002463892708244573,533.356,0.7419999837875366,-0.060699687176932665
533.9482760000001,,0.0032909171596739576,533.821,0.7519999742507935,-0.038782907913288436
534.413793,,0.004296539650886596,534.286,0.7820000052452087,0.02675070317209583
534.87931,,0.0038902951868475992,534.754,0.7839999794960022,0.03132146414770561
535.344828,,0.0011626915489214764,535.217,0.7770000100135803,0.016317652961940064
535.810345,,0.0023415701172565316,535.68,0.7829999923706055,0.029661433673224796
536.275862,,0.003925072924241903,536.149,0.7580000162124634,-0.02451643839339433
536.7413789999999,,0.002773442509408054,536.61,0.7519999742507935,-0.037293600510429896
537.206897,,0.0007752753642547132,537.08,0.7639999985694885,-0.010857912408920015
537.672414,,0.00015014284706441292,537.545,0.7799999713897705,0.024281087714123864
538.137931,,0.0011080086913127793,538.008,0.7559999823570251,-0.027744990785711673
538.6034480000001,,0.0022377865564927987,538.474,0.7789999842643738,0.02259833411644254
539.0689659999999,,0.002626979349559582,538.939,0.7760000228881836,0.016263290586080094
539.5344829999999,,0.0030617122339241494,539.405,0.75,-0.04022031073680567
540.0,,0.005003500981087179,539.869,0.7599999904632568,-0.018317345586954033
540.465517,,0.008325049129632929,540.335,0.7820000052452087,0.029681847745031072
540.931034,,0.010460267860408304,540.799,0.7760000228881836,0.016630556076073257
541.396552,,0.008714765723411143,541.265,0.7860000133514404,0.038389526302715395
541.862069,,0.0035942087353144155,541.728,0.7990000247955322,0.06663822993306279
542.327586,,0.001164231767392442,542.19,0.7770000100135803,0.01859080271262698
542.7931030000001,,0.0024553287042976568,542.658,0.7749999761581421,0.014076237967669093
543.258621,,0.0009015754499215877,543.12,0.7149999737739563,-0.1168365670620358
543.7241379999999,,0.0006032744670738154,543.584,0.7739999890327454,0.01147821278115647
544.189655,,0.0006230501718018429,544.053,0.7620000243186951,-0.014914836801315067
544.655172,,0.0003056692781277706,544.519,0.777999997138977,0.01967909680436873
545.12069,,0.00115355019456644,544.983,0.800000011920929,0.06733889689343422
545.5862070000001,,0.0029358656489496767,545.449,0.7599999904632568,-0.020075136606531093
546.051724,,0.004055991419160278,545.913,0.7559999823570251,-0.02904836492988816
546.517241,,0.003227921771868124,546.379,0.7590000033378601,-0.022754714793309837
546.982759,,0.0005945883951806286,546.844,0.6830000281333923,-0.18855228247193112
547.448276,,0.0022958771522421963,547.309,0.7760000228881836,0.013869337831776097
547.9137929999999,,0.0036178527578253376,547.769,0.7580000162124634,-0.025504138424145038
548.3793099999999,,0.002886037093766767,548.234,0.7789999842643738,0.02013073811161457
548.844828,,0.0013969770366095513,548.702,0.7760000228881836,0.013523037772963238
549.310345,,0.0006911160716917713,549.165,0.7749999761581421,0.01131952342234478
549.775862,,0.0009662365665603963,549.636,0.7739999890327454,0.009163582688303034
550.241379,,0.0014899407469495046,550.098,0.7559999823570251,-0.029983381889060044
550.706897,,0.0018079830539156256,550.564,0.7820000052452087,0.02677372381906916
551.172414,,0.001565933395968747,551.03,0.753000020980835,-0.036255091790340484
551.637931,,0.0001878161566717061,551.495,0.7580000162124634,-0.025175510833786118
552.103448,,0.0040866603066861155,551.955,0.7630000114440918,-0.014067766732373206
552.568966,,0.008792525503053171,552.421,0.7820000052452087,0.02756311141887256
553.034483,,0.011374466301092075,552.887,0.7620000243186951,-0.01575818115823982
553.5,,0.00991363294513556,553.353,0.8040000200271606,0.07600440263241391
553.965517,,0.0054175096586440655,553.821,0.7670000195503235,-0.004346139688277368
554.4310340000001,,0.0007980270145077684,554.279,0.7599999904632568,-0.01934585558367514
554.896552,,0.0019156161304094933,554.747,0.7609999775886536,-0.016933581487509834
555.3620689999999,,0.0029614555819499045,555.209,0.7889999747276306,0.04427830694017229
555.827586,,0.0035045937961981407,555.68,0.7820000052452087,0.02920819666389179
556.293103,,0.0037895619253266568,556.142,0.7760000228881836,0.01628208278217088
556.758621,,0.003425181616380553,556.61,0.7409999966621399,-0.05986494053457493
557.224138,,0.002902779333688859,557.072,0.7580000162124634,-0.022766281172818464
557.689655,,0.0034142785873184406,557.538,0.7770000100135803,0.018644107688706526
558.155172,,0.004986225905027348,558.002,0.7519999742507935,-0.03585131453050543
558.6206900000001,,0.0060240851675568575,558.467,0.7760000228881836,0.016363131289088506
559.0862070000001,,0.005327225766599339,558.932,0.7739999890327454,0.01189133417438155
559.5517239999999,,0.003794886840543111,559.398,0.7609999775886536,-0.016582794338535628
560.017241,,0.0034057536335590235,559.865,0.7699999809265137,0.0028407394461607447
560.482759,,0.004788025546326847,560.324,0.753000020980835,-0.03440747681617928
560.948276,,0.006449233892045864,560.796,0.7549999952316284,-0.030282141566029874
561.413793,,0.006499793746865443,561.254,0.781000018119812,0.026117844010687615
561.87931,,0.004566275839320829,561.724,0.7940000295639038,0.05419131211653422
562.344828,,0.0015717965681827186,562.187,0.7789999842643738,0.02126690548796294
562.8103450000001,,0.0018124590088541262,562.651,0.7820000052452087,0.0275700549479097
563.275862,,0.0054642468794719404,563.12,0.7599999904632568,-0.020574846783971493
563.7413789999999,,0.008615368331035224,563.58,0.777999997138977,0.018450576678817804
564.206897,,0.009638914167971836,564.05,0.8949999809265137,0.2731946566712455
564.672414,,0.007801537251245707,564.509,0.781000018119812,0.024710446061714242
565.137931,,0.004577182696005818,564.977,0.777999997138977,0.01809677068587995
565.603448,,0.002351367699182096,565.442,0.6579999923706055,-0.24338091186631233
566.068966,,0.0019399068177443097,565.907,0.7580000162124634,-0.02551977301669042
566.534483,,0.0020118967312428757,566.372,0.7300000190734863,-0.08648917331542039
567.0,,0.0010118910928910872,566.839,0.7229999899864197,-0.10167099757078733
567.465517,,0.0010006654466031394,567.305,0.7620000243186951,-0.016601144096088514
567.931034,,0.0027936874709062094,567.769,0.8109999895095825,0.09028776619850311
568.396552,,0.0035840289883488966,568.235,0.7739999890327454,0.009843346308210153
568.862069,,0.0034651320070230108,568.698,0.7789999842643738,0.020927151364160724
569.327586,,0.0027199911959655014,569.161,0.7630000114440918,-0.013722294804448238
569.793103,,0.0016656630356314858,569.629,0.7789999842643738,0.021356640143324678
570.2586210000001,,0.0008540166391935104,570.092,0.7689999938011169,-0.00020409853584018846
570.724138,,0.0004940806823629894,570.558,0.7599999904632568,-0.019588169216231254
571.189655,,2.3847695979247525e-05,571.02,0.7519999742507935,-0.036802986849403606
571.655172,,0.0007924965735043723,571.486,0.7820000052452087,0.028755288298015377
572.12069,,0.0008210137696727086,571.951,0.7749999761581421,0.013682685389560415
572.586207,,0.0011583620568569996,572.417,0.7649999856948853,-0.007951632569178288
573.051724,,0.004344673732042488,572.883,0.7799999713897705,0.024849707297329163
573.517241,,0.0062927883443770405,573.349,0.7609999775886536,-0.016456995612474715
573.982759,,0.005502177508610791,573.814,0.7609999775886536,-0.016406294703273046
574.4482760000001,,0.0028738573072776678,574.279,0.7760000228881836,0.016285905127242303
574.913793,,0.0005820209366175025,574.74,0.7519999742507935,-0.03602782218610007
575.37931,,4.118322456428388e-05,575.209,0.7739999890327454,0.011838832650065615
575.844828,,0.000948621824086267,575.672,0.7630000114440918,-0.012225248866405072
576.310345,,0.0019012959148602552,576.135,0.7870000004768372,0.03993162247093174
576.775862,,0.0018280757915356742,576.603,0.7789999842643738,0.02234466110528984
577.241379,,0.0008606275513323035,577.065,0.7480000257492065,-0.045373703886753484
577.706897,,0.00016964416422324033,577.531,0.7670000195503235,-0.004177739124537851
578.172414,,0.0008005646247890733,577.997,0.6809999942779541,-0.19175343598349437
578.6379310000001,,0.0011468143441402373,578.463,0.7570000290870667,-0.026396222704953506
579.1034480000001,,0.0012443036500554615,578.928,0.7760000228881836,0.014777897457831233
579.5689659999999,,0.0007783893941004105,579.394,0.7599999904632568,-0.020292098607806015
580.034483,,0.0003928336831295646,579.859,0.7599999904632568,-0.02048868472600824
580.5,,0.0018225179750360118,580.324,0.7820000052452087,0.02726614617668034
580.965517,,0.0028358084293096286,580.784,0.7429999709129333,-0.057850183894723524
581.431034,,0.0032492896215194,581.25,0.7580000162124634,-0.025288994182696804
581.896552,,0.0036117767501927254,581.717,0.7630000114440918,-0.014480632180822482
582.362069,,0.004636108221077516,582.179,0.7789999842643738,0.020329877970009267
582.827586,,0.0063082239611294035,582.647,0.7609999775886536,-0.018894879369311265
583.2931030000001,,0.007566569475792821,583.109,0.777999997138977,0.01817197746919875
583.758621,,0.007081372826086861,583.577,0.7739999890327454,0.009525104758359104
584.2241379999999,,0.004641202349306065,584.039,0.7590000033378601,-0.02305129585102472
584.689655,,0.001686872182992929,584.505,0.7739999890327454,0.00976352929220234
585.155172,,3.8294282642897764e-05,584.972,0.7620000243186951,-0.016217578539740797
585.6206900000001,,4.7005562195256455e-05,585.438,0.7789999842643738,0.021004395578387226
586.0862070000001,,0.00047362727740872827,585.903,0.7739999890327454,0.010313016962387967
586.551724,,0.00017505024325958955,586.368,0.7590000033378601,-0.02215456640579175
587.017241,,0.0008181734132474375,586.829,0.7739999890327454,0.010740440286005204
587.482759,,0.0020832602828207178,587.294,0.7609999775886536,-0.01737029823430164
587.948276,,0.003787070281213262,587.769,0.7770000100135803,0.01768976636284314
588.4137929999999,,0.006198139102639702,588.228,0.7760000228881836,0.015696672618553318
588.87931,,0.00861402784615861,588.691,0.765999972820282,-0.00592617699765937
589.344828,,0.009593631628517521,589.154,0.7789999842643738,0.02253304085565395
589.810345,,0.008522610745572588,589.621,0.7739999890327454,0.01174555308664304
590.2758620000001,,0.006584125463850548,590.09,0.7570000290870667,-0.025220144966718618
590.741379,,0.0057628898783007015,590.549,0.7570000290870667,-0.025186252168487345
591.2068969999999,,0.006802521061847402,591.018,0.777999997138977,0.020560988553987452
591.672414,,0.008322052478034714,591.484,0.7580000162124634,-0.023053792595781712
592.137931,,0.008200195406516115,591.95,0.7789999842643738,0.02261993398312448
592.603448,,0.005858335933509865,592.416,0.7739999890327454,0.011615786197127331
593.068966,,0.0027956883813430727,592.88,0.777999997138977,0.020190328417841224
593.534483,,0.0007258121035541869,593.346,0.7549999952316284,-0.03008368993697428
594.0,,0.00010211442751164779,593.81,0.7519999742507935,-0.036805322409323826
594.4655170000001,,0.00018757904064689075,594.275,0.7739999890327454,0.010924606511883345
594.9310340000001,,0.0006928132192697154,594.736,0.7609999775886536,-0.017606062293659755
595.3965519999999,,0.0029222527863050018,595.206,0.7960000038146973,0.05843791461057856
595.862069,,0.005355097642699447,595.669,0.7620000243186951,-0.015838465016442562
596.327586,,0.00580435214335304,596.131,0.7770000100135803,0.01665138288568133
596.793103,,0.003709724349014882,596.595,0.7760000228881836,0.014301241550704166
597.2586210000001,,0.001171962953153498,597.065,0.7369999885559082,-0.07081448826495236
597.724138,,0.0005853649209201372,597.53,0.7760000228881836,0.014031595683597357
598.189655,,0.0019282903287868775,597.989,0.777999997138977,0.018299056320019075
598.655172,,0.0030046002285796392,598.456,0.7630000114440918,-0.01443564476831518
599.12069,,0.0018175536811198567,598.921,0.7739999890327454,0.009510542090758729
599.586207,,0.0017811867735801287,599.387,0.7739999890327454,0.009528323053555195
600.0517239999999,,0.006200644055995034,599.854,0.7739999890327454,0.0095822976554251
600.517241,,0.009262939135449075,600.32,0.765999972820282,-0.007758764199949281
600.982759,,0.00966492108112095,600.785,0.7549999952316284,-0.031604933424474235
601.448276,,0.007913586968468687,601.25,0.7789999842643738,0.020828305370491705
601.913793,,0.0057892808813728245,601.713,0.7699999809265137,0.0013887080741969938
602.37931,,0.004660877627047332,602.176,0.7739999890327454,0.010288926231723556
602.844828,,0.004329684943099338,602.639,0.7599999904632568,-0.020015432700702735
603.310345,,0.0034586817873539823,603.109,0.7020000219345093,-0.1461769763719568
603.775862,,0.000925633181117186,603.573,0.7760000228881836,0.015239068309432358
604.2413789999999,,0.003179037012993132,604.035,0.7459999918937683,-0.04993349491736965
604.706897,,0.0074996267559669545,604.501,0.7620000243186951,-0.014902259372937807
605.172414,,0.010230291986816409,604.965,0.7609999775886536,-0.016927677288553104
605.637931,,0.010355541367693037,605.431,0.777999997138977,0.020239257461501545
606.1034480000001,,0.008293780612187798,605.895,0.7870000004768372,0.039950405369208346
606.5689659999999,,0.005104227883151417,606.361,0.7699999809265137,0.0029873545264855576
607.0344829999999,,0.0012283100113757855,606.825,0.7739999890327454,0.011744176009383296
607.5,,0.0033153115336506758,607.291,0.7570000290870667,-0.02528406338492954
607.965517,,0.007543960637168869,607.754,0.7739999890327454,0.011727702869200227
608.431034,,0.009401620760325361,608.224,0.7720000147819519,0.007312558657288195
608.896552,,0.0077663068697511415,608.684,0.7540000081062317,-0.0319919569736102
609.362069,,0.004165710618746293,609.154,0.7739999890327454,0.011463767807143739
609.827586,,0.0017282047873006404,609.617,0.7990000247955322,0.06578905182950383
610.293103,,0.002206492062747388,610.079,0.777999997138977,0.019877865237821087
610.758621,,0.004377853441398619,610.545,0.7549999952316284,-0.030404841807283617
611.2241379999999,,0.005625367911260736,611.015,0.777999997138977,0.019520564108791688
611.689655,,0.004758716216021319,611.481,0.7590000033378601,-0.022061346766266626
612.155172,,0.0028146244802967632,611.94,0.8460000157356262,0.1672965991682473
612.62069,,0.0013584044539506352,612.405,0.7770000100135803,0.01679544667853393
613.0862070000001,,0.0008639669250310792,612.873,0.7749999761581421,0.012278147527614528
613.551724,,0.0009820367013756487,613.338,0.7580000162124634,-0.02490131568444769
614.017241,,0.0015174851602205194,613.802,0.7749999761581421,0.012014316179158335
614.4827590000001,,0.002427001658128689,614.268,0.7509999871253967,-0.04036999525935346
614.948276,,0.003326919381852288,614.736,0.7649999856948853,-0.009938645453189272
615.4137929999999,,0.0036949380243428104,615.198,0.777999997138977,0.0183433984799054
615.8793099999999,,0.0033101278255943845,615.662,0.7609999775886536,-0.018703240982483074
616.344828,,0.0020890221273083685,616.124,0.7049999833106995,-0.1406875234000953
616.810345,,7.821820342871763e-06,616.592,0.7799999713897705,0.022759182186751475
617.275862,,0.0022515731077429814,617.055,0.753000020980835,-0.03598836789209947
617.741379,,0.0032161669383934813,617.52,0.7850000262260437,0.033830928161529765
618.206897,,0.0020938498361978007,617.987,0.7620000243186951,-0.016151571804458774
618.672414,,1.856288084571057e-05,618.453,0.7739999890327454,0.010138779461313441
619.137931,,0.0012761499861431546,618.92,0.7760000228881836,0.014658746785355892
619.603448,,0.0011320850542306893,619.379,0.777999997138977,0.01919009191635087
620.068966,,0.00033933347843240165,619.85,0.777999997138977,0.01937066140084609
620.534483,,0.0006872515750192672,620.316,0.7609999775886536,-0.01748503628843841
621.0,,0.0022132508585169146,620.78,0.7580000162124634,-0.023844814907354933
621.465517,,0.0039061179535143254,621.246,0.8899999856948853,0.2639043770597551
621.9310340000001,,0.004537338290268247,621.706,0.7620000243186951,-0.0148061983589727
622.396552,,0.003417037930135499,622.169,0.7739999890327454,0.0114758764413322
622.862069,,0.0012954478644813638,622.639,0.7609999775886536,-0.01673289665166729
623.327586,,0.0005738307388680013,623.102,0.7770000100135803,0.01821096224090243
623.793103,,0.001723344150216192,623.573,0.7739999890327454,0.011729577316888987
624.258621,,0.0025223024847733934,624.035,0.7549999952316284,-0.029642960596017273
624.724138,,0.0033550672218977053,624.494,0.7599999904632568,-0.01876229354647265
625.189655,,0.004099458552674367,624.965,0.8399999737739563,0.15548423436138056
625.655172,,0.004338624036487867,625.431,0.7749999761581421,0.013796943388052572
626.1206900000001,,0.004003836188840654,625.896,0.7789999842643738,0.02240795543932684
626.5862070000001,,0.003703965741966893,626.354,0.777999997138977,0.020099062539220117
627.0517239999999,,0.003934349647080646,626.824,0.777999997138977,0.019945909987280377
627.5172409999999,,0.003797361324957178,627.291,0.7609999775886536,-0.0172630651022747
627.982759,,0.0015000513021416087,627.754,0.7429999709129333,-0.05666528727403849
628.448276,,0.0030379863954758204,628.216,0.7680000066757202,-0.0023950389366342137
628.913793,,0.007049492810501341,628.68,0.7570000290870667,-0.026559345228856328
629.37931,,0.007759796064764583,629.15,0.7789999842643738,0.021175113443143233
629.844828,,0.005796754563228825,629.613,0.7609999775886536,-0.01822641533592815
630.3103450000001,,0.004354116692816077,630.076,0.7739999890327454,0.0099259848311442
630.7758620000001,,0.005251825559339173,630.541,0.7599999904632568,-0.02072406678459489
631.2413789999999,,0.007184063149403376,631.004,0.7730000019073486,0.007475341361261046
631.706897,,0.007840242592893175,631.47,0.7749999761581421,0.011739786209379056
632.172414,,0.006558752320600407,631.935,0.7559999823570251,-0.029713929018351085
632.637931,,0.004655103419383891,632.401,0.7789999842643738,0.020370945459109162
633.103448,,0.003988347183038479,632.866,0.7749999761581421,0.011669122267542761
633.568966,,0.0054347849152645835,633.332,0.7570000290870667,-0.02749691210461818
634.034483,,0.008072159413025968,633.799,0.6700000166893005,-0.21695671257332336
634.5,,0.009599454378653177,634.265,0.7570000290870667,-0.027302458547532327
634.9655170000001,,0.008165738731484885,634.728,0.8050000071525574,0.0774129643002688
635.431034,,0.00420363595102246,635.19,0.7570000290870667,-0.02699462893873396
635.8965519999999,,0.00020077880969762468,635.658,0.7609999775886536,-0.018091021370971877
636.362069,,0.0015852779352483746,636.12,0.7850000262260437,0.034401554421519105
636.827586,,0.0011016826150951763,636.588,0.7699999809265137,0.001936960923425244
637.293103,,0.00019028357298489935,637.05,0.777999997138977,0.019585303634732244
637.7586210000001,,0.0004702993510704525,637.516,0.7599999904632568,-0.01941448264543686
638.224138,,0.0017216385733126375,637.98,0.753000020980835,-0.03445965079085261
638.689655,,0.00255822499550128,638.446,0.8009999990463257,0.0703039651779849
639.155172,,0.0025076667426559888,638.913,0.7699999809265137,0.002932504757778897
639.62069,,0.0026455553171335243,639.378,0.7820000052452087,0.02921572047518837
640.086207,,0.0037460553687158797,639.843,0.7730000019073486,0.009714856802743801
640.551724,,0.004593607754708865,640.31,0.7559999823570251,-0.027251876711943606
641.017241,,0.0032248310138112556,640.769,0.7749999761581421,0.014172963665679552
641.482759,,0.00019698894779262722,641.235,0.7599999904632568,-0.01851746465626266
641.9482760000001,,0.0026954812601984934,641.699,0.7820000052452087,0.029360846410720263
642.413793,,0.0012186286923267155,642.168,0.7870000004768372,0.04016246606290094
642.87931,,0.004117755804570934,642.629,0.7620000243186951,-0.014432539074198728
643.344828,,0.009837001287124664,643.098,0.7749999761581421,0.013726607149999388
643.810345,,0.012256504775517124,643.564,0.7649999856948853,-0.008253021031441484
644.275862,,0.010754776191302641,644.029,0.7960000038146973,0.0590680342120605
644.7413789999999,,0.007795252246364941,644.495,0.7749999761581421,0.013082235814214553
645.206897,,0.006014550518291327,644.955,0.7620000243186951,-0.01548466811306735
645.672414,,0.005959971449181638,645.421,0.7760000228881836,0.014768159715507724
646.1379310000001,,0.006685936727776686,645.887,0.7760000228881836,0.014524110113266993
646.6034480000001,,0.007457679912151782,646.353,0.7720000147819519,0.00557743773313971
647.0689659999999,,0.00808764007569599,646.817,0.777999997138977,0.01843651839644517
647.534483,,0.00827727304467252,647.283,0.7549999952316284,-0.0318593641993218
648.0,,0.007560491419148118,647.746,0.7739999890327454,0.009379579510646614
648.465517,,0.005721907215864412,648.209,0.7599999904632568,-0.021240045455213713
648.931034,,0.0027857292774313893,648.676,0.753000020980835,-0.03656832059004375
649.396552,,0.0011068835237621187,649.139,0.7829999923706055,0.02875709640250346
649.862069,,0.005319222820029971,649.61,0.8420000076293945,0.15731104918481903
650.327586,,0.008436820852545678,650.072,0.7770000100135803,0.015761856493470627
650.7931030000001,,0.008996472603211231,650.538,0.7599999904632568,-0.021165863365865435
651.258621,,0.006843855327037291,651.001,0.777999997138977,0.018201162025519614
651.7241379999999,,0.003628780408834665,651.467,0.7599999904632568,-0.020825438804697904
652.189655,,0.0015259086370959193,651.932,0.796999990940094,0.06000639444625885
652.655172,,0.0011749716126297739,652.398,0.781000018119812,0.02539683463664953
653.12069,,0.001169328625665076,652.865,0.7900000214576721,0.045273240691772076
653.5862070000001,,9.772908816836826e-05,653.331,0.7850000262260437,0.03466012991552743
654.051724,,0.001215477837901224,653.796,0.7570000290870667,-0.026059528224091404
654.517241,,0.000568404368398767,654.254,0.7599999904632568,-0.019248660444931117
654.982759,,0.002385430006968755,654.724,0.7910000085830688,0.048548511910983194
655.448276,,0.005049751082293851,655.187,0.5680000185966492,-0.4370584138447363
655.9137929999999,,0.0047974002714505914,655.651,0.7599999904632568,-0.018564685181005954
656.37931,,0.0021064045406217436,656.121,0.7760000228881836,0.016445503395589967
656.844828,,0.00011410907775129004,656.584,0.7839999794960022,0.033984580903277196
657.310345,,6.044355911601357e-05,657.046,0.7749999761581421,0.014441931931128115
657.7758620000001,,0.0016529391812070084,657.512,0.7580000162124634,-0.02257725081132078
658.241379,,0.002359204089203901,657.977,0.7950000166893005,0.058002239186253364
658.7068969999999,,0.0013870439451266739,658.443,0.7760000228881836,0.01653047642662952
659.172414,,0.00015575223725535224,658.91,0.7850000262260437,0.036016191329506224
659.637931,,0.00038202509153249364,659.376,0.7820000052452087,0.02931667478885271
660.103448,,0.002175079091674882,659.836,0.7749999761581421,0.013865693023593903
660.568966,,0.004208659403407338,660.302,0.5199999809265137,-0.5419264298760772
661.034483,,0.005217740264522831,660.774,0.7580000162124634,-0.023678845072324796
661.5,,0.00494337050450625,661.232,0.7609999775886536,-0.017435907486905454
661.965517,,0.0039434119872184875,661.695,0.7850000262260437,0.034551133152943884
662.4310340000001,,0.0029031671014719037,662.165,0.7720000147819519,0.00593046824916284
662.8965519999999,,0.0020434187693261904,662.625,0.7749999761581421,0.012179978261098992
663.362069,,0.0010767129496657907,663.095,0.7770000100135803,0.016271755613583665
663.827586,,3.384339851207987e-05,663.561,0.777999997138977,0.018214043237788333
664.293103,,0.00045311972669470765,664.024,0.7739999890327454,0.009299786387163526
664.7586210000001,,0.0006287049306953534,664.49,0.7549999952316284,-0.0322516979358943
