Trial: ,6
Threshold: ,0.0
Maximum EMG: ,0.004445378729579205
Success: ,True

EMG Time,Raw EMG,Filtered EMG,Force Time,Raw Force (V),Filtered Force (N)
0.0,samples,6.8060773632910815e-09,0.47,0.7829999923706055,0.01644937260148829
0.46551699999999996,time,6.483170315952876e-09,0.932,0.765999972820282,-0.020977655655742698
0.9310339999999999,value,6.123210463680809e-09,1.398,0.7820000052452087,0.013532572306089546
1.396552,,5.7258805495099015e-09,1.861,0.765999972820282,-0.02162151828136597
1.862069,,5.290982808793697e-09,2.326,0.7860000133514404,0.021717981190531064
2.327586,,4.818444834658889e-09,2.792,0.7839999794960022,0.017197074628385548
2.793103,,4.308325249976241e-09,3.257,0.7630000114440918,-0.028642592200575863
3.258621,,3.7608191572757375e-09,3.724,0.7860000133514404,0.02145650667099509
3.724138,,3.1762633375914134e-09,4.19,0.7639999985694885,-0.026404453941745766
4.189654999999999,,2.5551411688630725e-09,4.655,0.7870000004768372,0.023851539220860335
4.655172,,1.8980872342531454e-09,5.114,0.7820000052452087,0.013179513808474678
5.12069,,1.2058915905619606e-09,5.585,0.7850000262260437,0.020004972756353576
5.586207,,4.795036668484712e-10,6.047,0.7620000243186951,-0.029754991722729607
6.051723999999999,,2.799642366095042e-10,6.515,0.7639999985694885,-0.02500025071904072
6.517241,,1.0712338787468496e-09,6.977,0.7889999747276306,0.029900316936411875
6.982759,,1.8928584670194346e-09,7.44,0.7559999823570251,-0.04153639976587849
7.448276,,2.7432205347118793e-09,7.911,0.7850000262260437,0.022113522897362823
7.913793000000001,,3.6205303348859955e-09,8.369,0.7739999890327454,-0.0013863069119845045
8.379309999999998,,4.522824779006633e-09,8.84,0.7620000243186951,-0.027082494446040946
8.844828000000001,,5.44796694755117e-09,9.299,0.746999979019165,-0.059347325882497054
9.310345,,6.3936461990495155e-09,9.766,0.7620000243186951,-0.026298306703419136
9.775862,,7.357378903010752e-09,10.231,0.7870000004768372,0.028480523503136113
10.241379,,8.33650982106829e-09,10.696,0.781000018119812,0.01565609089954745
10.706897,,9.328214159415864e-09,11.162,0.765999972820282,-0.016849486616278643
11.172414,,1.0329500314210544e-08,11.629,0.7820000052452087,0.01810394292966022
11.637931,,1.1337213330085187e-08,12.095,0.7670000195503235,-0.014563434886469646
12.103447999999998,,1.2348039090241011e-08,12.555,0.765999972820282,-0.016813690427305447
12.568966000000001,,1.3358509254781235e-08,13.025,0.7739999890327454,0.00046165836848301904
13.034483,,1.4365006961999341e-08,13.489,0.8080000281333923,0.0743046174317982
13.5,,1.5363773305251657e-08,13.951,0.7820000052452087,0.01735859375699802
13.965517,,1.6350914595825105e-08,14.417,0.7599999904632568,-0.03093484646544363
14.431034,,1.732241041985913e-08,14.883,0.7879999876022339,0.029651910059568427
14.896552,,1.8274122494898724e-08,15.349,0.7609999775886536,-0.02962703498888969
15.362069,,1.9201804329046243e-08,15.814,0.8859999775886536,0.24222407174867178
15.827586000000002,,2.010111168294732e-08,16.279,0.7820000052452087,0.015156390251160966
16.293103,,2.0967613831994862e-08,16.744,0.7820000052452087,0.014672936853812827
16.758621,,2.1796805623169998e-08,17.21,0.7630000114440918,-0.027187984314297465
17.224138,,2.2584120317865648e-08,17.674,0.765999972820282,-0.021088533070888243
17.689655,,2.3324943208863128e-08,18.14,0.7749999761581421,-0.0018737704442024776
18.155172,,2.401462599636218e-08,18.603,0.7739999890327454,-0.004389737454468986
18.62069,,2.4648501904607224e-08,19.066,0.7850000262260437,0.01930470224657357
19.086207,,2.5221901517215954e-08,19.529,0.765999972820282,-0.022285352363572885
19.551724,,2.5730169305809153e-08,19.999,0.753000020980835,-0.05072245465907778
20.017241000000002,,2.6168680822972667e-08,20.463,0.7870000004768372,0.02332149761822794
20.482758999999998,,2.6532860526963537e-08,20.926,0.7680000066757202,-0.01801595096140354
20.948276,,2.681820020191315e-08,21.392,0.781000018119812,0.010449514812837825
21.413793000000002,,2.7020277933592457e-08,21.855,0.7739999890327454,-0.004575539714027077
21.87931,,2.7134777597099464e-08,22.321,0.7839999794960022,0.01751313230530689
22.344828,,2.7157508809119924e-08,22.785,0.7860000133514404,0.02224120864471718
22.810344999999998,,2.7084427293711477e-08,23.252,0.8840000033378601,0.2361795504946137
23.275862,,2.6911655606882866e-08,23.718,0.7630000114440918,-0.026957302949224722
23.741379,,2.6635504161597404e-08,24.184,0.7839999794960022,0.019306391952336653
24.206897,,2.625249249123826e-08,24.649,0.7850000262260437,0.022012922763607244
24.672414,,2.575937068604716e-08,25.115,0.7620000243186951,-0.027568506606429503
25.137931,,2.5153140933603406e-08,25.578,0.7820000052452087,0.01651518194983706
25.603448,,2.4431079091062144e-08,26.04,0.7160000205039978,-0.1267981746028744
26.068966,,2.3590756213636017e-08,26.51,0.7839999794960022,0.021778574032168114
26.534483,,2.2630059960698906e-08,26.973,0.7620000243186951,-0.025784015197606425
27.0,,2.1547215797931165e-08,27.441,0.7789999842643738,0.011548781754453827
27.465517,,2.0340807911129526e-08,27.903,0.7839999794960022,0.022657118159380818
27.931034,,1.9009799744688456e-08,28.368,0.7860000133514404,0.027142449679402658
28.396552,,1.7553554075340404e-08,28.833,0.765999972820282,-0.016394377177218693
28.862069,,1.5971852529537366e-08,29.299,0.800000011920929,0.057622602536188235
29.327586,,1.426491445088236e-08,29.759,0.7789999842643738,0.011721967834777643
29.793103000000002,,1.2433415022294014e-08,30.224,0.7630000114440918,-0.023373596695519493
30.258620999999998,,1.0478502546127182e-08,30.689,0.7820000052452087,0.01770115198366028
30.724138,,8.401814784294185e-09,31.155,0.7699999809265137,-0.008835287097761444
31.189655000000002,,6.205494259551147e-09,31.622,0.7860000133514404,0.02556915496270108
31.655172000000004,,3.892202418547991e-09,32.088,0.7599999904632568,-0.03157800387339393
32.12069,,1.4651325570046677e-09,32.549,0.6700000166893005,-0.22819430539384566
32.586207,,1.0719785925148993e-09,33.019,0.7850000262260437,0.021791166068857674
33.051724,,3.7148407092913147e-09,33.481,0.7599999904632568,-0.0332365140934604
33.517241000000006,,6.458601267819166e-09,33.944,0.7850000262260437,0.020685146041267474
33.982759,,9.297838552847874e-09,34.409,0.6980000138282776,-0.16936964805373397
34.448276,,1.2226556401457603e-08,34.879,0.7829999923706055,0.015350325061087874
34.913793,,1.523818076549691e-08,35.345,0.765999972820282,-0.02208890061744133
35.37931,,1.8325558185251267e-08,35.807,0.7689999938011169,-0.015878169010284625
35.844828,,2.148095626232401e-08,36.272,0.7879999876022339,0.02527849845463693
36.310345,,2.4696066216385458e-08,36.737,0.7789999842643738,0.00552913530288722
36.775862,,2.796200760667472e-08,37.204,0.7670000195503235,-0.020655152395912892
37.241378999999995,,3.12693352949163e-08,37.67,0.7770000100135803,0.0011931612629261005
37.706897000000005,,3.460804872163566e-08,38.136,0.7620000243186951,-0.03132366239583557
38.172414,,3.7967603562721265e-08,38.596,0.7459999918937683,-0.06592323327524562
38.637931,,4.1336925827484116e-08,39.066,0.7870000004768372,0.023748849453416866
39.103448,,4.4704428453408947e-08,39.529,0.8500000238418579,0.16143212129225382
39.568965999999996,,4.8058030446276556e-08,39.992,0.7870000004768372,0.02467560034392996
40.034483,,5.138517860736657e-08,40.455,0.7950000166893005,0.042657295554251566
40.5,,5.467287188203056e-08,40.925,0.765999972820282,-0.019935435331096023
40.965517,,5.790768835606338e-08,41.384,0.746999979019165,-0.06072524947897877
41.431034,,6.107581491800458e-08,41.85,0.7789999842643738,0.0095929857849117
41.896552,,6.416307959678304e-08,42.315,0.765999972820282,-0.01814919468977998
42.362069000000005,,6.715498657498906e-08,42.782,0.7770000100135803,0.0063573310508523865
42.827586000000004,,7.003675386853367e-08,43.248,0.7630000114440918,-0.023658548947105163
43.293103,,7.279335365355309e-08,43.714,0.777999997138977,0.00943486084669657
43.758621,,7.540955521115356e-08,44.18,0.7620000243186951,-0.02509449802114428
44.224138,,7.786997044999182e-08,44.645,0.7739999890327454,0.0012826936043145937
44.689655,,8.015910195577037e-08,45.11,0.8109999895095825,0.08202378764822205
45.155172,,8.226139350552179e-08,45.571,0.7910000085830688,0.03847610352526069
45.620689999999996,,8.41612829730881e-08,46.04,0.7739999890327454,0.001356664535006655
46.086206999999995,,8.584325754050012e-08,46.503,0.7760000228881836,0.005524945856945757
46.551724,,8.729191111805917e-08,46.966,0.7649999856948853,-0.018731377427767284
47.017241,,8.849200386385378e-08,47.429,0.7820000052452087,0.01792090661522866
47.482759,,8.942852368124248e-08,47.899,0.7860000133514404,0.02616887035653374
47.948276,,9.008674956053757e-08,48.365,0.7200000286102295,-0.11815727845056043
48.413793,,9.045231661877492e-08,48.825,0.7860000133514404,0.02504453958115205
48.879310000000004,,9.051128267909194e-08,49.291,0.7490000128746033,-0.056189619421226154
49.344828,,9.025019621890467e-08,49.756,0.7599999904632568,-0.032864522571819946
49.810345,,8.965616550381906e-08,50.221,0.7850000262260437,0.020965978779107212
50.275862,,8.87169287120789e-08,50.689,0.7620000243186951,-0.029753994164256135
50.741379,,8.7420924842393e-08,51.154,0.7749999761581421,-0.0019988502471664183
51.206897,,8.575736518624512e-08,51.615,0.7829999923706055,0.01492521498308233
51.672414,,8.371630513432471e-08,52.084,0.7910000085830688,0.03192814716950033
52.137931,,8.12887160755766e-08,52.544,0.7839999794960022,0.016344191432971632
52.603448,,7.846655713660812e-08,53.014,0.8040000200271606,0.05968804562131
53.068966,,7.524284649886632e-08,53.478,0.7620000243186951,-0.03193277112812766
53.534483,,7.161173202116268e-08,53.94,0.7789999842643738,0.005101639731788576
54.0,,6.756856088583282e-08,54.406,0.7789999842643738,0.005214645199886385
54.465517,,6.310994797813258e-08,54.876,0.8009999990463257,0.05337132162077177
54.931034,,5.823384270044521e-08,55.334,0.7829999923706055,0.01448934368795118
55.396552,,5.293959391556432e-08,55.8,0.7609999775886536,-0.03301044439092834
55.862069,,4.722801270678225e-08,56.266,0.7950000166893005,0.04157756372474586
56.327586,,4.1101432636808036e-08,56.734,0.7760000228881836,0.0007653013877536803
56.793102999999995,,3.4563767182721636e-08,57.199,0.7580000162124634,-0.037818363148076
57.258621000000005,,2.7620564020295266e-08,57.659,0.7680000066757202,-0.015370181293416533
57.724138,,2.0279055828134124e-08,58.124,0.8040000200271606,0.0637328597654933
58.189655,,1.2548207280260513e-08,58.593,0.7839999794960022,0.02082165643720989
58.655172,,4.438757895039147e-09,59.055,0.7689999938011169,-0.011226985438911643
59.120689999999996,,4.03673959123257e-09,59.525,0.765999972820282,-0.017183544504635554
59.586207,,1.2863885656118772e-08,59.988,0.777999997138977,0.009469620522962355
60.051724,,2.202640555540018e-08,60.456,0.7839999794960022,0.022964987466201525
60.517241,,3.1506126343002814e-08,60.918,0.6660000085830688,-0.23379321806997383
60.982758999999994,,4.128295966401865e-08,61.384,0.7820000052452087,0.019138667558482803
61.448276,,5.133489063147301e-08,61.849,0.7870000004768372,0.03012208603247276
61.913793,,6.163797308922618e-08,62.315,0.7620000243186951,-0.024373586935053072
62.379310000000004,,7.216633155369492e-08,62.774,0.781000018119812,0.016871608839498873
62.84482800000001,,8.289217011591521e-08,63.24,0.7590000033378601,-0.03132338881487074
63.310345000000005,,9.378578857281793e-08,63.707,0.7789999842643738,0.011877072390459582
63.775862000000004,,1.0481560604243498e-07,64.173,0.7630000114440918,-0.023450272320439357
64.241379,,1.159481923020793e-07,64.641,0.7559999823570251,-0.03925251781414942
64.706897,,1.271483070713405e-07,65.099,0.7789999842643738,0.010238923451535039
65.172414,,1.3837894744300145e-07,65.57,0.7739999890327454,-0.0013180196799643124
65.637931,,1.4960140364471227e-07,66.032,0.7839999794960022,0.019779467971542498
66.103448,,1.6077532329246175e-07,66.496,0.7680000066757202,-0.015771797897704845
66.56896599999999,,1.7185878427357514e-07,66.966,0.7289999723434448,-0.10141570267191634
67.03448300000001,,1.8280837637215781e-07,67.43,0.7519999742507935,-0.051947075139701274
67.5,,1.935792917236218e-07,67.892,0.7649999856948853,-0.024208246297244967
67.965517,,2.0412542415720493e-07,68.358,0.781000018119812,0.010142909999433038
68.431034,,2.1439947745625837e-07,68.823,0.7829999923706055,0.014086203268227068
68.896552,,2.2435308253557928e-07,69.288,0.7599999904632568,-0.03633011539729885
69.362069,,2.3393692350325242e-07,69.755,0.7910000085830688,0.031016969384471602
69.827586,,2.4310087254139285e-07,70.214,0.7620000243186951,-0.032232042908833324
70.293103,,2.5179413350591654e-07,70.682,0.7639999985694885,-0.027818071839329148
70.75862099999999,,2.599653941100768e-07,71.147,0.7870000004768372,0.022471167068825317
71.22413800000001,,2.675629865200675e-07,71.611,0.7820000052452087,0.011877415513364808
71.689655,,2.7453505615359723e-07,72.074,0.7839999794960022,0.016644653246721798
72.15517200000001,,2.8082973843407067e-07,72.544,0.7829999923706055,0.014974043363140933
72.62069,,2.8639534321397653e-07,73.007,0.7480000257492065,-0.06068881737602473
73.086207,,2.911805465413765e-07,73.47,0.7789999842643738,0.007501846995136177
73.551724,,2.9513458940313495e-07,73.94,0.800000011920929,0.05394970566244249
74.017241,,2.9820748303783844e-07,74.406,0.7739999890327454,-0.001976278630310963
74.482759,,3.0035022037036173e-07,74.868,0.7620000243186951,-0.027401514097556222
74.94827599999999,,3.015149930788667e-07,75.334,0.7860000133514404,0.025581056356434713
75.41379300000001,,3.016554137638181e-07,75.799,0.7580000162124634,-0.03477126681726374
75.87931,,3.007267426475072e-07,76.265,0.8529999852180481,0.17278570051698255
76.344828,,2.9868611819174617e-07,76.729,0.7680000066757202,-0.011895722783997503
76.810345,,2.954927909809846e-07,77.195,0.781000018119812,0.016831491831208543
77.275862,,2.911083601782707e-07,77.66,0.781000018119812,0.01712301488451011
77.741379,,2.8549701182239786e-07,78.126,0.7649999856948853,-0.017566863911316892
78.206897,,2.786257581964189e-07,78.588,0.7839999794960022,0.02386701282220071
78.67241399999999,,2.704646774606425e-07,79.05,0.7770000100135803,0.008525541036709392
79.137931,,2.6098715270743747e-07,79.52,0.7850000262260437,0.025735759959777373
79.603448,,2.501701095608385e-07,79.983,0.7739999890327454,0.0014297851187267624
80.068966,,2.3799425141125577e-07,80.447,0.8100000023841858,0.0794092589875538
80.53448300000001,,2.244442913447353e-07,80.91,0.6169999837875366,-0.3416219753067106
81.0,,2.0950917979737603e-07,81.375,0.7850000262260437,0.023752870118609822
81.465517,,1.9318232693887965e-07,81.84,0.7730000019073486,-0.003093405985316991
81.931034,,1.754618187649813e-07,82.306,0.765999972820282,-0.019085956428446217
82.396552,,1.5635062585686863e-07,82.771,1.0950000286102295,0.69693733822674
82.86206899999999,,1.3585680374683625e-07,83.236,0.7820000052452087,0.014287091886198562
83.327586,,1.1399368381352844e-07,83.703,0.7860000133514404,0.022305445881264423
83.79310299999999,,9.078005361737916e-08,84.169,0.7680000066757202,-0.01755432020303454
84.258621,,6.624032557744821e-08,84.634,0.765999972820282,-0.022484246467510783
84.72413800000001,,4.0404692884950316e-08,85.1,0.7850000262260437,0.01842693467477029
85.189655,,1.330927154655551e-08,85.563,0.7599999904632568,-0.036418001222029275
85.65517200000001,,1.5003772547829904e-08,86.025,0.781000018119812,0.00907151870199553
86.12069,,4.4486112632451855e-08,86.489,0.7730000019073486,-0.008494796536277906
86.586207,,7.508316723811274e-08,86.959,1.031000018119812,0.5535943043546938
87.051724,,1.0673402460532624e-07,87.429,0.7829999923706055,0.013426683825773946
87.517241,,1.3937138639540253e-07,87.884,0.7839999794960022,0.01587401906512888
87.98275899999999,,1.7292153173351937e-07,88.35,0.753000020980835,-0.05127758558606092
88.448276,,2.0730430259002594e-07,88.814,0.7689999938011169,-0.015927943382660983
88.913793,,2.4243311147363016e-07,89.28,0.7829999923706055,0.0151544361684567
89.37931,,2.7821497237264594e-07,89.744,0.7829999923706055,0.015808612647804452
89.844828,,3.1455055583804754e-07,90.21,0.7699999809265137,-0.011806924316182889
90.310345,,3.5133426905463144e-07,90.675,0.7599999904632568,-0.032856152122214106
90.775862,,3.884543616940735e-07,91.14,0.7889999747276306,0.031069457723419448
91.241379,,4.257930582860595e-07,91.61,0.765999972820282,-0.01830949603358786
91.706897,,4.63226717780945e-07,92.073,0.7870000004768372,0.028135020180753974
92.17241399999999,,5.006260209095697e-07,92.537,0.777999997138977,0.009161767147078136
92.63793100000001,,5.37856185872934e-07,92.999,0.777999997138977,0.009718737273873668
93.103448,,5.747772128164778e-07,93.47,0.7860000133514404,0.027610216265368
93.568966,,6.112441574607456e-07,93.933,0.7689999938011169,-0.009073518951342546
94.03448300000001,,6.471074341723624e-07,94.399,0.7820000052452087,0.019482319342371195
94.5,,6.822131486665744e-07,94.862,0.7649999856948853,-0.017448641760439483
94.965517,,7.164034604352577e-07,95.327,0.7110000252723694,-0.13512136718731974
95.431034,,7.495169748924026e-07,95.792,0.7889999747276306,0.0346555437285765
95.896552,,7.813891651228209e-07,96.258,0.7689999938011169,-0.009200352779525647
96.36206899999999,,8.118528230093761e-07,96.723,0.7689999938011169,-0.009599056375906054
96.827586,,8.407385393996245e-07,97.189,0.7839999794960022,0.022578528566120984
97.293103,,8.678752128546034e-07,97.655,0.765999972820282,-0.017226896717641615
97.758621,,8.930905864008831e-07,98.12,0.7850000262260437,0.023508455658270686
98.224138,,9.162118115821928e-07,98.581,0.7990000247955322,0.05330207385226011
98.689655,,9.370660389792369e-07,99.051,0.7620000243186951,-0.028041785934842856
99.155172,,9.554810342360774e-07,99.511,0.7820000052452087,0.014792776066459505
99.62069,,9.712858184990133e-07,99.981,0.796999990940094,0.046752573563369274
100.086207,,9.843113320396306e-07,100.444,0.765999972820282,-0.021464603588718923
100.551724,,9.943911196980138e-07,100.907,0.7839999794960022,0.01713321233560901
101.017241,,1.0013620366454298e-06,101.372,0.7870000004768372,0.02313145889144542
101.482759,,1.005064972828563e-06,101.837,0.7839999794960022,0.016154620293914995
101.948276,,1.0053455943200583e-06,102.302,0.7630000114440918,-0.02992797498234067
102.413793,,1.0020550996631982e-06,102.766,0.7620000243186951,-0.03231869937543546
102.87931,,9.950509891625225e-07,103.232,0.7870000004768372,0.022060676028397775
103.344828,,9.841978449375963e-07,103.7,0.7850000262260437,0.01774531309132821
103.810345,,9.693681194245006e-07,104.165,0.781000018119812,0.00920013187808953
104.275862,,9.504429298795175e-07,104.63,0.7360000014305115,-0.08854852751324356
104.741379,,9.27312856312465e-07,105.089,0.7689999938011169,-0.016251564579037175
105.206897,,8.998787401538133e-07,105.559,0.7599999904632568,-0.03535907325668612
105.672414,,8.680524808406754e-07,106.022,0.7820000052452087,0.01315569187193074
106.13793100000001,,8.317578273926077e-07,106.485,0.7609999775886536,-0.031945093344338094
106.603448,,7.909311619395134e-07,106.955,0.7789999842643738,0.007968020248363258
107.068966,,7.455222720614384e-07,107.422,0.7850000262260437,0.021762999252744802
107.534483,,6.954951087043055e-07,107.884,0.753000020980835,-0.04722734018056318
108.0,,6.408285263472862e-07,108.35,0.8050000071525574,0.066769999959239
108.46551699999999,,5.815170020172045e-07,108.814,0.7639999985694885,-0.021886879820955715
108.931034,,5.175713296737204e-07,109.28,0.7870000004768372,0.028829450631809424
109.396552,,4.490192864266922e-07,109.739,0.7839999794960022,0.022821984212963716
109.862069,,3.7590626699469063e-07,110.204,0.7649999856948853,-0.018138851443438263
110.32758600000001,,2.9829588277173845e-07,110.67,0.777999997138977,0.010508298916588686
110.793103,,2.1627052183859986e-07,111.136,0.7689999938011169,-0.008893608805821634
111.258621,,1.299318662359163e-07,111.603,0.7630000114440918,-0.021884737082187754
111.724138,,3.940136280976533e-08,112.066,0.7820000052452087,0.0194626372340206
112.189655,,5.5179356053642095e-08,112.534,0.7829999923706055,0.02146874050851659
112.655172,,1.5364810546788e-07,112.996,0.7839999794960022,0.02335500579205124
113.12069,,2.5582183849116145e-07,113.459,0.8209999799728394,0.10356254442821594
113.586207,,3.6149639755863227e-07,113.929,0.7580000162124634,-0.0341923817266585
114.051724,,4.7044633042195725e-07,114.394,0.7789999842643738,0.010975411811570612
114.51724100000001,,5.82424774038151e-07,114.857,0.8119999766349792,0.0822213726207369
114.982759,,6.971634097560736e-07,115.323,0.796999990940094,0.04884764558962642
115.448276,,8.143724930395035e-07,115.788,0.7820000052452087,0.015450196409366299
115.913793,,9.337409608399181e-07,116.254,0.7559999823570251,-0.04191576105245002
116.37931,,1.0549366195898037e-06,116.719,0.7680000066757202,-0.01647538678028259
116.84482799999999,,1.1776064166282794e-06,117.185,0.7879999876022339,0.026433358325820798
117.310345,,1.3013767976948808e-06,117.645,0.7630000114440918,-0.02863702610895729
117.77586199999999,,1.4258541529344233e-06,118.111,0.7820000052452087,0.012231290101721425
118.241379,,1.550625353645905e-06,118.574,0.7649999856948853,-0.02523761180593134
118.70689700000001,,1.6752583817814122e-06,119.044,0.7620000243186951,-0.03209822995620563
119.172414,,1.7993030539570516e-06,119.507,0.7820000052452087,0.011266967781849367
119.63793100000001,,1.922291841477168e-06,119.97,0.7559999823570251,-0.04546202251595533
120.103448,,2.043740787595743e-06,120.44,0.7609999775886536,-0.03452693433977676
120.568966,,2.1631505229451484e-06,120.903,0.7720000147819519,-0.010395106823597663
121.034483,,2.280007379752722e-06,121.368,0.7820000052452087,0.011678578999524458
121.5,,2.3937846051403307e-06,121.833,0.7739999890327454,-0.005350899545783988
121.96551699999999,,2.503943673461683e-06,122.299,0.8500000238418579,0.1607281646139519
122.431034,,2.6099356972772237e-06,122.766,0.7689999938011169,-0.015152886497072264
122.896552,,2.7112029361975815e-06,123.224,0.777999997138977,0.005113188219149396
123.362069,,2.807180402444528e-06,123.689,0.7630000114440918,-0.02686118091750663
123.827586,,2.8972975615839624e-06,124.155,0.781000018119812,0.013085407420101265
124.293103,,2.980980126479493e-06,124.622,0.7870000004768372,0.026891899265315475
124.758621,,3.0576519420986564e-06,125.088,0.7300000190734863,-0.0965756405925326
125.22413800000001,,3.126736958377738e-06,125.555,0.8899999856948853,0.25268346769575617
125.68965500000002,,3.1876612879166233e-06,126.017,0.7630000114440918,-0.023387920062220804
126.15517200000001,,3.239855344833334e-06,126.485,0.765999972820282,-0.01631408666568392
126.62069000000001,,3.282756060660123e-06,126.948,0.7820000052452087,0.01898464349894829
127.086207,,3.3158091727105767e-06,127.413,0.7870000004768372,0.0302074834983717
127.55172400000001,,3.3384715798914787e-06,127.877,0.777999997138977,0.010808538684025511
128.017241,,3.35021376047572e-06,128.343,0.7599999904632568,-0.02832620902807818
128.48275900000002,,3.350522245894898e-06,128.808,0.7620000243186951,-0.024019393465205898
128.948276,,3.3389021441539733e-06,129.274,0.781000018119812,0.01719426194809923
129.413793,,3.314879706017216e-06,129.741,0.7850000262260437,0.0256042510195919
129.87931,,3.2780049266663545e-06,130.199,0.7839999794960022,0.023006547797880344
130.344828,,3.2278541750901857e-06,130.664,0.7860000133514404,0.026843376290762687
130.81034499999998,,3.164032843031764e-06,131.129,0.7609999775886536,-0.02822969123476019
131.275862,,3.086178004896576e-06,131.6,0.7409999966621399,-0.0724784156438732
131.741379,,2.9939610796147816e-06,132.062,0.7699999809265137,-0.010022446685258968
132.206897,,2.887090485054656e-06,132.525,0.7990000247955322,0.05240810899790755
132.67241399999997,,2.7653142752048255e-06,132.995,0.7820000052452087,0.014619516737382071
133.13793099999998,,2.628422749981851e-06,133.456,0.7710000276565552,-0.010075386451474449
133.60344800000001,,2.476251027179197e-06,133.925,0.7689999938011169,-0.015119127575059637
134.06896600000002,,2.308681565755797e-06,134.384,0.7599999904632568,-0.035349137098075335
134.53448300000002,,2.125646629369356e-06,134.85,0.7839999794960022,0.016399846111290077
135.0,,1.927130678793362e-06,135.315,0.7699999809265137,-0.01453898203037296
135.465517,,1.7131726816196026e-06,135.782,0.781000018119812,0.009103174982324538
135.931034,,1.483868327441901e-06,136.248,0.765999972820282,-0.023774974878982735
136.396552,,1.2393721365438632e-06,136.714,0.7739999890327454,-0.006413122916439084
136.862069,,9.79899449975754e-07,137.181,0.8019999861717224,0.05465552327447367
137.327586,,7.057282888051534e-07,137.64,0.7839999794960022,0.015639252086390693
137.793103,,4.1720107026479766e-07,138.106,0.765999972820282,-0.023250436167744908
138.258621,,1.1472616850085768e-07,138.574,0.7749999761581421,-0.0032006497844074863
138.724138,,2.0122069235227681e-07,139.036,0.7860000133514404,0.021309231141903282
139.189655,,5.30095224977099e-07,139.5,0.8870000243186951,0.2419860712043514
139.655172,,8.71283557650394e-07,139.97,0.7630000114440918,-0.027462411060238164
140.12069,,1.224101416923387e-06,140.433,0.7860000133514404,0.023397293442105047
140.586207,,1.5877935259235585e-06,140.896,0.765999972820282,-0.019403430695663228
141.05172399999998,,1.961533229734647e-06,141.361,0.7850000262260437,0.0227609857265031
141.51724099999998,,2.3444223589967786e-06,141.829,0.781000018119812,0.01479025844283429
141.982759,,2.735491342500805e-06,142.295,0.7649999856948853,-0.019373659902065393
142.44827600000002,,3.1336995791287533e-06,142.76,0.7599999904632568,-0.029644139963891113
142.913793,,3.5379360790150206e-06,143.225,0.7609999775886536,-0.026934459958776295
143.37931,,3.947020383269835e-06,143.685,0.7609999775886536,-0.026511739149307913
143.844828,,4.359703771017108e-06,144.15,0.7699999809265137,-0.0066025226320287535
144.310345,,4.774670761852736e-06,144.623,0.7850000262260437,0.026248520519665
144.77586200000002,,5.190540921126554e-06,145.081,0.7789999842643738,0.01321281258275162
145.241379,,5.605870974691548e-06,145.549,0.781000018119812,0.017470417850292335
145.706897,,6.01915723894788e-06,146.011,0.765999972820282,-0.015442556912567644
146.172414,,6.4288383711371335e-06,146.474,0.781000018119812,0.016877656394851493
146.637931,,6.833298443914845e-06,146.944,0.7829999923706055,0.020760163242157684
147.103448,,7.23087034724752e-06,147.409,0.777999997138977,0.009291971656501882
147.568966,,7.619839519645254e-06,147.872,0.7509999871253967,-0.0501896717407034
148.034483,,7.998448009654145e-06,148.337,0.7820000052452087,0.01662707945384976
148.5,,8.364898867395487e-06,148.804,0.7620000243186951,-0.027707981455034315
148.965517,,8.717360864753222e-06,149.27,0.7749999761581421,-0.0001647569868465531
149.43103399999998,,9.053973541579358e-06,149.729,0.8690000176429749,0.20385831675511598
149.89655199999999,,9.372852574011482e-06,150.195,0.8100000023841858,0.07458353504054828
150.362069,,9.672095459679786e-06,150.659,0.796999990940094,0.045584218302141766
150.82758600000003,,9.949787513226048e-06,151.125,0.7789999842643738,0.005768151505195208
151.293103,,1.0204008164166977e-05,151.593,0.777999997138977,0.0030831447631984635
151.758621,,1.0432837547712582e-05,152.055,0.7680000066757202,-0.019100759462992313
152.224138,,1.0634363377700665e-05,152.525,0.7559999823570251,-0.04552150295270638
152.68965500000002,,1.0806688089334927e-05,152.988,0.7749999761581421,-0.004275304583626156
153.155172,,1.0947936237920895e-05,153.456,0.7839999794960022,0.01531845594162906
153.62069,,1.105626213828521e-05,153.918,0.7820000052452087,0.01108231469364658
154.086207,,1.1129857728044643e-05,154.384,0.7699999809265137,-0.014809020935399759
154.551724,,1.1166960636366411e-05,154.85,0.7820000052452087,0.011710783566546333
155.017241,,1.1165862438336218e-05,155.316,0.7609999775886536,-0.03355314894383957
155.482759,,1.1124917073530207e-05,155.781,0.7990000247955322,0.04982042387576079
155.948276,,1.1042549405877469e-05,156.239,0.9179999828338623,0.30974677549024937
156.413793,,1.091726390040668e-05,156.711,0.7820000052452087,0.01418217517964127
156.87931,,1.074765339099991e-05,157.169,0.7860000133514404,0.02366742704655144
157.34482799999998,,1.0532407911834788e-05,157.634,0.43799999356269836,-0.7337257830987196
157.81034499999998,,1.027032356378952e-05,158.1,0.800000011920929,0.05569804072388921
158.275862,,9.960311385720166e-06,158.57,0.765999972820282,-0.017663859693163465
158.741379,,9.601406199202838e-06,159.032,0.7820000052452087,0.017850686736661268
159.20689700000003,,9.192775394071746e-06,159.5,0.7870000004768372,0.029324156803946014
159.672414,,8.733727620884376e-06,159.963,0.8169999718666077,0.09517155673564145
160.137931,,8.2237213553142e-06,160.426,0.7870000004768372,0.030193849700074337
160.60344800000001,,7.662373298416515e-06,160.896,0.7630000114440918,-0.021830805566769258
161.06896600000002,,7.04946657574103e-06,161.354,0.8949999809265137,0.26588797866676567
161.534483,,6.3849586973829515e-06,161.819,0.7889999747276306,0.03496083858275661
162.0,,5.668989240279414e-06,162.285,0.593999981880188,-0.3899991229833742
162.465517,,4.901887213377306e-06,162.751,0.7879999876022339,0.032400342064194794
162.931034,,4.0841780657286475e-06,163.217,0.7649999856948853,-0.018091173583734525
163.396552,,3.216590297117561e-06,163.682,0.765999972820282,-0.01640469213899402
163.862069,,2.300061630495265e-06,164.148,0.781000018119812,0.01568840971046331
164.327586,,1.3357447053029014e-06,164.611,0.7799999713897705,0.012846844929651132
164.793103,,3.250122507028027e-07,165.081,0.7789999842643738,0.009949811266358312
165.258621,,7.305383021769087e-07,165.541,0.7839999794960022,0.020090994773267
165.72413799999998,,1.8290808096457594e-06,166.011,0.7639999985694885,-0.02424492862892359
166.189655,,2.968557046774992e-06,166.474,0.7710000276565552,-0.009745523324785774
166.655172,,4.14667402036571e-06,166.936,0.7580000162124634,-0.03878490422966331
167.12069,,5.360902002570072e-06,167.402,0.7860000133514404,0.021556633389518146
167.58620699999997,,6.608473323290116e-06,167.865,0.7559999823570251,-0.04438690725751235
168.051724,,7.886381958420242e-06,168.331,0.7850000262260437,0.018304380721071246
168.517241,,9.191383949763044e-06,168.796,0.7749999761581421,-0.0038622573375214765
168.98275900000002,,1.0519998691030633e-05,169.261,0.7490000128746033,-0.060766257809611306
169.44827600000002,,1.1868511112742152e-05,169.726,0.7570000290870667,-0.043468524741315046
169.913793,,1.3232974797040594e-05,170.192,0.800000011920929,0.05021419573093156
170.37931,,1.4609216051476573e-05,170.659,0.7680000066757202,-0.019368257898412428
170.844828,,1.599283896864247e-05,171.125,0.7820000052452087,0.01139643495239794
171.310345,,1.737923149618666e-05,171.586,0.7979999780654907,0.04663982131348544
171.775862,,1.8763572539194704e-05,172.049,0.7599999904632568,-0.0356539357274541
172.241379,,2.0140840114193477e-05,172.518,0.7829999923706055,0.015043881256692267
172.706897,,2.1505820571116344e-05,172.981,0.7620000243186951,-0.030043067371332322
173.172414,,2.2853118896465633e-05,173.444,0.7829999923706055,0.0164285655855805
173.637931,,2.417717010762543e-05,173.914,0.7850000262260437,0.021539882188292604
174.103448,,2.5472251744817212e-05,174.38,0.7429999709129333,-0.06919904933517455
174.568966,,2.6732497463557622e-05,174.843,0.7820000052452087,0.016519150000489296
175.034483,,2.795191172667721e-05,175.309,0.765999972820282,-0.01762470260910977
175.5,,2.9124385590997816e-05,175.773,0.7609999775886536,-0.02786129135259663
175.96551699999998,,3.0243713579651417e-05,176.239,0.7820000052452087,0.018468983147547205
176.43103399999998,,3.130361162676245e-05,176.704,0.7860000133514404,0.027667258589505413
176.896552,,3.229773607681837e-05,177.17,0.7609999775886536,-0.026424964534991675
177.36206900000002,,3.32197037165289e-05,177.63,0.7839999794960022,0.023936653905320973
177.827586,,3.406311281233344e-05,178.096,0.7649999856948853,-0.017334049404940224
178.293103,,3.482156512197082e-05,178.559,0.781000018119812,0.017515222139994163
178.758621,,3.548868884368724e-05,179.029,0.7879999876022339,0.03262436809263642
179.224138,,3.605816246174088e-05,179.492,0.765999972820282,-0.015574971651412122
179.68965500000002,,3.652373944187934e-05,179.955,0.7870000004768372,0.029787888603098552
180.155172,,3.687927372543325e-05,180.426,0.781000018119812,0.016219476076910322
180.62069,,3.711874596560246e-05,180.888,0.796999990940094,0.05048909185682255
181.086207,,3.723629044442626e-05,181.354,0.7599999904632568,-0.03078412387644199
181.551724,,3.7226222603843384e-05,181.819,0.7850000262260437,0.022964033083884557
182.01724099999998,,3.708306711917993e-05,182.284,0.7509999871253967,-0.051861810996579875
182.482759,,3.680158643837182e-05,182.744,0.7699999809265137,-0.01123029332718916
182.948276,,3.637680970525279e-05,183.209,0.7839999794960022,0.01852044173576548
183.413793,,3.580406198033946e-05,183.674,0.7789999842643738,0.00691297680862784
183.87931,,3.5078993667742325e-05,184.139,0.765999972820282,-0.022065973803449376
184.34482799999998,,3.41976100521471e-05,184.607,0.765999972820282,-0.0226452546951297
184.81034499999998,,3.3156300845265806e-05,185.069,0.7710000276565552,-0.01223640103350458
185.27586200000002,,3.195186963677465e-05,185.54,0.7950000166893005,0.0396769032262644
185.74137900000002,,3.0581563140557966e-05,186.003,0.7670000195503235,-0.021577294020188202
186.206897,,2.9043100123087223e-05,186.466,0.7860000133514404,0.01969476038384222
186.672414,,2.733469989700514e-05,186.929,0.7689999938011169,-0.01733114708365157
187.137931,,2.5455110259479572e-05,187.395,0.8209999799728394,0.0961036292699109
187.60344800000001,,2.340363475166478e-05,187.865,0.7680000066757202,-0.019089529539423843
188.06896600000002,,2.1180159112681768e-05,188.33,0.7879999876022339,0.024879743814158438
188.534483,,1.878517679892781e-05,188.795,0.7789999842643738,0.0057768556345700875
189.0,,1.621981343727205e-05,189.261,0.7820000052452087,0.012911114811260397
189.465517,,1.348585007881159e-05,189.719,0.781000018119812,0.01140570491870858
189.931034,,1.0585745118373865e-05,190.184,0.7620000243186951,-0.029261378184444645
190.39655199999999,,7.522654743878634e-06,190.652,0.7649999856948853,-0.02196715139184422
190.862069,,4.300451779038249e-06,191.118,0.7789999842643738,0.009300279121879489
191.327586,,9.237427826992798e-07,191.585,0.7860000133514404,0.02530253478346957
191.793103,,2.602116731567448e-06,192.048,0.7900000214576721,0.03473175582225575
192.25862099999998,,6.271009091218227e-06,192.511,0.7839999794960022,0.022315668740729495
192.72413799999998,,1.0076043410098093e-05,192.981,0.7730000019073486,-0.0010726545604789845
193.189655,,1.4009546815824994e-05,193.444,0.7870000004768372,0.029908139419302475
193.655172,,1.806305808920009e-05,193.907,0.7730000019073486,-0.00022495949347402865
194.12069000000002,,2.222732384267177e-05,194.373,0.7789999842643738,0.013091703678323198
194.586207,,2.6492297361323695e-05,194.837,0.7789999842643738,0.01320573963417131
195.051724,,3.084714022570616e-05,195.303,0.765999972820282,-0.015137147329570189
195.517241,,3.52802268310744e-05,195.77,0.7620000243186951,-0.024006514869320587
195.98275900000002,,3.977915191222792e-05,196.229,0.7739999890327454,0.0018523769507323858
196.448276,,4.4330741177154316e-05,196.696,0.7620000243186951,-0.024697258695554065
196.913793,,4.892106514606352e-05,197.161,0.7870000004768372,0.02925455960076594
197.37931,,5.353545628515077e-05,197.626,0.7870000004768372,0.0286482194924415
197.844828,,5.815852951654712e-05,198.092,0.7739999890327454,-0.00035378234972347915
198.310345,,6.277420617740599e-05,198.555,0.7820000052452087,0.01634316339070169
198.775862,,6.7365741491936e-05,199.025,0.7699999809265137,-0.010563480602537197
199.241379,,7.19157556104291e-05,199.485,0.7480000257492065,-0.05926435548417761
199.706897,,7.640626825895765e-05,199.955,0.8119999766349792,0.0794142638733922
200.172414,,8.081873703243398e-05,200.414,0.7599999904632568,-0.03459027830907181
200.63793099999998,,8.5134099352155e-05,200.884,0.796999990940094,0.04536679800811265
201.103448,,8.933281809680654e-05,201.35,0.7400000095367432,-0.07938789357741377
201.568966,,9.339493090319752e-05,201.815,0.8050000071525574,0.06175110839719785
202.034483,,9.730010311975305e-05,202.274,0.7860000133514404,0.019997670761844326
202.5,,0.00010102768438204178,202.741,0.7620000243186951,-0.03252383480894704
202.965517,,0.00010455676876537386,203.207,0.8069999814033508,0.06541328516751072
203.431034,,0.00010786625845480953,203.674,0.7889999747276306,0.026231568394396002
203.896552,,0.00011093493085779997,204.14,0.7689999938011169,-0.01717265741981841
204.36206900000002,,0.00011374150906917441,204.603,0.7820000052452087,0.011447222676091561
204.827586,,0.00011626473558233038,205.065,0.7649999856948853,-0.025173083499033157
205.293103,,0.00011848344912431894,205.533,0.7630000114440918,-0.029007401734130404
205.758621,,0.00012037666447608593,205.995,0.7839999794960022,0.017357231584334904
206.224138,,0.0001219236551224828,206.463,0.7900000214576721,0.0311145461894863
206.689655,,0.00012310403855984438,206.925,0.7820000052452087,0.014422408252618032
207.155172,,0.00012389786407200067,207.391,0.777999997138977,0.006473820037962123
207.62069,,0.00012428570276859746,207.854,0.7820000052452087,0.015959705139505957
208.086207,,0.00012424873966260675,208.32,0.7609999775886536,-0.029039426767863225
208.551724,,0.00012376886754697093,208.785,0.7480000257492065,-0.05665191889796575
209.01724099999998,,0.0001228287824135079,209.251,0.7760000228881836,0.004995301794142085
209.482759,,0.00012141208014057229,209.718,0.7829999923706055,0.020807269139768134
209.948276,,0.00011950335415958696,210.184,0.7609999775886536,-0.02666187150289586
210.413793,,0.0001170882937944994,210.65,0.7820000052452087,0.019436324069220703
210.87930999999998,,0.0001141537829525481,211.116,0.7639999985694885,-0.01955805857086101
211.344828,,0.00011068799882951853,211.578,0.765999972820282,-0.015111638311683015
211.810345,,0.0001066805102779995,212.04,0.7839999794960022,0.024058510388707797
212.27586200000002,,0.00010212237547309413,212.508,0.7860000133514404,0.02823780729362616
212.741379,,9.700623849667139e-05,212.971,0.7620000243186951,-0.02435489234571803
213.206897,,9.132642444864017e-05,213.434,0.7760000228881836,0.005722748823205818
213.672414,,8.507903268196631e-05,213.903,0.7630000114440918,-0.023128656687361738
214.137931,,7.826202774731092e-05,214.369,0.7820000052452087,0.01764756423510772
214.60344800000001,,7.087532762332421e-05,214.833,0.7870000004768372,0.02785302692194619
215.068966,,6.292088879985885e-05,215.298,0.7860000133514404,0.024938523420466215
215.534483,,5.440278777374974e-05,215.763,0.7699999809265137,-0.010681691502426243
216.0,,4.532729851041644e-05,216.229,0.7860000133514404,0.023412062377801548
216.465517,,3.570296541945745e-05,216.689,0.7670000195503235,-0.01872664849418133
216.93103399999998,,2.554067138869426e-05,217.155,0.7839999794960022,0.0176088244420927
217.39655199999999,,1.4853700418859693e-05,217.622,0.7689999938011169,-0.015708073439889978
217.862069,,3.6577944003792937e-06,218.088,0.7739999890327454,-0.00536848231817668
218.327586,,8.028796425466695e-06,218.555,0.781000018119812,0.009428925674341148
218.793103,,2.018526977622585e-05,219.018,0.7680000066757202,-0.019232383606107156
219.25862099999998,,3.278823485982814e-05,219.481,0.7829999923706055,0.013233071247763227
219.724138,,4.581168357307496e-05,219.944,0.7639999985694885,-0.028244435921914956
220.18965500000002,,5.9226969804338816e-05,220.409,0.7820000052452087,0.011021573840348374
220.65517200000002,,7.300279726809225e-05,220.88,0.781000018119812,0.009025510383817074
221.12069,,8.710521628731201e-05,221.345,0.7850000262260437,0.018049726231193733
221.586207,,0.00010149762992627571,221.804,0.7649999856948853,-0.025096409719921404
222.051724,,0.00011614080986074915,222.27,0.7699999809265137,-0.013672527395419149
222.517241,,0.00013099292235502447,222.737,0.7620000243186951,-0.030483804313527513
222.98275900000002,,0.00014600956469568914,223.202,0.7979999780654907,0.04863409898948869
223.448276,,0.00016114381241036637,223.667,0.7870000004768372,0.025404511779715765
223.913793,,0.00017634627757596023,224.133,0.777999997138977,0.006558697158300689
224.37931,,0.00019156517849516037,224.596,0.7829999923706055,0.018216778427368227
224.844828,,0.0002067464209921149,225.065,0.7689999938011169,-0.011540266741285304
225.31034499999998,,0.0002218336915482799,225.526,0.7910000085830688,0.03709052449284073
225.775862,,0.00023676856246751947,225.995,0.7820000052452087,0.018118559061959815
226.241379,,0.0002514906092255893,226.456,0.7749999761581421,0.0034197273242199525
226.706897,,0.0002659375401232271,226.919,0.7889999747276306,0.03437140499076815
227.172414,,0.00028004533832423937,227.384,0.7609999775886536,-0.026295318259975286
227.63793099999998,,0.0002937484163202698,227.85,0.7820000052452087,0.01966597766854289
228.103448,,0.00030697978282242725,228.316,0.7609999775886536,-0.026008552512501233
228.56896600000002,,0.0003196712220367083,228.784,0.7609999775886536,-0.026066616292744586
229.03448300000002,,0.00033175348523525823,229.25,0.7820000052452087,0.019493547031652635
229.5,,0.00034315649448906195,229.714,0.7839999794960022,0.02353247841185314
229.965517,,0.0003538095583797476,230.18,0.7820000052452087,0.018740316777985426
230.431034,,0.00036364159945893106,230.645,0.765999972820282,-0.01665670965319529
230.896552,,0.0003725813931730485,231.11,0.7839999794960022,0.021932937927566898
231.362069,,0.00038055781792004854,231.573,0.7699999809265137,-0.00926243077226533
231.827586,,0.0003875001158517833,232.035,0.765999972820282,-0.018718583188444698
232.293103,,0.00039333816398260307,232.504,0.7870000004768372,0.02626699227685183
232.758621,,0.0003980027551106752,232.966,0.7820000052452087,0.014607130418015962
233.224138,,0.0004014258880040843,233.43,0.7990000247955322,0.050901067431310724
233.689655,,0.00040354106624900947,233.899,0.7609999775886536,-0.032584804078693644
234.155172,,0.0004042836051023981,234.365,0.7940000295639038,0.038680502415197306
234.62069,,0.00040359094563675597,234.83,0.7870000004768372,0.02288618188952012
235.086207,,0.0004014029754101576,235.296,0.7620000243186951,-0.03202069708257676
235.55172399999998,,0.0003976623548405582,235.755,0.7850000262260437,0.017763367578897665
236.01724099999998,,0.00039231484841017333,236.221,0.7739999890327454,-0.006400790258313855
236.482759,,0.0003853096597733162,236.686,0.7630000114440918,-0.030432986722667477
236.94827600000002,,0.00037659976978987174,237.151,0.777999997138977,0.002313178745971718
237.413793,,0.0003661422764567791,237.614,0.7620000243186951,-0.03234706660610893
237.87931,,0.00035389873566172696,238.084,0.7839999794960022,0.01590692594732454
238.344828,,0.000339835501636989,238.544,0.765999972820282,-0.022868878999590326
238.810345,,0.00032392406594719986,239.014,0.7630000114440918,-0.028862436589978016
239.27586200000002,,0.0003061413938031483,239.478,0.765999972820282,-0.021698726080599823
239.741379,,0.000286470256454574,239.94,0.765999972820282,-0.02100435159446474
240.206897,,0.0002648995583787554,240.406,0.7839999794960022,0.018951556703764912
240.672414,,0.00024142465794864507,240.876,0.7620000243186951,-0.0282148146305921
241.137931,,0.0002160476802347477,241.334,0.7670000195503235,-0.016557771455847612
241.603448,,0.00018877782056907907,241.8,0.7820000052452087,0.016862564504893186
242.068966,,0.00015963163747753238,242.265,0.7739999890327454,0.00012875683071524177
242.534483,,0.0001286333335690375,242.73,0.7620000243186951,-0.025386166426330504
243.0,,9.581502295644937e-05,243.196,0.7789999842643738,0.012193491467557247
243.465517,,6.121698377560817e-05,243.663,0.8550000190734863,0.17821280000460368
243.93103399999998,,2.4887894365499965e-05,244.129,0.7850000262260437,0.026036728932467366
244.39655199999999,,1.3114948326479141e-05,244.592,0.8040000200271606,0.06763678784961813
244.862069,,5.272542954434203e-05,245.055,0.7440000176429749,-0.06300835070776051
245.327586,,9.386843814663912e-05,245.525,0.781000018119812,0.017539796639325596
245.793103,,0.00013645971005171216,245.988,0.7689999938011169,-0.008800015878499245
246.258621,,0.00018040569507845965,246.452,0.7599999904632568,-0.028732174646990283
246.724138,,0.00022560344852794677,246.914,0.8109999895095825,0.08193630153419622
247.18965500000002,,0.00027194054881989684,247.38,0.777999997138977,0.00949431397882131
247.655172,,0.0003192950424557366,247.851,0.777999997138977,0.008859938647019816
248.12069,,0.000367535417521152,248.309,0.7820000052452087,0.01687096614971295
248.586207,,0.0004165206068776483,248.776,0.7820000052452087,0.016119593420333093
249.051724,,0.000466100022144291,249.241,0.7620000243186951,-0.028230028878751652
249.517241,,0.0005161136195294484,249.707,0.7680000066757202,-0.015937184453749302
249.982759,,0.0005663919984904148,250.173,0.7710000276565552,-0.01015887200856153
250.44827600000002,,0.0006167565340550586,250.64,0.7789999842643738,0.0065574425588716765
250.913793,,0.000667019543514968,251.099,0.7839999794960022,0.01680513044354678
251.37931000000003,,0.0007169844882020798,251.567,0.753000020980835,-0.05129156325961993
251.844828,,0.00076644621111056,252.029,0.7620000243186951,-0.03213907479336848
252.31034499999998,,0.0008151912109368422,252.5,0.7649999856948853,-0.025941238868412944
252.77586200000002,,0.0008629979526197258,252.962,0.7820000052452087,0.010886461135350042
253.241379,,0.0009096372142067946,253.426,0.7699999809265137,-0.015330814588621035
253.706897,,0.0009548724704129067,253.896,0.7599999904632568,-0.03705238772970602
254.172414,,0.0009984603139127912,254.355,0.7739999890327454,-0.006349919908724256
254.63793099999998,,0.0010401509145472206,254.822,1.0190000534057617,0.5277563804208616
255.10344800000001,,0.0010796885142385184,255.288,0.7749999761581421,-0.00336651534328922
255.56896600000002,,0.0011168119549665868,255.756,0.7870000004768372,0.023357020414623713
256.03448299999997,,0.0011512552413758636,256.214,0.6449999809265137,-0.28534414819536763
256.5,,0.0011827481435256668,256.682,0.7699999809265137,-0.01228181771440777
256.965517,,0.001211016839418251,257.147,0.7760000228881836,0.0015652158700922457
257.431034,,0.001235784583789145,257.611,0.7820000052452087,0.015435003824116184
257.896552,,0.001256772390879884,258.074,0.7850000262260437,0.022767820526785665
258.362069,,0.0012736997465702692,258.544,0.6179999709129333,-0.34029829058547895
258.827586,,0.0012862853843961847,259.007,0.765999972820282,-0.017145051236641333
259.29310300000003,,0.001294248118008695,259.47,0.7919999957084656,0.04013898990027201
259.758621,,0.0012973076493989636,259.94,0.7620000243186951,-0.02467150660401444
260.224138,,0.0012951852997222747,260.406,0.7839999794960022,0.02370056215934175
260.689655,,0.0012876047817043314,260.869,0.7609999775886536,-0.026087090177605122
261.155172,,0.001274293212998213,261.334,0.6269999742507935,-0.3178381128893681
261.62068999999997,,0.001254982279632456,261.8,0.7820000052452087,0.019899089356175823
262.086207,,0.0012294090615270186,262.265,0.7620000243186951,-0.023767124534647802
262.551724,,0.0011973163116719987,262.729,0.777999997138977,0.010863690973268877
263.017241,,0.001158453019942207,263.195,0.765999972820282,-0.015634779395613682
263.482759,,0.0011125763463309085,263.659,0.7630000114440918,-0.02264164239413185
263.94827599999996,,0.001059454073314108,264.125,0.781000018119812,0.016001123553826616
264.413793,,0.0009988646612805686,264.585,0.7739999890327454,9.36171353513671e-05
264.87931,,0.0009305943218400239,265.055,0.7699999809265137,-0.009341885258007977
265.34482799999995,,0.0008544366306481473,265.518,0.7919999957084656,0.03782553787949664
265.810345,,0.0007702002796445208,265.98,0.753000020980835,-0.047923540492837244
266.27586199999996,,0.0006777180736557206,266.448,0.7559999823570251,-0.04216582092390034
266.741379,,0.0005768401481487267,266.911,0.7820000052452087,0.013727945595943068
267.206897,,0.0004674119984171527,267.377,0.593999981880188,-0.3965622159141
267.672414,,0.00034927278656258115,267.84,0.777999997138977,0.0036704860257519437
268.137931,,0.00022230099507129073,268.305,0.7739999890327454,-0.005594938543501307
268.603448,,8.645608310630397e-05,268.77,0.6869999766349792,-0.195581784869665
269.06896600000005,,5.828047980125148e-05,269.236,0.8119999766349792,0.07642413581706976
269.53448299999997,,0.000212036312159023,269.701,0.7730000019073486,-0.008736909643804297
270.0,,0.00037502994672935884,270.166,0.7839999794960022,0.015172951918146433
270.465517,,0.000547285364455486,270.633,0.7860000133514404,0.019615097155821687
270.931034,,0.000728440363683033,271.099,0.7580000162124634,-0.041165122049102776
271.396552,,0.0009181795190839075,271.562,0.781000018119812,0.009295565332907875
271.86206899999996,,0.001116972545281839,272.025,0.7609999775886536,-0.033806780649753364
272.327586,,0.0013257720963452766,272.489,0.777999997138977,0.003805571725695532
272.793103,,0.001544253666974642,272.959,0.7820000052452087,0.01318270490657421
273.258621,,0.0017700323495771202,273.429,0.7879999876022339,0.02698458342673786
273.724138,,0.0020016567747243616,273.884,0.777999997138977,0.005973329161037663
274.18965499999996,,0.002242607562175764,274.35,0.746999979019165,-0.06076909883669978
274.655172,,0.002498330373442603,274.815,0.7649999856948853,-0.020762616502163787
275.12069,,0.002765647369919296,275.281,0.7839999794960022,0.02139368763140109
275.586207,,0.003030411781308124,275.748,0.8069999814033508,0.07221388676162188
276.051724,,0.003287409997167036,276.214,0.7870000004768372,0.029280456898015016
276.517241,,0.003561060518637797,276.678,0.7839999794960022,0.023292130927119178
276.98275900000004,,0.003881002222913617,277.144,0.7829999923706055,0.021551879238708722
277.448276,,0.004220060084451698,277.607,0.7799999713897705,0.015331189427668033
277.913793,,0.004494959275655465,278.069,0.7540000081062317,-0.041131845327096093
278.37931,,0.004694453952341434,278.537,0.7630000114440918,-0.021482375117188687
278.844828,,0.004980058796401332,278.999,0.7870000004768372,0.030705546606224394
279.31034500000004,,0.005502899818660363,279.47,0.7850000262260437,0.026111399334498107
279.77586199999996,,0.006050428352106434,279.933,0.7350000143051147,-0.08318864019872467
280.241379,,0.00614144828970278,280.398,0.765999972820282,-0.016138908551195874
280.706897,,0.005830326176478468,280.861,0.7789999842643738,0.011589958990246136
281.172414,,0.006158952891430985,281.327,0.7739999890327454,1.7082658993330794e-05
281.637931,,0.007863705224396441,281.793,0.777999997138977,0.007987090273091912
282.10344799999996,,0.009334066037086303,282.258,0.6790000200271606,-0.20848753880166346
282.568966,,0.007266271177807169,282.725,0.7860000133514404,0.02381846534332318
283.034483,,0.0007431028792031091,283.184,0.8740000128746033,0.21473802268042103
283.5,,0.006444491578123394,283.649,0.765999972820282,-0.021321732802618586
283.965517,,0.009475391336410392,284.115,0.7870000004768372,0.02372210477554083
284.431034,,0.007733451775255713,284.585,0.8050000071525574,0.062308582629744716
284.89655200000004,,0.0045721067802639796,285.047,0.7829999923706055,0.013847717147697516
285.362069,,0.002818345612376486,285.515,0.7860000133514404,0.019967706864556074
285.827586,,0.0024937912736804468,285.978,0.7630000114440918,-0.030430670531942632
286.293103,,0.0024081963655768254,286.44,0.7820000052452087,0.010809165940395852
286.758621,,0.0021223555024799615,286.91,0.7720000147819519,-0.0109920490895947
287.22413800000004,,0.0019946881863317435,287.376,0.7870000004768372,0.0218133173878033
287.689655,,0.0021804332937559686,287.84,0.7860000133514404,0.019897190552208482
288.155172,,0.002171782397807159,288.299,0.7760000228881836,-0.0014980373304491954
288.62069,,0.001321758572386232,288.764,0.6959999799728394,-0.17528407298964604
289.086207,,0.00039443843826303035,289.229,0.7689999938011169,-0.01563930159667523
289.55172400000004,,0.0022637004987140466,289.696,0.765999972820282,-0.02149190855778502
290.01724099999996,,0.00339334910994726,290.162,0.7910000085830688,0.033718659700479395
290.482759,,0.0032823846208574346,290.627,0.7870000004768372,0.025787232790502355
290.948276,,0.0019488229584471274,291.092,0.7630000114440918,-0.025702305227283825
291.413793,,0.00021459755711575665,291.555,0.7850000262260437,0.02301585818518673
291.87931,,0.0024691400934251807,292.025,0.7620000243186951,-0.026339599458373927
292.344828,,0.0037651022608467238,292.488,0.7749999761581421,0.0026785450369612948
292.81034500000004,,0.003320255394552503,292.951,0.7699999809265137,-0.007597918488630512
293.275862,,0.0015391490007760783,293.417,0.7870000004768372,0.02995835993161918
293.74137900000005,,6.705242322559175e-05,293.883,0.7620000243186951,-0.024102051380193574
294.206897,,0.0004746611907027603,294.349,0.777999997138977,0.01103582551735688
294.672414,,0.002869106705447434,294.814,0.765999972820282,-0.014963390744882194
295.13793100000004,,0.005915368174978645,295.28,0.7590000033378601,-0.03020891619482387
295.603448,,0.008015430065415191,295.744,0.7710000276565552,-0.004200240802453616
296.068966,,0.008300354543126779,296.21,0.7789999842643738,0.012958161532891662
296.534483,,0.006856810730615161,296.675,0.7820000052452087,0.019096791179297384
297.0,,0.004562687826767968,297.14,0.7680000066757202,-0.01191617289857666
297.46551700000003,,0.0027239466416985143,297.604,0.765999972820282,-0.016884790310451158
297.931034,,0.0023877858376390748,298.066,0.7680000066757202,-0.013219628291699941
298.396552,,0.0036613891579297384,298.529,0.7820000052452087,0.016529778730990333
298.862069,,0.0056242824670408075,298.999,0.7820000052452087,0.015742218150222014
299.327586,,0.006871160669878266,299.463,0.7639999985694885,-0.024272879413555673
299.79310300000003,,0.0063365485431363016,299.926,0.7820000052452087,0.01415573093107323
300.258621,,0.004078107585071344,300.391,0.7620000243186951,-0.030167925657986677
300.724138,,0.0013846528450015953,300.854,0.7850000262260437,0.019249696184550153
301.189655,,0.0003073941048508402,301.32,0.765999972820282,-0.02275534884118565
301.65517200000005,,0.0007533514649767546,301.785,0.7789999842643738,0.005055932500246953
302.12069,,0.0008211088516410978,302.25,0.7820000052452087,0.011196024630239153
302.586207,,0.00113129759756566,302.714,0.796999990940094,0.043607902476262325
303.05172400000004,,0.0013367922088316124,303.18,0.7789999842643738,0.00426093633534116
303.517241,,0.0008366541085780505,303.644,0.7990000247955322,0.047843291099195356
303.982759,,0.00031526163276759906,304.11,0.765999972820282,-0.023902953943601733
304.448276,,0.0014437127736194283,304.578,0.7609999775886536,-0.0345124747430081
304.913793,,0.0019816763234607082,305.04,0.7879999876022339,0.024720170936037796
305.37931000000003,,0.0020325844963695085,305.511,0.7889999747276306,0.027421635753130478
305.844828,,0.0021587065188646212,305.973,0.7870000004768372,0.023685437134878175
306.310345,,0.0025753474485308227,306.437,0.781000018119812,0.011313575256215905
306.775862,,0.002747730027642111,306.899,0.7580000162124634,-0.03803861837803904
307.241379,,0.0020157858510755104,307.365,0.8450000286102295,0.1522947919795626
307.70689699999997,,0.0004790701330511131,307.83,0.7820000052452087,0.015842235524605407
308.172414,,0.0010746393778259616,308.296,0.7599999904632568,-0.03130003612037724
308.637931,,0.002151323349743442,308.763,0.7839999794960022,0.021735371698697915
309.103448,,0.003108799614179985,309.228,0.7630000114440918,-0.023331475673091413
309.568966,,0.0044975145097971014,309.693,0.777999997138977,0.00994869166131333
310.034483,,0.006083916506087029,310.159,0.7789999842643738,0.012625249242812178
310.5,,0.006873327491934806,310.625,0.765999972820282,-0.015317010986951655
310.96551700000003,,0.006121181895114923,311.084,0.8529999852180481,0.17447748024716558
311.431034,,0.004222693296615706,311.552,0.7820000052452087,0.019911133412634518
311.896552,,0.002575756984157698,312.014,0.7820000052452087,0.01988986311633172
312.362069,,0.0023809337013797212,312.485,0.7850000262260437,0.02626489872235949
312.827586,,0.0033408741790193603,312.947,0.7620000243186951,-0.024140149508325697
313.29310300000003,,0.0037553062985511304,313.413,0.765999972820282,-0.01584863822888943
313.758621,,0.002381517340552059,313.877,0.7820000052452087,0.0184729610923601
314.224138,,0.0001257529240309572,314.343,0.7490000128746033,-0.054056637432829215
314.689655,,0.0006996457316144563,314.81,0.7889999747276306,0.03237707063310395
315.155172,,0.0011175549165284313,315.269,0.6890000104904175,-0.1862569581838337
315.62068999999997,,0.004436141870047606,315.74,0.7630000114440918,-0.025840906628603035
316.086207,,0.0070455207922825724,316.206,0.7820000052452087,0.014740844350221678
316.551724,,0.00766683965614539,316.67,0.7910000085830688,0.033555123876418354
317.017241,,0.006627958351981895,317.129,0.7789999842643738,0.006661906450671608
317.482759,,0.00509281607770699,317.599,0.7879999876022339,0.025587811117403433
317.94827599999996,,0.0038556389102193276,318.062,0.7860000133514404,0.020637359840014833
318.413793,,0.0027225996229391604,318.529,0.7559999823570251,-0.045208661416583903
318.87931000000003,,0.0010478310142236881,318.992,0.8119999766349792,0.07643097061231369
319.344828,,0.0011695437010989357,319.455,0.7609999775886536,-0.03491114823447756
319.810345,,0.0030887946279591154,319.925,0.7789999842643738,0.004213914067970386
320.275862,,0.004056709047410469,320.391,0.753000020980835,-0.052379089850491035
320.741379,,0.004328885890743654,320.854,0.777999997138977,0.0022795765508838847
321.20689699999997,,0.004394025800611271,321.319,0.7620000243186951,-0.03225134567137319
321.672414,,0.004081920760499873,321.785,0.8069999814033508,0.06624071622506367
322.137931,,0.003067298391842109,322.244,0.7919999957084656,0.03412658242580245
322.603448,,0.0020617839796928904,322.711,0.7789999842643738,0.0064648221890042535
323.068966,,0.002523521841696764,323.176,0.7820000052452087,0.013735403568830145
323.53448299999997,,0.004719477917349984,323.641,0.781000018119812,0.012342246354286969
324.0,,0.006703935421352906,324.107,0.7620000243186951,-0.028240528096956447
324.465517,,0.005985875821921402,324.57,0.7820000052452087,0.016144417453045862
324.931034,,0.002135654570778802,325.04,0.7860000133514404,0.025646670858086758
325.396552,,0.0027683557682396977,325.504,0.7699999809265137,-0.008472825167410273
325.86206899999996,,0.006252221290069065,325.966,0.7789999842643738,0.011801918101022133
326.327586,,0.007513869110190639,326.43,0.781000018119812,0.016733385862295308
326.793103,,0.0073248406224472535,326.9,0.7620000243186951,-0.024197672040031478
327.258621,,0.006445295235328036,327.365,0.7870000004768372,0.03060625805524309
327.724138,,0.004706337220431257,327.825,0.7620000243186951,-0.02365813744219209
328.189655,,0.0018093761970205105,328.291,0.7820000052452087,0.019974195288796986
328.655172,,0.0012428665297454173,328.756,0.7820000052452087,0.01988957483912583
329.12068999999997,,0.0022181545586972017,329.222,0.765999972820282,-0.015194854440612287
329.586207,,4.6407494027716296e-05,329.689,0.781000018119812,0.017124326934969743
330.051724,,0.0034943668130368332,330.154,0.7559999823570251,-0.03782634445073511
330.517241,,0.004176252749011747,330.615,0.7630000114440918,-0.023169276726344574
330.982759,,0.00046165139120254593,331.084,0.7799999713897705,0.01318355001159649
331.44827599999996,,0.004875329151387432,331.548,0.7620000243186951,-0.026784964120686143
331.913793,,0.007647821440833863,332.01,0.777999997138977,0.007275038955330888
332.37931,,0.00667665629843701,332.478,0.777999997138977,0.0064565170502858555
332.844828,,0.004261284029846521,332.94,0.7570000290870667,-0.040108295831761266
333.310345,,0.002862974002724928,333.406,0.7990000247955322,0.05061239721753205
333.77586199999996,,0.0027074706996842754,333.876,0.7630000114440918,-0.028545920546850494
334.241379,,0.002646992233025747,334.334,0.765999972820282,-0.022659104689339155
334.706897,,0.0019746079664996782,334.8,0.7870000004768372,0.022541545513406463
335.17241399999995,,0.0007334913099739153,335.265,0.7620000243186951,-0.032360041173099194
335.637931,,0.0007920673352360086,335.73,0.7630000114440918,-0.030488059366508596
336.103448,,0.001996063264708324,336.196,0.8069999814033508,0.06520461458024131
336.56896600000005,,0.0019864688292360586,336.663,0.7609999775886536,-0.035036148023918315
337.034483,,0.0006285646173304943,337.128,0.7820000052452087,0.010837868436334752
337.5,,0.000887414092006133,337.589,0.765999972820282,-0.023757193551879167
337.965517,,0.0013839582017475247,338.058,0.7820000052452087,0.011497661138121833
338.431034,,0.0011041996630676044,338.519,0.7839999794960022,0.016372311577742958
338.89655200000004,,0.000822880011095548,338.988,0.7630000114440918,-0.028756968931167262
339.36206899999996,,0.0001487931567943736,339.451,0.7860000133514404,0.022059401830146392
339.827586,,0.0018881131982097408,339.914,0.7680000066757202,-0.016385659976135024
340.293103,,0.0046993540068006445,340.38,0.7789999842643738,0.008389176216309099
340.758621,,0.006040714289435451,340.851,0.7820000052452087,0.015748850096524325
341.224138,,0.004548346741075299,341.309,0.7760000228881836,0.0034890644584593114
341.68965499999996,,0.0014976739541677367,341.781,0.7519999742507935,-0.04802418937563073
342.155172,,0.0005810000208444049,342.239,0.7620000243186951,-0.025525855154053156
342.62069,,0.0006211576092624642,342.704,0.7820000052452087,0.018674152846188775
343.086207,,0.0002007338001471543,343.17,0.777999997138977,0.01048318279928474
343.551724,,0.0001677182410374951,343.637,0.7850000262260437,0.02613797464380055
344.01724099999996,,0.0011863475542523592,344.103,0.7680000066757202,-0.010627201213767767
344.48275900000004,,0.0030188238095784034,344.566,0.7820000052452087,0.02000468924555761
344.948276,,0.004176924735844729,345.029,0.7570000290870667,-0.03447622651438495
345.413793,,0.003987786854915692,345.496,0.7620000243186951,-0.02374348097896577
345.87931,,0.0026750738805524196,345.965,0.7879999876022339,0.03260021879584594
346.344828,,0.0013458573839110945,346.429,0.6679999828338623,-0.22927123826435541
346.81034500000004,,0.0011032544178588095,346.892,0.7839999794960022,0.022897800823457357
347.275862,,0.001830461706296748,347.357,0.7609999775886536,-0.02786705036818287
347.741379,,0.0021560686088603447,347.822,0.7630000114440918,-0.024245248929409765
348.206897,,0.0008888713261168758,348.288,0.7820000052452087,0.016356997947325164
348.672414,,0.001664352379944114,348.755,0.7720000147819519,-0.00625256855879266
349.13793100000004,,0.00389572612064813,349.214,0.7870000004768372,0.025599166440499244
349.60344799999996,,0.004308299325595093,349.685,0.781000018119812,0.011720729327800206
350.068966,,0.0028612958917535007,350.151,0.7689999938011169,-0.01518316564353004
350.534483,,0.0010767328855172372,350.615,0.7599999904632568,-0.035481447393507025
351.0,,0.0005174022841535237,351.077,0.7609999775886536,-0.03390254780736109
351.465517,,0.0009295524897880851,351.544,0.7689999938011169,-0.016963512025527545
351.93103399999995,,0.00047882800460663055,352.007,0.7990000247955322,0.04803162292459531
352.396552,,0.0016175021014874726,352.474,0.7850000262260437,0.01730434086263168
352.862069,,0.003430873878932533,352.936,0.781000018119812,0.008508755061486248
353.32758600000005,,0.0024242176788963326,353.402,0.765999972820282,-0.02410506275962565
353.793103,,0.0010663406905209343,353.864,0.7820000052452087,0.010963901472383153
354.258621,,0.0036945864818179372,354.33,0.7649999856948853,-0.02572488766649605
354.72413800000004,,0.0027115638518479647,354.795,0.765999972820282,-0.023071529924155093
355.189655,,0.001106092495740282,355.261,0.7979999780654907,0.0472317823999697
355.655172,,0.0044296229771726165,355.725,0.7850000262260437,0.019590255953639755
356.12069,,0.004739170864593069,356.191,0.7580000162124634,-0.038480048357824065
356.586207,,0.002525731300503329,356.655,0.7599999904632568,-0.03332206642495326
357.05172400000004,,0.0005426019804791117,357.121,0.828000009059906,0.11565000031940052
357.517241,,0.0009957798771677176,357.585,0.7639999985694885,-0.022961089958264066
357.982759,,0.0033252258033873196,358.055,0.7820000052452087,0.01704901469419006
358.448276,,0.004866109579313759,358.515,0.7870000004768372,0.028683115043954446
358.913793,,0.00363395983261934,358.986,0.7879999876022339,0.03152625730172293
359.37931000000003,,2.766401852421867e-05,359.448,0.777999997138977,0.010306949484993961
359.844828,,0.0043525029929172045,359.911,0.7720000147819519,-0.002313474749503441
360.310345,,0.0076060337408906855,360.376,0.7820000052452087,0.019794210381642016
360.775862,,0.008505956548024043,360.84,0.781000018119812,0.0177966682081036
361.241379,,0.006547671272404594,361.306,0.75,-0.0497067269609558
361.706897,,0.0026957313560763145,361.77,0.7839999794960022,0.024254099890402104
362.172414,,0.0009905294577276544,362.236,0.7599999904632568,-0.02829082538737418
362.63793100000004,,0.003115995883282688,362.7,0.7620000243186951,-0.02432708008346431
363.103448,,0.003998366615964329,363.166,0.7770000100135803,0.007835097521002832
363.568966,,0.004579052529120876,363.633,0.8489999771118164,0.16407466016288103
364.034483,,0.004789568658230145,364.098,0.7829999923706055,0.01957656544596262
364.5,,0.003816784178852485,364.559,0.7820000052452087,0.016627610869971457
364.96551700000003,,0.0018842364011274,365.029,0.765999972820282,-0.019041611603052688
365.431034,,0.0006731161374869067,365.492,0.6439999938011169,-0.28566538812858594
365.896552,,0.0013630392351879727,365.956,0.7839999794960022,0.01852289647658251
366.362069,,0.0029660867297553223,366.426,0.765999972820282,-0.021480635959879778
366.827586,,0.00342385787657169,366.888,0.7879999876022339,0.025724026412797994
367.29310300000003,,0.0020390583970462755,367.354,0.7609999775886536,-0.03373988954748591
367.758621,,9.97309093346488e-05,367.818,0.8569999933242798,0.17487702687006873
368.224138,,0.0008093740599723924,368.284,0.8109999895095825,0.07425187234465637
368.689655,,0.0005440762051532985,368.748,0.7639999985694885,-0.02841360863983593
369.155172,,0.00036610242455930355,369.213,0.7839999794960022,0.015034886101346711
369.62068999999997,,0.0014665599704261206,369.677,0.7950000166893005,0.03902417125686295
370.086207,,0.0036544180395164986,370.143,0.7820000052452087,0.010874010014184959
370.55172400000004,,0.00550586887818048,370.611,0.8109999895095825,0.07437008458130569
371.017241,,0.005812531460115593,371.074,0.8019999861717224,0.05521108424437527
371.482759,,0.004777746493605451,371.537,0.7639999985694885,-0.027009997026457098
371.948276,,0.003652454612960164,371.999,0.8429999947547913,0.14577130962963294
372.413793,,0.003334680782698395,372.467,0.7739999890327454,-0.0038074003663821744
372.87931000000003,,0.0036484797822966823,372.929,0.7789999842643738,0.007889086071391356
373.344828,,0.003941434720063155,373.395,0.7599999904632568,-0.03267395995926809
373.810345,,0.0038418701159246577,373.865,0.7789999842643738,0.009552884445773072
374.275862,,0.003160377123949715,374.331,0.7639999985694885,-0.022319484123779477
374.741379,,0.0016432739032872287,374.791,0.7490000128746033,-0.05424317483507841
375.20689699999997,,0.00045266690848712364,375.257,0.7820000052452087,0.018332744185585153
375.672414,,0.0018818193813697711,375.722,0.7760000228881836,0.005845236380649018
376.137931,,0.001501277147597739,376.188,0.7599999904632568,-0.028543344321920794
376.603448,,0.00014622920256174494,376.652,0.7620000243186951,-0.02384597544970401
377.068966,,0.0013128997584669199,377.118,0.7839999794960022,0.02428394080651762
377.53448299999997,,0.0012088362390696135,377.581,0.7590000033378601,-0.030128469128788107
378.0,,0.000608459721697483,378.051,0.7850000262260437,0.026422789289651742
378.465517,,8.25058259515066e-05,378.511,0.7940000295639038,0.0457934421841139
378.931034,,0.0010354965101951126,378.981,0.7639999985694885,-0.01993878775182158
379.396552,,0.003141663236743424,379.444,0.7910000085830688,0.03838818386457467
379.862069,,0.004938796010045464,379.906,0.7549999952316284,-0.04064797105589155
380.327586,,0.004794304069503944,380.372,0.7820000052452087,0.01748166881321105
380.79310300000003,,0.0030857810087732526,380.837,0.7870000004768372,0.02761442491584359
381.258621,,0.0019469513370880178,381.302,0.7820000052452087,0.015918976129742517
381.724138,,0.0025595673306091312,381.77,0.777999997138977,0.006385756156076409
382.189655,,0.0036586470148102968,382.235,0.7749999761581421,-0.0009595534320910545
382.655172,,0.003149616383620715,382.7,0.7599999904632568,-0.034414107324245186
383.12068999999997,,0.0006186403633900164,383.165,0.7730000019073486,-0.0068078612427354395
383.586207,,0.002247656783652574,383.629,0.781000018119812,0.009986793510143954
384.051724,,0.003486478096663907,384.095,0.7990000247955322,0.04867049773222692
384.517241,,0.0026652471673314433,384.555,0.7870000004768372,0.022114596884418577
384.982759,,0.0008315464931443479,385.025,0.7649999856948853,-0.026095448907589105
385.44827599999996,,0.0008495267078507352,385.485,0.7820000052452087,0.010802181120842313
385.913793,,0.0018405317616548734,385.955,0.7839999794960022,0.015164744427318435
386.37931,,0.0019359867095970684,386.421,0.7630000114440918,-0.030437096151600326
386.84482799999995,,0.0012909374175663426,386.884,0.7829999923706055,0.013424654342910786
387.310345,,0.0008641957059093692,387.35,0.7710000276565552,-0.012300378428092479
387.775862,,0.0016478502399608086,387.815,0.7689999938011169,-0.016122748052370066
388.241379,,0.0029602057337166795,388.281,0.7850000262260437,0.019369930290017885
388.70689699999997,,0.0025568466573957036,388.74,0.7580000162124634,-0.038740349997583114
389.172414,,0.0007086971601033693,389.206,0.7990000247955322,0.0513539649186466
389.637931,,0.004892872095570869,389.67,0.7710000276565552,-0.008846081438192132
390.103448,,0.006585446191259457,390.136,0.777999997138977,0.007213344901308642
390.56896600000005,,0.00464154433127296,390.603,0.7789999842643738,0.010181817269174186
391.03448299999997,,0.001606473364541696,391.066,0.7620000243186951,-0.02610957541721289
391.5,,0.0008359855237007597,391.533,0.597000002861023,-0.3849127917426984
391.965517,,0.0025489780489940704,391.995,0.7599999904632568,-0.029215284345653916
392.431034,,0.0037440802377720164,392.463,0.7630000114440918,-0.022212703016005506
392.896552,,0.002251549388095427,392.926,0.7850000262260437,0.026062357401462836
393.36206899999996,,0.00037072844810025034,393.392,0.7710000276565552,-0.004225626769611222
393.827586,,0.0011044856928357292,393.854,0.7910000085830688,0.03942276519558981
394.293103,,0.00019013511473102733,394.32,0.753000020980835,-0.04343026644711598
394.75862099999995,,0.0005321834262525059,394.785,0.7680000066757202,-0.010953132099253927
395.224138,,0.001964106389373504,395.251,0.7820000052452087,0.019214056886127682
395.68965499999996,,0.00547710356569957,395.718,0.7950000166893005,0.04708319778913915
396.155172,,0.006991021312734307,396.184,0.7829999923706055,0.020381666738198162
396.62069,,0.006002757782444267,396.648,0.7820000052452087,0.01755850462370221
397.086207,,0.0044317136515792145,397.114,0.7630000114440918,-0.02454745170995616
397.551724,,0.0037382612721336165,397.577,0.6589999794960022,-0.2518860227669493
398.017241,,0.0035453405879411677,398.039,0.7670000195503235,-0.017376454404637455
398.48275900000004,,0.002842199434293295,398.507,0.7609999775886536,-0.03123196797285889
398.94827599999996,,0.0013780455059870483,398.97,0.7889999747276306,0.029014866202483912
399.413793,,0.00033633143013248143,399.441,0.7839999794960022,0.01741914071238459
399.87931,,0.0016485077304694506,399.903,0.7369999885559082,-0.08560546163011619
400.344828,,0.0019898125199649987,400.369,0.781000018119812,0.009720084940791835
400.810345,,0.0009939243397704954,400.833,0.7820000052452087,0.011474136936944861
401.27586199999996,,0.0009711586183478364,401.299,0.7820000052452087,0.011174121107889477
401.741379,,0.002563694443086564,401.759,0.7080000042915344,-0.15021355622911678
402.206897,,0.0024993006791385283,402.225,0.7860000133514404,0.019689556348953023
402.672414,,0.0009670383963859337,402.692,0.777999997138977,0.002366991878603606
403.137931,,0.0006093683291867812,403.157,0.7590000033378601,-0.038785259170151076
403.60344799999996,,0.0013412074264779268,403.622,0.7630000114440918,-0.029701843273391836
404.068966,,0.0016535607633975042,404.088,0.7820000052452087,0.012176285755559273
404.534483,,0.002166373233618948,404.551,0.7699999809265137,-0.013383668671512548
405.0,,0.002735249690112744,405.014,0.7870000004768372,0.024318974771822294
405.465517,,0.002970194168734209,405.482,0.7789999842643738,0.007616043349663964
405.931034,,0.0029901099138509154,405.951,0.6819999814033508,-0.20295081010457366
406.39655200000004,,0.0033265492218583596,406.409,0.7649999856948853,-0.021351354116399653
406.862069,,0.004440162108372845,406.879,0.753000020980835,-0.04673736228206716
407.327586,,0.006246379823316598,407.345,0.7480000257492065,-0.05690955210369466
407.793103,,0.007766553725578662,407.811,0.777999997138977,0.009111806396502579
408.258621,,0.0076671513580541285,408.269,0.7789999842643738,0.011873639813056228
408.72413800000004,,0.005691969527836632,408.74,0.7480000257492065,-0.05517807083155897
409.18965499999996,,0.003140946911253077,409.206,0.7689999938011169,-0.009052924171040646
409.655172,,0.0014641336087268294,409.67,0.843999981880188,0.15459665283931245
410.12069,,0.0009200899445632221,410.136,0.7739999890327454,0.0022136458477084657
410.586207,,0.000954177744478185,410.596,0.8019999861717224,0.06320532524030989
411.05172400000004,,0.001046351916351738,411.059,0.7429999709129333,-0.06547941298360474
411.51724099999996,,0.0006669083405255209,411.529,0.7839999794960022,0.023570557935710477
411.982759,,0.0007284594759180481,411.992,0.7630000114440918,-0.022577252776066495
412.448276,,0.0028978290930146283,412.455,0.7789999842643738,0.011776000142926145
412.913793,,0.004494442909891507,412.925,0.7820000052452087,0.017714232777207888
413.37931,,0.004183993417482667,413.384,0.7870000004768372,0.027936306895443543
413.844828,,0.0019505352616670355,413.85,0.6949999928474426,-0.17322441631768343
414.31034500000004,,0.0009208490929126167,414.316,0.7490000128746033,-0.05633566903281173
414.775862,,0.0029232687356977485,414.781,0.7940000295639038,0.04093689098303461
415.241379,,0.0032968051544228377,415.246,0.7599999904632568,-0.03388602662378959
415.706897,,0.0023021238332673177,415.711,0.7789999842643738,0.006801041998728607
416.172414,,0.0007861207249598161,416.176,0.7839999794960022,0.017051028072587578
416.63793100000004,,0.0006534701420366096,416.641,0.7839999794960022,0.01649262450250138
417.103448,,0.0021053919120185803,417.107,0.7620000243186951,-0.031893835357956486
417.568966,,0.0038654159347652245,417.57,0.7870000004768372,0.022232208304140376
418.034483,,0.005793898181990019,418.04,0.8949999809265137,0.2573155202646794
418.5,,0.00751514478974324,418.503,0.765999972820282,-0.02380301149055633
418.96551700000003,,0.00902028488762696,418.966,0.781000018119812,0.008941599401147518
419.43103399999995,,0.010471324177384531,419.433,0.7860000133514404,0.020033053487959515
419.896552,,0.011305160870416872,419.896,0.7850000262260437,0.018180002411296334
420.362069,,0.01016559314207018,420.362,0.765999972820282,-0.022772380033131326
420.827586,,0.006417498698753802,420.826,0.7889999747276306,0.02788061794665494
421.293103,,0.0016059538230219254,421.292,0.781000018119812,0.011080535790968318
421.758621,,0.0014661273198470115,421.759,0.777999997138977,0.005238551190943456
422.22413800000004,,0.0015379071382604582,422.225,0.777999997138977,0.005975235650348897
422.689655,,0.00017053171127579154,422.689,0.7680000066757202,-0.015055473986844474
423.15517200000005,,0.0002259209095256706,423.155,0.7749999761581421,0.0009456985665501827
423.62069,,0.0009460694364834422,423.622,0.7699999809265137,-0.00922560933154397
424.086207,,0.002360262601003358,424.081,0.7820000052452087,0.017588852750171174
424.55172400000004,,0.0027819726713751766,424.544,0.7689999938011169,-0.010135230469172439
425.017241,,0.002354836139070788,425.014,0.7739999890327454,0.0012652687132752231
425.482759,,0.0018946900881535225,425.478,0.7789999842643738,0.012558891794634514
425.948276,,0.0015760721807966923,425.94,0.7910000085830688,0.038984363295194294
426.413793,,0.000892228420742228,426.406,0.7760000228881836,0.006459158093569888
426.87931000000003,,0.00013017805659980904,426.869,0.7820000052452087,0.019553549183730565
427.344828,,0.0004937081332864392,427.334,0.765999972820282,-0.015415156869619903
427.810345,,0.00036876252923049587,427.8,0.7860000133514404,0.027918503760236604
428.275862,,0.0014424566853614626,428.265,0.777999997138977,0.010128794450872333
428.741379,,0.0014079236809999645,428.73,0.7879999876022339,0.03144557699971548
429.20689699999997,,0.0006729080175425186,429.196,0.746999979019165,-0.05844349050019932
429.672414,,0.0009735449706381982,429.662,0.75,-0.05254998021129858
430.137931,,0.002970549475659945,430.128,0.7689999938011169,-0.01185604485765087
430.603448,,0.0052282910405471806,430.589,0.7639999985694885,-0.023484609302877556
431.068966,,0.005844727636524739,431.058,0.7850000262260437,0.021520757564767217
431.534483,,0.00444727671586944,431.519,0.7789999842643738,0.007715723788775353
432.0,,0.002269679690761153,431.988,0.7630000114440918,-0.027839269816268584
432.46551700000003,,0.0007384091019982509,432.452,0.7870000004768372,0.02380977975745361
432.931034,,0.00038778556652535763,432.914,0.7599999904632568,-0.035573869600613456
433.396552,,0.0008323865467924568,433.38,0.7900000214576721,0.02932163025997027
433.862069,,0.0012760038308282072,433.851,0.7829999923706055,0.013718087005320614
434.327586,,0.0011050410233984158,434.309,0.7829999923706055,0.013487572842686214
434.79310300000003,,0.0003562036342049447,434.781,0.6990000009536743,-0.16962164051986647
435.258621,,0.00036266767890228693,435.24,0.7599999904632568,-0.03669787292951743
435.724138,,0.0005137602812570992,435.707,0.7630000114440918,-0.030006987644846703
436.189655,,3.239196754525306e-05,436.172,0.7829999923706055,0.013846215720892525
436.655172,,0.0009693733284137391,436.638,0.7820000052452087,0.012065090302415746
437.12068999999997,,0.002527843640475728,437.103,0.765999972820282,-0.022291237479967665
437.586207,,0.00448601338077201,437.566,0.7870000004768372,0.024051036924282575
438.051724,,0.005968975694211908,438.029,0.765999972820282,-0.021040299804285525
438.517241,,0.00568852575051072,438.5,0.7590000033378601,-0.03558214487889202
438.982759,,0.0031230830019615195,438.963,0.7839999794960022,0.019618259318800905
439.448276,,0.0005347788064989286,439.426,0.765999972820282,-0.018860448333909728
439.913793,,0.0028305169659948158,439.895,0.7990000247955322,0.0537518863271062
440.37931000000003,,0.002081227144319052,440.361,0.7630000114440918,-0.02400543607680848
440.844828,,0.000552391974439521,440.825,0.7820000052452087,0.0179984671335248
441.310345,,0.0016379146628384186,441.284,0.7649999856948853,-0.01851317881895954
441.775862,,0.0008371882892745164,441.756,0.7839999794960022,0.02330580333903689
442.241379,,0.004646230119952423,442.221,0.7820000052452087,0.01925929559501443
442.70689699999997,,0.005478629336619246,442.685,0.7789999842643738,0.012910430039176293
443.172414,,0.001956125574133978,443.15,0.8109999895095825,0.08268518309654821
443.637931,,0.0027844472066219624,443.611,0.7630000114440918,-0.021962821451712678
444.103448,,0.00482719332545305,444.074,0.7630000114440918,-0.0221655776370089
444.568966,,0.00354639547469804,444.544,0.7620000243186951,-0.024671430509430818
445.03448299999997,,0.001276573865961787,445.007,0.7870000004768372,0.029353759920239315
445.5,,5.888538235088387e-05,445.47,0.7789999842643738,0.011384474714728372
445.965517,,3.479215975218704e-05,445.94,0.7590000033378601,-0.03281072236229683
446.431034,,0.00012018322126251849,446.399,0.7689999938011169,-0.01170971314810168
446.896552,,3.4675007807576135e-07,446.869,0.7620000243186951,-0.02768725055235601
447.36206899999996,,0.00035593308432850935,447.335,0.7739999890327454,-0.002288937212769634
447.827586,,0.0005041364293694544,447.8,0.7839999794960022,0.01875802424297106
448.29310300000003,,2.6147369756353186e-05,448.259,0.7860000133514404,0.022405976937494937
448.758621,,0.0008223724165965145,448.726,0.7839999794960022,0.017392115323489932
449.224138,,0.0004457645690951332,449.191,0.7570000290870667,-0.04201447345770516
449.689655,,0.0019198407249052746,449.657,0.7889999747276306,0.027210507206296614
450.155172,,0.005070066129442063,450.123,0.9369999766349792,0.34926959653305995
450.62068999999997,,0.0069716168456035,450.588,0.7480000257492065,-0.06275059912177744
451.086207,,0.007095690359131237,451.05,0.7680000066757202,-0.019303763231140497
451.551724,,0.006797993392742002,451.518,0.777999997138977,0.0024873483463459037
452.017241,,0.0075503001857889504,451.98,0.7919999957084656,0.033124569252770804
452.482759,,0.009337336129550402,452.444,0.7870000004768372,0.022495160327211973
452.94827599999996,,0.010700052512612893,452.914,0.7639999985694885,-0.02723108263217565
453.413793,,0.010058329796304553,453.38,0.7509999871253967,-0.05506541199479048
453.87931,,0.007093941347298959,453.843,0.8420000076293945,0.14377054487542604
454.344828,,0.0030140302868749192,454.309,0.7839999794960022,0.018062043072529274
454.810345,,0.0005233217586662855,454.774,0.7580000162124634,-0.03787688744030267
455.27586199999996,,0.0026395956913683877,455.24,0.7739999890327454,-0.0022842448301966575
455.741379,,0.003427897540130397,455.699,0.7879999876022339,0.028956656191847927
456.206897,,0.003459523372826473,456.165,0.7620000243186951,-0.026965952015216503
456.672414,,0.0035001493182318733,456.63,0.777999997138977,0.008573655392010089
457.137931,,0.00414293384660558,457.096,0.7839999794960022,0.022264549160920043
457.603448,,0.0049993090403951945,457.559,0.7760000228881836,0.005373059183538495
458.06896600000005,,0.004693728339586216,458.029,0.7620000243186951,-0.02468926231940168
458.53448299999997,,0.0024784386825255226,458.492,0.777999997138977,0.010494794053503351
459.0,,0.0004759032725164999,458.955,0.7649999856948853,-0.017625098381969115
459.465517,,0.002148907197554498,459.426,0.753000020980835,-0.04369609474927096
459.931034,,0.0017855651801501823,459.888,0.7839999794960022,0.02378254443100434
460.39655200000004,,0.0003642265263923306,460.354,0.7990000247955322,0.05627414680035816
460.86206899999996,,0.000869442920981086,460.818,0.7739999890327454,0.001497567745954906
461.327586,,0.001826962182506868,461.284,0.7649999856948853,-0.0185334498015171
461.793103,,0.0033482851952800962,461.749,0.781000018119812,0.015801958470036084
462.258621,,0.0056607040365805345,462.215,0.7760000228881836,0.0043028010766501005
462.724138,,0.00743397964193478,462.674,0.7900000214576721,0.03413475097497663
463.18965499999996,,0.006809819811468305,463.14,0.7829999923706055,0.018173346646343187
463.655172,,0.003457183527790528,463.608,0.7820000052452087,0.015264787461828529
464.12069,,0.0006778762764275553,464.07,0.765999972820282,-0.02032011129870381
464.58620699999994,,0.002986343259427686,464.54,0.7570000290870667,-0.04062858486806359
465.051724,,0.002663056635326879,465.003,0.7979999780654907,0.048043150189603936
465.517241,,0.00133805687237302,465.466,0.7649999856948853,-0.024435659176957645
465.98275900000004,,0.0010146610074292953,465.936,0.7889999747276306,0.027356280404384318
466.448276,,0.0017141998445731495,466.394,0.7820000052452087,0.011713751244092359
466.913793,,0.0017647062923753923,466.864,0.7870000004768372,0.02233112154478658
467.37931,,0.0002590127502563838,467.33,0.765999972820282,-0.023571951046681718
467.844828,,0.0016358986790449195,467.796,0.7749999761581421,-0.003986827440529612
468.31034500000004,,0.00212030702026662,468.254,0.7820000052452087,0.011370402571628052
468.77586199999996,,0.0009311059099888478,468.719,0.7870000004768372,0.022496668701773085
469.241379,,0.0003408645508881849,469.185,0.7649999856948853,-0.02508176878017518
469.706897,,0.0001291335356544994,469.651,0.7870000004768372,0.023307727008274527
470.172414,,0.0026262808183256737,470.117,0.7639999985694885,-0.026249357662891402
470.63793100000004,,0.00553868308954236,470.586,0.8920000195503235,0.253246721725462
471.10344799999996,,0.006807632725919564,471.047,0.7870000004768372,0.025176893856307756
471.568966,,0.006024868405553041,471.511,0.7599999904632568,-0.03292285977766897
472.034483,,0.004828702301327956,471.98,0.7839999794960022,0.020098219741800354
472.5,,0.004674156493894572,472.441,0.7839999794960022,0.020818411495701492
472.965517,,0.004700978696009195,472.911,0.7680000066757202,-0.013355900615845389
473.43103399999995,,0.0029830932657958116,473.369,0.6909999847412109,-0.1804879506039248
473.89655200000004,,0.00028376012885857293,473.834,0.8019999861717224,0.06188515300086486
474.362069,,0.002383952228207154,474.3,0.7599999904632568,-0.029171241450305717
474.827586,,0.0013968057761735366,474.766,0.7850000262260437,0.025632704444869994
475.293103,,0.0012759348319148717,475.232,0.7590000033378601,-0.030794685211564546
475.758621,,0.0025966606039928486,475.7,0.7620000243186951,-0.024168389065910043
476.22413800000004,,0.00146903255830706,476.165,0.49000000953674316,-0.616806012174677
476.689655,,0.0003734968754906436,476.63,0.7870000004768372,0.030069807248863652
477.155172,,0.0009067757164010039,477.096,0.7870000004768372,0.029761393916706666
477.62069,,0.0002097488733180905,477.559,0.7739999890327454,0.0010210277855017035
478.086207,,5.73306688518753e-05,478.021,0.7829999923706055,0.020115223941677432
478.55172400000004,,0.0012125139483451783,478.489,0.7850000262260437,0.023880326396289193
479.01724099999996,,0.0036133576264367603,478.951,0.7639999985694885,-0.022523007202209327
479.482759,,0.005978643894375035,479.417,0.7820000052452087,0.016002434711526643
479.948276,,0.0074150547575914955,479.882,0.7839999794960022,0.019653381539376968
480.413793,,0.007664749608779009,480.347,0.8259999752044678,0.11045813755243923
480.87931000000003,,0.006963465307239112,480.814,0.777999997138977,0.005215230932565941
481.344828,,0.005780980231608572,481.28,0.7620000243186951,-0.030260446092919436
481.810345,,0.004617796296197751,481.745,1.0080000162124634,0.5051427174019194
482.275862,,0.003921337042966401,482.211,0.7839999794960022,0.016674924773193836
482.74137900000005,,0.004046980748932858,482.67,0.7699999809265137,-0.014172839990716283
483.206897,,0.005029463847350497,483.135,0.800000011920929,0.05094937733027209
483.672414,,0.006168364538536523,483.603,0.7860000133514404,0.020327271814245693
484.13793100000004,,0.006095243769926336,484.066,0.765999972820282,-0.0232482155612349
484.603448,,0.00385976069533294,484.529,0.7829999923706055,0.013903242929455049
485.068966,,8.76592989735157e-05,484.999,0.7649999856948853,-0.02508612349505517
485.534483,,0.0033578444366811197,485.46,0.7599999904632568,-0.03564973174143063
486.0,,0.004995104134594135,485.929,0.781000018119812,0.010523404191036676
486.46551700000003,,0.004762775309054956,486.395,0.7649999856948853,-0.023835495208356476
486.931034,,0.0036017844227615894,486.858,0.7730000019073486,-0.005845030168562463
487.396552,,0.002601033609385689,487.324,0.7639999985694885,-0.024848278677253283
487.862069,,0.0027539286108697984,487.788,0.7620000243186951,-0.028577083211615756
488.327586,,0.004850039512872028,488.254,0.7870000004768372,0.02652175200584868
488.79310300000003,,0.008625651192806465,488.719,0.781000018119812,0.014067788065199533
489.258621,,0.012025320149642523,489.185,0.7609999775886536,-0.028921404838716407
489.724138,,0.01239150599195482,489.645,0.7789999842643738,0.010825766250164662
490.189655,,0.009023008370051966,490.111,0.765999972820282,-0.017033634580524863
490.655172,,0.003996465069712893,490.574,0.781000018119812,0.016027242734791884
491.12069,,1.5504617237817477e-05,491.044,0.6859999895095825,-0.1906579809992166
491.586207,,0.0020294235396995726,491.507,0.7649999856948853,-0.018362431838253715
492.05172400000004,,0.0030711991368705715,491.97,0.7979999780654907,0.053608287846900415
492.517241,,0.004178095524242466,492.44,0.7820000052452087,0.018719653661656947
492.982759,,0.005467329621009397,492.903,0.7770000100135803,0.007692633473326131
493.448276,,0.0062928946360398565,493.369,0.8399999737739563,0.14471627163097134
493.913793,,0.005921170451504863,493.833,0.765999972820282,-0.01682316585417212
494.37931000000003,,0.004167944620929036,494.298,0.7860000133514404,0.02635199634192702
494.844828,,0.0018146350625953033,494.763,0.7850000262260437,0.023709481359269237
495.310345,,0.000345213060448618,495.229,0.7609999775886536,-0.029093111753264435
495.775862,,0.0008886847142245809,495.689,0.777999997138977,0.007393950414691749
496.241379,,0.003240677873313233,496.155,0.7620000243186951,-0.02803220068354275
496.70689699999997,,0.005881326635496872,496.626,0.7639999985694885,-0.024243030460509955
497.172414,,0.0069148739059286205,497.084,0.7739999890327454,-0.0030072833911441205
497.637931,,0.005292235555131061,497.552,0.7689999938011169,-0.014416652319162867
498.103448,,0.0016930431362164502,498.014,0.7820000052452087,0.013440193349643947
498.568966,,0.0016858729172609748,498.485,0.7860000133514404,0.021754110992292682
499.03448299999997,,0.002794552528604105,498.947,0.7580000162124634,-0.03957220677463338
499.5,,0.0016737763107755902,499.413,0.7860000133514404,0.021191165440897743
499.96551700000003,,0.0005395871858082948,499.877,0.7599999904632568,-0.0356006942893424
500.431034,,0.0014197425919129664,500.342,0.7870000004768372,0.023171413573009916
500.89655200000004,,0.0037054048661468654,500.807,0.7789999842643738,0.005787148484564551
501.362069,,0.004710140649237939,501.273,0.7580000162124634,-0.039825701907331874
501.827586,,0.0029882668160333232,501.737,0.765999972820282,-0.02217029165712043
502.293103,,0.00028791981864153583,502.202,0.7620000243186951,-0.030579058268970737
502.758621,,0.0007123075877387805,502.667,0.8029999732971191,0.059120954624395324
503.224138,,2.5685042616264557e-05,503.133,0.7910000085830688,0.03341131879898607
503.68965499999996,,0.0002511698106947188,503.596,0.7620000243186951,-0.029291218260043616
504.15517200000005,,0.002704037551131848,504.066,0.7770000100135803,0.0038944762695913068
504.62068999999997,,0.005143518533272864,504.529,0.7799999713897705,0.010948016492741838
505.08620699999994,,0.004366638594239717,504.992,0.7710000276565552,-0.008146415402519029
505.55172400000004,,0.000331079771216086,505.455,0.7829999923706055,0.0184901551949665
506.017241,,0.0034493608695282995,505.925,0.5879999995231628,-0.4058925356223754
506.48275899999993,,0.0036253267880609155,506.39,0.7889999747276306,0.032413853187400476
506.948276,,0.0004899359003383499,506.854,0.7850000262260437,0.02403356392044262
507.413793,,0.0023854250085070484,507.32,0.7870000004768372,0.02865550517948126
507.87931,,0.0017562580314275877,507.785,0.7599999904632568,-0.029980485850635227
508.344828,,0.002045477238714784,508.244,0.7739999890327454,0.0006256365544504592
508.810345,,0.005436947478785195,508.711,0.7570000290870667,-0.03639116071131713
509.27586199999996,,0.005267245609958474,509.177,0.7839999794960022,0.022368259820382513
509.74137900000005,,0.0019640392936573605,509.641,0.7850000262260437,0.02440276231619363
510.20689699999997,,0.0012938342569098868,510.107,0.7630000114440918,-0.023746303679726175
510.67241399999995,,0.002135247214455966,510.57,0.7789999842643738,0.010826085448714577
511.13793100000004,,0.0010967946321418234,511.04,0.7699999809265137,-0.009125099598824498
511.603448,,0.00038744493451729436,511.503,0.7599999904632568,-0.031301122591400686
512.0689659999999,,0.0012090657782743966,511.966,0.7870000004768372,0.02709928996980027
512.534483,,0.002444635759619799,512.429,0.7630000114440918,-0.025631097434941158
513.0,,0.0018896497642576682,512.899,0.7789999842643738,0.008778543648561453
513.465517,,0.0011522632872313244,513.365,0.7739999890327454,-0.0025552841827603603
513.931034,,0.0046369943336319235,513.829,0.7620000243186951,-0.02911817130556741
514.396552,,0.005589840251883581,514.295,0.781000018119812,0.011890780763192535
514.862069,,0.003242920437272732,514.755,0.7639999985694885,-0.025486356486292376
515.327586,,0.00013447535634825882,515.221,0.7850000262260437,0.019980473182323464
515.793103,,0.001802624357372908,515.687,0.7630000114440918,-0.028171547235980775
516.258621,,0.0013973023583096363,516.152,0.7919999957084656,0.03485664480001398
516.724138,,0.000670429030922279,516.615,0.7020000219345093,-0.16130263662032113
517.189655,,0.0008586737635288074,517.084,0.7739999890327454,-0.004449300530497264
517.655172,,0.0012433977577661667,517.545,0.765999972820282,-0.021816256961798505
518.1206900000001,,0.00041263293339867076,518.014,0.7879999876022339,0.02624641908310921
518.5862070000001,,0.001778850275232894,518.478,0.7870000004768372,0.024265798080588524
519.051724,,0.003857000021463085,518.941,0.7620000243186951,-0.029943911213337955
519.517241,,0.004067594114221691,519.407,0.8009999990463257,0.05532926995821783
519.982759,,0.002028374422164057,519.869,0.7919999957084656,0.03606739183612681
520.448276,,0.00073434975635334,520.335,0.7649999856948853,-0.022381575562040974
520.9137929999999,,0.0020312280428553503,520.8,0.765999972820282,-0.01981299416407393
521.37931,,0.0010341555746006758,521.265,0.7829999923706055,0.01761690632124428
521.844828,,0.001062709268102417,521.729,0.7910000085830688,0.03543036534457506
522.310345,,0.0024167132088939807,522.195,0.7820000052452087,0.016186793592227362
522.7758620000001,,0.0021654628770699093,522.659,0.781000018119812,0.014341268130835017
523.241379,,0.0006769943385031537,523.125,0.765999972820282,-0.01804704104698289
523.7068969999999,,0.001029622784865092,523.593,0.7630000114440918,-0.024342028013548914
524.172414,,0.001684172085365906,524.055,0.7839999794960022,0.021593044189651838
524.637931,,0.00042471898059579747,524.525,0.7879999876022339,0.030429800000000954
525.103448,,0.0020169140196594176,524.988,0.7689999938011169,-0.010906370278677281
525.568966,,0.003234706755229403,525.452,0.7860000133514404,0.026123781380192536
526.034483,,0.0012817013889605679,525.914,0.7590000033378601,-0.032770726528712844
526.5,,0.00311403058377784,526.38,0.902999997138977,0.2808250241223158
526.9655170000001,,0.007099796066655604,526.851,0.7870000004768372,0.02792092616760882
527.4310340000001,,0.00839954169526946,527.309,0.7860000133514404,0.025515166675912047
527.8965519999999,,0.007036194804429012,527.774,0.7850000262260437,0.023068490377872737
528.362069,,0.004662711406671808,528.239,0.7559999823570251,-0.040413210241991
528.827586,,0.0028436962196345924,528.704,0.7620000243186951,-0.027666024442468785
529.293103,,0.0019677646340731216,529.17,0.7990000247955322,0.052605877066756866
529.7586210000001,,0.0012795561342477696,529.637,0.7649999856948853,-0.021808241622251378
530.224138,,0.0002461602667157436,530.102,0.7879999876022339,0.027969280830422934
530.689655,,0.002801725835639022,530.57,0.7820000052452087,0.014584790395746198
531.155172,,0.0053244236084323115,531.033,0.7689999938011169,-0.014022165698529775
531.62069,,0.006362299155641388,531.496,0.7850000262260437,0.02058804022862821
532.086207,,0.005610376776219037,531.959,0.7609999775886536,-0.0319045933023291
532.5517239999999,,0.004389189714554144,532.429,0.7599999904632568,-0.03423974048589975
533.017241,,0.004091593654085856,532.892,0.7870000004768372,0.024479898205233892
533.482759,,0.004240926208445505,533.357,0.7870000004768372,0.0244320988344029
533.9482760000001,,0.0029814712483120656,533.822,0.753000020980835,-0.049633015654176944
534.413793,,0.00012607279017584736,534.288,0.7789999842643738,0.0070755905044378
534.87931,,0.002777129388715424,534.755,0.7680000066757202,-0.016773383351916176
535.344828,,0.002354485376915727,535.214,0.7839999794960022,0.018249471121882146
535.810345,,0.0007703286340016242,535.686,0.7820000052452087,0.014099797005855619
536.275862,,0.0033075920018355285,536.144,0.7820000052452087,0.014343646757628205
536.7413789999999,,0.0023969271789267737,536.614,0.765999972820282,-0.020243047095495327
537.206897,,0.0015830670131452829,537.077,0.7639999985694885,-0.024310037846056544
537.672414,,0.005466556533493856,537.54,0.7820000052452087,0.015205129954216912
538.137931,,0.006338497817797143,538.01,0.7870000004768372,0.026398395726897124
538.6034480000001,,0.004174382943153504,538.474,0.765999972820282,-0.019061850746551638
539.0689659999999,,0.0013734434575493485,538.937,0.7860000133514404,0.02478487739385217
539.5344829999999,,0.0001874407942624178,539.402,0.7590000033378601,-0.033791181461306004
540.0,,0.0007315181556890626,539.865,0.7839999794960022,0.020888866890667074
540.465517,,0.0008820963211173458,540.331,0.7559999823570251,-0.039939291993701755
540.931034,,0.0001916241017502981,540.796,0.7580000162124634,-0.03545310844637255
541.396552,,0.0034680288253258426,541.261,0.777999997138977,0.008200061393464266
541.862069,,0.007553060294196937,541.725,0.7870000004768372,0.02783878065579468
542.327586,,0.009211662810170244,542.191,0.7369999885559082,-0.08111258789172869
542.7931030000001,,0.006877799884633712,542.655,0.7839999794960022,0.02121583868182758
543.258621,,0.0026423192561056815,543.121,0.7630000114440918,-0.024649635308672823
543.7241379999999,,5.69026579196304e-05,543.589,0.7649999856948853,-0.020447704386842694
544.189655,,0.00040615135716551103,544.051,0.7739999890327454,-0.0010311793536990268
544.655172,,0.0017526108709758968,544.514,0.7599999904632568,-0.03175291259520613
545.12069,,0.0014688964079929293,544.984,0.7739999890327454,-0.0014944949116188957
545.5862070000001,,0.0008479578474294083,545.445,0.7850000262260437,0.022214470043258563
546.051724,,0.003101629308478125,545.914,0.7620000243186951,-0.028155820682058033
546.517241,,0.0031157481969686027,546.38,0.7860000133514404,0.023873336380586745
546.982759,,0.0011509490278659895,546.844,0.7609999775886536,-0.030840408227076246
547.448276,,0.00026091220402230466,547.309,0.7820000052452087,0.014682242332544863
547.9137929999999,,0.0007946244072603675,547.773,0.777999997138977,0.00576402487361744
548.3793099999999,,0.0032827586522504826,548.239,0.7720000147819519,-0.007479987786234682
548.844828,,0.004433381246205658,548.703,0.7570000290870667,-0.040296212965481575
549.310345,,0.003178857907065136,549.169,0.7680000066757202,-0.016428899613617123
549.775862,,0.001545733845380049,549.633,0.7710000276565552,-0.009949458007412848
550.241379,,0.0022886232823060414,550.099,0.7870000004768372,0.024895140182003964
550.706897,,0.005803461840543766,550.563,0.7990000247955322,0.051068561103345324
551.172414,,0.009892543856108228,551.025,0.7990000247955322,0.05114041563781536
551.637931,,0.011980047232361804,551.493,0.781000018119812,0.012035608968050192
552.103448,,0.010946375596830728,551.956,0.6169999837875366,-0.34512108057996704
552.568966,,0.0074637778518605695,552.426,0.7440000176429749,-0.06826898327975964
553.034483,,0.003437443128536935,552.888,0.7950000166893005,0.043024467892323254
553.5,,0.0007590781041637152,553.354,0.7749999761581421,-0.0003495295773229656
553.965517,,0.0001188693441062843,553.818,0.7820000052452087,0.01511087415193327
554.4310340000001,,0.0002374682663323236,554.284,0.7739999890327454,-0.0021046821994026173
554.896552,,0.0005743755264253968,554.744,0.781000018119812,0.013356845772748179
555.3620689999999,,0.0009669833740485947,555.21,0.765999972820282,-0.01912139045009126
555.827586,,0.0009192639910192966,555.675,0.7860000133514404,0.024637909357403547
556.293103,,0.0008823373059789423,556.14,0.777999997138977,0.007374430421926623
556.758621,,0.0019309321679878617,556.611,0.7789999842643738,0.009693717428291598
557.224138,,0.004129542006040093,557.073,0.7710000276565552,-0.0076239183454800685
557.689655,,0.005961714815204266,557.537,0.7820000052452087,0.01642046899139801
558.155172,,0.0059552282364483625,557.999,0.7699999809265137,-0.009678062769713842
558.6206900000001,,0.00450294720291561,558.467,0.7680000066757202,-0.014025027868471086
559.0862070000001,,0.003369768280314509,558.929,0.8410000205039978,0.14499302886065035
559.5517239999999,,0.0035165840721307754,559.395,0.7850000262260437,0.02293464379595383
560.017241,,0.004153816818981797,559.865,0.781000018119812,0.014136691248389007
560.482759,,0.004056362620274073,560.324,0.7689999938011169,-0.012118217683750198
560.948276,,0.003037001264766674,560.789,0.7609999775886536,-0.029683129824745073
561.413793,,0.0016550843466170112,561.254,0.7889999747276306,0.03116322931783565
561.87931,,0.00011117894542297648,561.722,0.7620000243186951,-0.02783069722919948
562.344828,,0.0017564532262332882,562.187,0.7839999794960022,0.019919636263758495
562.8103450000001,,0.003640523672990798,562.652,0.777999997138977,0.006664410206888309
563.275862,,0.004745588115518129,563.118,0.7620000243186951,-0.028375274415446298
563.7413789999999,,0.004601362513463007,563.581,0.7820000052452087,0.015023482591307726
564.206897,,0.0033387133031440876,564.044,0.7739999890327454,-0.002567267349581295
564.672414,,0.001281120123875354,564.514,0.765999972820282,-0.020140697133694905
565.137931,,0.0011911836601666967,564.977,0.7879999876022339,0.02766682837164941
565.603448,,0.0035351837725230255,565.441,0.9070000052452087,0.28683104742691146
566.068966,,0.0053503307450499926,565.91,0.7649999856948853,-0.022599930968585626
566.534483,,0.006694719417981168,566.369,0.7639999985694885,-0.024810814437815888
567.0,,0.00767225701945468,566.84,0.828000009059906,0.11461972076635112
567.465517,,0.007789249705692189,567.299,0.7870000004768372,0.025322203007566255
567.931034,,0.006184517178695477,567.766,0.7860000133514404,0.02319888212766457
568.396552,,0.002807211901883132,568.232,0.7839999794960022,0.018921668511589974
568.862069,,0.000727759463114341,568.696,0.7820000052452087,0.014666121217586932
569.327586,,0.002012656875325764,569.162,0.7620000243186951,-0.02878784603141841
569.793103,,0.00012386277225503412,569.626,0.7620000243186951,-0.028656557296607224
570.2586210000001,,0.0031224696514948677,570.092,0.7820000052452087,0.015055580889240078
570.724138,,0.004729135497558483,570.555,0.7710000276565552,-0.008766351289946142
571.189655,,0.0033660049924595574,571.025,0.7990000247955322,0.05237898668375237
571.655172,,0.0003533462950326862,571.485,0.7850000262260437,0.02201734752967758
572.12069,,0.0020115561803189653,571.955,0.7680000066757202,-0.014888384275060448
572.586207,,0.002566770058414423,572.414,0.7860000133514404,0.024446317009825483
573.051724,,0.0017235056850692736,572.884,0.7860000133514404,0.024550147270949944
573.517241,,0.0004612798853893176,573.35,0.781000018119812,0.013743209705356722
573.982759,,0.0005579051370381031,573.815,0.7739999890327454,-0.0014409332860219437
574.4482760000001,,0.0009836707028989707,574.274,0.7649999856948853,-0.021003978297620584
574.913793,,0.0004687126023757097,574.74,0.7760000228881836,0.002983553831793497
575.37931,,0.0010891527371259273,575.206,0.7680000066757202,-0.014445605626560672
575.844828,,0.0028968180543039557,575.674,0.7609999775886536,-0.029717742871347937
576.310345,,0.0033596811176692136,576.139,0.7829999923706055,0.01817097087229391
576.775862,,0.0015113219860537481,576.6,0.7599999904632568,-0.031997263791358595
577.241379,,0.0015400290832264466,577.069,0.7839999794960022,0.020215896706729033
577.706897,,0.003098598507243253,577.533,0.7870000004768372,0.02666589107376955
578.172414,,0.001247299729695563,577.995,0.7620000243186951,-0.027894586088430588
578.6379310000001,,0.00318858973117256,578.459,0.781000018119812,0.013399938326776063
579.1034480000001,,0.007162626401356214,578.929,0.7839999794960022,0.01983415410233696
579.5689659999999,,0.008179035818216211,579.395,0.7599999904632568,-0.032553632694580815
580.034483,,0.006669712806258109,579.858,0.7860000133514404,0.023995177899984895
580.5,,0.005244755206519161,580.324,1.0190000534057617,0.531536161961183
580.965517,,0.0054267212698671605,580.788,0.7620000243186951,-0.028442891560097848
581.431034,,0.00588249478518851,581.254,0.7829999923706055,0.017257070547227703
581.896552,,0.004535344417084008,581.719,0.7760000228881836,0.001965843313508385
582.362069,,0.001679063793196725,582.185,0.6859999895095825,-0.19414405474027985
582.827586,,0.00024095375184513538,582.644,0.7739999890327454,-0.002447036345225745
583.2931030000001,,0.00015479045206988126,583.11,0.7990000247955322,0.05200415852218046
583.758621,,0.00140767843923985,583.578,0.7860000133514404,0.023677354989514537
584.2241379999999,,0.0012617924478764565,584.04,0.75,-0.05474915242835559
584.689655,,0.00023042087526801806,584.508,0.7620000243186951,-0.02859359542236008
585.155172,,0.0006684677448758489,584.97,0.7870000004768372,0.02589024879058515
585.6206900000001,,0.0015317535628323904,585.441,0.7860000133514404,0.023735258622133115
586.0862070000001,,0.004826694205552083,585.903,0.7820000052452087,0.015049439984414853
586.551724,,0.006057356726275475,586.369,0.7630000114440918,-0.026312602879288955
587.017241,,0.0038684417612488884,586.83,0.765999972820282,-0.019742792517103647
587.482759,,6.564401257589634e-05,587.295,0.781000018119812,0.012971760335244647
587.948276,,0.003053606906315356,587.763,0.7870000004768372,0.026079068122548503
588.4137929999999,,0.003831885217463827,588.229,0.7910000085830688,0.03482983080690345
588.87931,,0.0028823729137113265,588.696,0.8069999814033508,0.06972506183689402
589.344828,,0.0013027353505833045,589.154,0.765999972820282,-0.019562438102926363
589.810345,,0.00017310504487709987,589.626,0.7580000162124634,-0.03695589741644426
590.2758620000001,,0.00047733759474277596,590.084,0.7599999904632568,-0.032565746298639744
590.741379,,0.002510791757800456,590.552,0.7649999856948853,-0.02164233642230847
591.2068969999999,,0.005175452781970824,591.014,0.7820000052452087,0.01542285694942306
591.672414,,0.006540910098423344,591.485,0.7860000133514404,0.024164546096344164
592.137931,,0.005543400341373752,591.947,0.777999997138977,0.006761885222475194
592.603448,,0.003051570093508765,592.413,0.781000018119812,0.013323927410590434
593.068966,,0.001089013404849089,592.877,0.7630000114440918,-0.025866548655223295
593.534483,,0.0009220831632899218,593.343,0.7820000052452087,0.015551889634644161
594.0,,0.0019066532877290063,593.808,0.7820000052452087,0.015575148591275852
594.4655170000001,,0.002367576601936427,594.274,0.7609999775886536,-0.030154439398458324
594.9310340000001,,0.0016771284693634526,594.734,0.6420000195503235,-0.2893960533164399
595.3965519999999,,0.0010171568327009026,595.2,0.765999972820282,-0.01923351532925657
595.862069,,0.0016031905851851336,595.667,0.7519999742507935,-0.049729886371884295
596.327586,,0.002702118328610641,596.132,0.7699999809265137,-0.010512833026104562
596.793103,,0.0025221744744535076,596.6,0.7870000004768372,0.02652283896022025
597.2586210000001,,0.0009441769144769692,597.062,0.7630000114440918,-0.0257685834832521
597.724138,,3.86327996261578e-05,597.526,0.7820000052452087,0.015618862879579672
598.189655,,0.0014092048860551488,597.996,0.7689999938011169,-0.012713874311573309
598.655172,,0.003947671477476201,598.459,0.7789999842643738,0.009058536665729885
599.12069,,0.004865358009558572,598.921,0.7710000276565552,-0.008388888170607255
599.586207,,0.0026580881415437544,599.387,0.7889999747276306,0.030803891017067556
600.0517239999999,,0.001203151514597746,599.851,0.7879999876022339,0.028598152215987556
600.517241,,0.003514967077931193,600.317,0.7739999890327454,-0.0019346278513938074
600.982759,,0.002479411505807572,600.782,0.7639999985694885,-0.023758268118530976
601.448276,,0.00035281181819024436,601.247,0.7689999938011169,-0.012908186693567785
601.913793,,0.001675026169879988,601.714,0.7599999904632568,-0.032565047525731895
602.37931,,9.144087195222633e-06,602.18,0.7820000052452087,0.01531116712655995
602.844828,,0.00295034917913396,602.645,0.7820000052452087,0.015253526104682193
603.310345,,0.004367619440296171,603.111,0.7720000147819519,-0.006592749808525891
603.775862,,0.0034495477823318866,603.574,0.7870000004768372,0.02602627546863732
604.2413789999999,,0.0018077492461357595,604.036,0.7409999966621399,-0.07425206071954545
604.706897,,0.001442483257229367,604.504,0.7480000257492065,-0.05906122687168771
605.172414,,0.0027448892721894363,604.965,0.7630000114440918,-0.02643892617801186
605.637931,,0.004286763103161491,605.434,0.7620000243186951,-0.02866974543483412
606.1034480000001,,0.004282063118220587,605.897,0.7620000243186951,-0.028714268343181318
606.5689659999999,,0.0024443489758563825,606.363,0.7919999957084656,0.03661101542002935
607.0344829999999,,0.00044697561543230544,606.83,0.765999972820282,-0.020055016734718507
607.5,,0.00023279482579437617,607.295,0.7990000247955322,0.05183435379085995
607.965517,,0.0019957064768338934,607.756,0.7630000114440918,-0.02658690539935619
608.431034,,0.004232448710676562,608.221,0.7870000004768372,0.025727647692194967
608.896552,,0.005447538711665324,608.689,0.7850000262260437,0.021414741027028898
609.362069,,0.0051860546371879585,609.155,0.7870000004768372,0.02583379409864703
609.827586,,0.0037217644651580846,609.622,0.7480000257492065,-0.05905577756775122
610.293103,,0.0015623644017438948,610.08,0.7680000066757202,-0.015391791743148555
610.758621,,0.0007017169294886225,610.549,0.7649999856948853,-0.021825425681842706
611.2241379999999,,0.0025937531523854995,611.011,0.7820000052452087,0.015323446944326823
611.689655,,0.0038966383803644023,611.474,0.7620000243186951,-0.02813097315321471
612.155172,,0.00442313521204649,611.944,0.7870000004768372,0.026457201115567267
612.62069,,0.0038499091749110456,612.41,0.7879999876022339,0.028758273901181068
613.0862070000001,,0.002155132311862521,612.873,0.7839999794960022,0.020163173740123146
613.551724,,0.0001568292313879251,613.339,0.7739999890327454,-0.0015109953568766886
614.017241,,0.0008195604419811582,613.804,0.7820000052452087,0.01601908230800605
614.4827590000001,,8.725873438516176e-05,614.27,0.734000027179718,-0.0884711971397405
614.948276,,0.001621989779336894,614.729,0.6100000143051147,-0.35856228075117863
615.4137929999999,,0.0026461460770275916,615.195,0.781000018119812,0.01401978469378752
615.8793099999999,,0.0018761881531644676,615.66,0.7739999890327454,-0.0012239838898671692
616.344828,,1.5240584465903107e-05,616.125,0.9390000104904175,0.35823892150622955
616.810345,,0.0008470397353821397,616.596,0.7649999856948853,-0.020879111929855
617.275862,,0.0005154085064066304,617.058,0.7820000052452087,0.01610305431285841
617.741379,,0.0027755834531768132,617.522,0.824999988079071,0.10970683486127811
618.206897,,0.0033932134631056866,617.985,0.75,-0.05379135689017968
618.672414,,0.0016058376216471191,618.455,0.7820000052452087,0.015804999935602068
619.137931,,0.000761854530480239,618.918,0.7630000114440918,-0.025728556109468087
619.603448,,0.0014601046819972513,619.383,0.7860000133514404,0.02422604708013215
620.068966,,8.652166158591517e-05,619.85,0.7620000243186951,-0.028226869311639386
620.534483,,0.0027926534811616183,620.316,0.7870000004768372,0.0260674704796383
621.0,,0.005019271231817767,620.775,0.781000018119812,0.012822614279862565
621.465517,,0.005521245795049659,621.24,0.7599999904632568,-0.03309820186372888
621.9310340000001,,0.004192607045475877,621.707,0.7850000262260437,0.02120771271457592
622.396552,,0.002171235446873872,622.172,0.7649999856948853,-0.02251162573716653
622.862069,,0.0006755980716040889,622.637,0.7699999809265137,-0.011745705326424051
623.327586,,0.00022923085689349922,623.103,0.7799999713897705,0.00993702451686557
623.793103,,0.0011375031828433544,623.566,0.8769999742507935,0.2211921888656231
624.258621,,0.0019048363577711437,624.029,0.7839999794960022,0.01853923249754523
624.724138,,0.0017401868569830187,624.497,0.777999997138977,0.005464385286397431
625.189655,,0.000669813136896706,624.959,0.7789999842643738,0.007674734073757192
625.655172,,7.744665574779038e-05,625.429,0.7730000019073486,-0.005330831095471972
626.1206900000001,,0.0005347735108449179,625.892,0.9129999876022339,0.2997822788337062
626.5862070000001,,0.0020795321948385284,626.357,0.7839999794960022,0.018875209668065645
627.0517239999999,,0.0029878165381407684,626.822,0.7519999742507935,-0.05067274881749057
627.5172409999999,,0.001993156714526044,627.288,0.7910000085830688,0.03448614138251074
627.982759,,0.0006255994655050419,627.755,0.7829999923706055,0.01726642680331949
628.448276,,0.0031169568323832077,628.214,0.7739999890327454,-0.0021196438158065725
628.913793,,0.003698342207216002,628.686,0.781000018119812,0.01335813539727195
629.37931,,0.0019981795441429448,629.144,0.7820000052452087,0.015762620002612065
629.844828,,0.0007947067747947273,629.614,0.7850000262260437,0.02251648731845091
630.3103450000001,,0.0028534052676798677,630.077,0.7599999904632568,-0.031747075483953516
630.7758620000001,,0.0029100237540933918,630.54,0.7820000052452087,0.016363924754467817
631.2413789999999,,0.0013031026361807207,631.01,0.7789999842643738,0.009980955656297539
631.706897,,5.076876718517784e-05,631.47,0.765999972820282,-0.018221243958559015
632.172414,,0.001121401250845937,631.94,0.7820000052452087,0.01672023608873838
632.637931,,0.004148599047700959,632.399,0.7820000052452087,0.01676319927626979
633.103448,,0.006375042154613383,632.869,0.7820000052452087,0.016764401718789325
633.568966,,0.005367505779580335,633.335,0.7609999775886536,-0.029029010687463375
634.034483,,0.0014403872754994635,633.8,0.7649999856948853,-0.02039920931740979
634.5,,0.002982480429478785,634.265,0.7850000262260437,0.0230479722289649
634.9655170000001,,0.005814287487620851,634.73,0.7850000262260437,0.02288501760955017
635.431034,,0.006440191102628811,635.189,0.7570000290870667,-0.03831294590297332
635.8965519999999,,0.005089457829807962,635.655,0.777999997138977,0.007214789316402338
636.362069,,0.002362935665800236,636.121,0.7609999775886536,-0.03006779737306964
636.827586,,0.0005519896474120144,636.585,0.7699999809265137,-0.01072000447411962
637.293103,,0.0022378568383809236,637.054,0.7879999876022339,0.02822922452468281
637.7586210000001,,0.0021622062287268437,637.518,0.7649999856948853,-0.022144080404806327
638.224138,,0.0010885003812294606,637.981,0.7789999842643738,0.008102641891552418
638.689655,,0.00011911066457477923,638.448,0.781000018119812,0.01222376548745689
639.155172,,0.0003561564346773725,638.911,0.7689999938011169,-0.01413055898369349
639.62069,,0.000530250474949794,639.376,0.7860000133514404,0.022728569190595786
640.086207,,0.0004146978785219098,639.84,0.7609999775886536,-0.03187726649226794
640.551724,,0.0002626819917354251,640.306,0.7919999957084656,0.03556461411172836
641.017241,,0.001461246671198008,640.77,0.7860000133514404,0.02244388440437349
641.482759,,0.0025302516841509684,641.236,0.746999979019165,-0.06252317716442726
641.9482760000001,,0.0026482044203827012,641.704,0.777999997138977,0.005064216377433632
642.413793,,0.0015311721296393625,642.169,0.7739999890327454,-0.0035527177873506226
642.87931,,0.00022238319953933014,642.634,0.7599999904632568,-0.03390978972442392
643.344828,,0.001508939336355553,643.1,0.7820000052452087,0.014206947586430128
643.810345,,0.0016486149713314823,643.562,0.765999972820282,-0.020427508103482903
644.275862,,0.0010274083122344764,644.025,0.7620000243186951,-0.028886985412717635
644.7413789999999,,0.0006515976501621308,644.493,0.7860000133514404,0.023679234280429312
645.206897,,0.0009104997710064305,644.956,0.765999972820282,-0.019599249652314823
645.672414,,0.0009585815558961357,645.426,0.753000020980835,-0.047620396533415925
646.1379310000001,,0.0002093192233590223,645.888,0.7799999713897705,0.011501352568030533
646.6034480000001,,0.0020086374020414997,646.354,0.7760000228881836,0.003073897809088097
647.0689659999999,,0.0023769063818790555,646.815,0.781000018119812,0.014234401477818362
647.534483,,0.00024887248873975003,647.281,0.7599999904632568,-0.031278514402013166
648.0,,0.0027204079351927277,647.748,0.7739999890327454,-0.0005752681413767682
648.465517,,0.003809579543253568,648.213,0.777999997138977,0.008298414775837972
648.931034,,0.0022684061779226967,648.677,0.765999972820282,-0.01773471630101809
649.396552,,0.00020948294162738998,649.143,0.7760000228881836,0.004110007107667521
649.862069,,0.0019090680182292851,649.611,0.765999972820282,-0.017673592325644
650.327586,,0.0029535321326093033,650.073,0.7580000162124634,-0.03515597955250093
650.7931030000001,,0.00432555401022737,650.537,0.7829999923706055,0.019201495110335372
651.258621,,0.005750019469409697,650.999,0.7630000114440918,-0.024532543582565583
651.7241379999999,,0.0054734810715751795,651.47,0.7649999856948853,-0.020384775087374147
652.189655,,0.0023948988166443033,651.933,0.7950000166893005,0.04472297897605008
652.655172,,0.0020189459220685893,652.399,0.7620000243186951,-0.027458824194096395
653.12069,,0.004577534407983206,652.862,0.7839999794960022,0.020158407866610675
653.5862070000001,,0.003410446056022696,653.328,0.7400000095367432,-0.07603300228996908
654.051724,,0.00011339329814920415,653.793,0.7649999856948853,-0.02190655595224627
654.517241,,0.0028623730391166293,654.259,0.7820000052452087,0.014792722626344582
654.982759,,0.003161001901839768,654.726,0.7870000004768372,0.025361698463777692
655.448276,,0.0021088341177940987,655.184,0.777999997138977,0.005453577112642555
655.9137929999999,,0.0017986765783290159,655.649,0.7789999842643738,0.007365165456693108
656.37931,,0.0028806671458789603,656.114,0.7570000290870667,-0.040790806869174835
656.844828,,0.004221118013223842,656.585,0.7850000262260437,0.020033929946631054
657.310345,,0.004445010192122045,657.047,0.7599999904632568,-0.034555298016213445
657.7758620000001,,0.0030860881463842717,657.515,0.7699999809265137,-0.012833053457062493
658.241379,,0.00039795365741727306,657.977,0.7820000052452087,0.013308046503959066
658.7068969999999,,0.0028796645113781513,658.441,0.7609999775886536,-0.032383854961079275
659.172414,,0.005165036192127292,658.911,0.7630000114440918,-0.02790577571015506
659.637931,,0.004649918597348175,659.369,0.7680000066757202,-0.016834111171003155
660.103448,,0.0013545631236948717,659.836,0.7609999775886536,-0.03185323060711247
660.568966,,0.0021612137331474316,660.302,0.7710000276565552,-0.009788485516844105
661.034483,,0.0031897275413511742,660.766,0.7689999938011169,-0.013828771032995606
661.5,,0.0014293972613496928,661.232,0.7860000133514404,0.023555567650729553
661.965517,,0.0015730502706062187,661.697,0.7760000228881836,0.0021366948905176754
662.4310340000001,,0.00449524815831825,662.163,0.7649999856948853,-0.021451859889952248
662.8965519999999,,0.006580574239340299,662.629,0.7820000052452087,0.01595924530403195
663.362069,,0.006919262371822933,663.095,0.7919999957084656,0.03810622539660763
663.827586,,0.0052051601583831065,663.555,0.7599999904632568,-0.031274710388040756
