Trial: ,4
Threshold: ,0.0
Maximum EMG: ,0.019154505278683242
Success: ,True

EMG Time,Raw EMG,Filtered EMG,Force Time,Raw Force (V),Filtered Force (N)
0.0,samples,1.717180881582048e-07,0.467,0.7879999876022339,0.02224778835123049
0.46551699999999996,time,1.7993579896237322e-07,0.933,0.7820000052452087,0.00926908870860462
0.9310339999999999,value,1.8786708806943576e-07,1.4,0.7839999794960022,0.013770638294428603
1.396552,,1.954713170226646e-07,1.866,0.7429999709129333,-0.0753632283218728
1.862069,,2.0270725799194977e-07,2.326,0.7870000004768372,0.020728679275861982
2.327586,,2.0953321526386094e-07,2.797,0.7850000262260437,0.016637555722610227
2.793103,,2.1590715364619363e-07,3.259,0.7620000243186951,-0.03317769239179861
3.258621,,2.2178683362796265e-07,3.722,0.7739999890327454,-0.006721871829469671
3.724138,,2.2712995310485814e-07,4.185,0.7739999890327454,-0.00640041538479875
4.189654999999999,,2.318942954485745e-07,4.655,0.7599999904632568,-0.03658016352174155
4.655172,,2.36037883666242e-07,5.121,0.722000002861023,-0.11905831517108358
5.12069,,2.3951914036352486e-07,5.584,0.7879999876022339,0.0250224929722824
5.586207,,2.4229705319189383e-07,6.049,0.7630000114440918,-0.02918152693205616
6.051723999999999,,2.4433134542723656e-07,6.514,0.7889999747276306,0.027690530255146048
6.517241,,2.455826512934411e-07,6.98,0.7850000262260437,0.019161929305562063
6.982759,,2.46012695610991e-07,7.445,0.7620000243186951,-0.030808354364756565
7.448276,,2.45584477317057e-07,7.911,0.777999997138977,0.004136317750087876
7.913793000000001,,2.442624563701864e-07,8.371,0.7620000243186951,-0.030691051241972824
8.379309999999998,,2.420127435195992e-07,8.836,0.7730000019073486,-0.006751812010291091
8.844828000000001,,2.3880329238643345e-07,9.304,0.7820000052452087,0.01277398190046631
9.310345,,2.3460409327217243e-07,9.767,0.7870000004768372,0.023531576157342055
9.775862,,2.2938736807807862e-07,10.23,0.7990000247955322,0.049490325570588925
10.241379,,2.2312776568888592e-07,10.7,0.777999997138977,0.003509231901303168
10.706897,,2.158025571444164e-07,11.16,0.7850000262260437,0.01849200849926697
11.172414,,2.0739182989433407e-07,11.629,0.777999997138977,0.0029423366935063594
11.637931,,1.9787868040407852e-07,12.095,0.7820000052452087,0.011335029471915992
12.103447999999998,,1.8724940435428574e-07,12.559,0.777999997138977,0.0022847468091492344
12.568966000000001,,1.754936836518588e-07,13.025,0.7639999985694885,-0.028556439608574544
13.034483,,1.6260476944844841e-07,13.49,0.765999972820282,-0.024534412543876755
13.5,,1.485796603416005e-07,13.955,0.7879999876022339,0.023075648014589212
13.965517,,1.3341927491538e-07,14.415,0.7649999856948853,-0.02732862924046044
14.431034,,1.1712861776103903e-07,14.881,0.7760000228881836,-0.0036251861131663134
14.896552,,9.971693810441978e-08,15.345,0.7889999747276306,0.024477155531492545
15.362069,,8.11978801554169e-08,15.81,0.7889999747276306,0.024306492863805627
15.827586000000002,,6.158962428612094e-08,16.278,0.6470000147819519,-0.2851798948345595
16.293103,,4.0915018138370666e-08,16.741,0.8119999766349792,0.07423304953328042
16.758621,,1.92016967584977e-08,17.211,0.765999972820282,-0.02598948850111604
17.224138,,3.5178091428085302e-09,17.674,0.7879999876022339,0.02199827440149208
17.689655,,2.720597770422148e-08,18.145,0.7910000085830688,0.028652906566146767
18.155172,,5.182021409307525e-08,18.6,0.7860000133514404,0.017937143168794054
18.62069,,7.731278323204714e-08,19.066,0.7710000276565552,-0.014511268575158151
19.086207,,1.0363075794126634e-07,19.531,0.6200000047683716,-0.343211975778916
19.551724,,1.3071598334643505e-07,19.996,0.7870000004768372,0.02093153281505306
20.017241000000002,,1.5850505838230824e-07,20.463,0.7990000247955322,0.04741333970912598
20.482758999999998,,1.8692933519576452e-07,20.928,0.781000018119812,0.008558298443589227
20.948276,,2.159149372236363e-07,21.393,0.7590000033378601,-0.03899976595782323
21.413793000000002,,2.4538279668738415e-07,21.859,0.75,-0.058235854573136785
21.87931,,2.752487122095438e-07,22.326,0.765999972820282,-0.023017577095193434
22.344828,,3.054234272156014e-07,22.789,0.7850000262260437,0.0187151428317505
22.810344999999998,,3.358127297395308e-07,23.252,0.8420000076293945,0.14320660606527794
23.275862,,3.6631757420163974e-07,23.715,0.7639999985694885,-0.02645779262215499
23.741379,,3.968342256736179e-07,24.185,0.7919999957084656,0.034766489896720314
24.206897,,4.2725442708776567e-07,24.648,0.7609999775886536,-0.0326060459278335
24.672414,,4.574655897853438e-07,25.113,0.7879999876022339,0.02632073761770521
25.137931,,4.873510077328539e-07,25.577,0.7620000243186951,-0.030287310412068384
25.603448,,5.167900956649042e-07,26.042,0.777999997138977,0.0045390096837127514
26.068966,,5.456586513382064e-07,26.507,0.7870000004768372,0.024046277090965563
26.534483,,5.738291420032833e-07,26.973,0.7620000243186951,-0.03058694715140848
27.0,,6.011710151187512e-07,27.438,0.7720000147819519,-0.009030613235120532
27.465517,,6.275510332477154e-07,27.903,0.7879999876022339,0.02554059194280695
27.931034,,6.52833632987008e-07,28.371,0.7710000276565552,-0.01183230312211176
28.396552,,6.768813076879019e-07,28.836,0.7480000257492065,-0.06231750761675779
28.862069,,6.995550136317046e-07,29.3,0.7860000133514404,0.020064704454920052
29.327586,,7.207145992255088e-07,29.763,0.7720000147819519,-0.010860533911315516
29.793103000000002,,7.402192566825507e-07,30.23,0.765999972820282,-0.024361890048523654
30.258620999999998,,7.579279955483573e-07,30.692,0.843999981880188,0.14515192587933348
30.724138,,7.737001373284142e-07,31.16,0.4790000021457672,-0.6504586506864384
31.189655000000002,,7.873958303657321e-07,31.623,0.7870000004768372,0.020184892980712594
31.655172000000004,,7.988765840077345e-07,32.089,0.7749999761581421,-0.006299452800323157
32.12069,,8.080058209916571e-07,32.555,0.7599999904632568,-0.03926338720470733
32.586207,,8.14649446866464e-07,33.021,0.7889999747276306,0.023698988295432315
33.051724,,8.18676435157523e-07,33.485,0.7710000276565552,-0.015660834879036134
33.517241000000006,,8.199594268682934e-07,33.951,0.7820000052452087,0.008239944678014338
33.982759,,8.183753428014705e-07,34.415,0.7820000052452087,0.008258932728502737
34.448276,,8.138060070707987e-07,34.881,0.7630000114440918,-0.0330325179366618
34.913793,,8.061387800645393e-07,35.341,0.7910000085830688,0.028154343591146984
35.37931,,7.952671990127851e-07,35.807,0.7649999856948853,-0.028228334118722574
35.844828,,7.810916242039126e-07,36.274,0.7680000066757202,-0.021359869790799114
36.310345,,7.635198887909026e-07,36.736,0.7900000214576721,0.02696392918747853
36.775862,,7.424679500265343e-07,37.204,0.7870000004768372,0.020871970458288973
37.241378999999995,,7.178605396680395e-07,37.667,0.765999972820282,-0.02439828035755995
37.706897000000005,,6.896318111971804e-07,38.133,0.7889999747276306,0.026214669602299314
38.172414,,6.577259814114028e-07,38.596,0.765999972820282,-0.023382997815990604
38.637931,,6.220979638562083e-07,39.062,0.7879999876022339,0.025050014763467236
39.103448,,5.827139914887144e-07,39.527,0.781000018119812,0.010278144926596715
39.568965999999996,,5.39552225888031e-07,39.993,0.7720000147819519,-0.00889047240948055
40.034483,,4.926033502601e-07,40.459,0.7820000052452087,0.013281306507451476
40.5,,4.4187114342353483e-07,40.925,0.7730000019073486,-0.006007919984065052
40.965517,,3.8737303190927943e-07,41.385,0.7699999809265137,-0.012303077164070605
41.431034,,3.2914061726108346e-07,41.851,0.6240000128746033,-0.3302343712825203
41.896552,,2.672201755863737e-07,42.319,0.777999997138977,0.005331103296752371
42.362069000000005,,2.0167312637858565e-07,42.782,0.753000020980835,-0.04917961132174215
42.827586000000004,,1.3257646761288753e-07,43.252,0.7820000052452087,0.013861448141011663
43.293103,,6.002317410795581e-08,43.714,0.7649999856948853,-0.023406914414742477
43.758621,,1.5877443852490678e-08,44.178,0.7839999794960022,0.017671063500931023
44.224138,,9.499942463288504e-08,44.64,0.7739999890327454,-0.004507686598094824
44.689655,,1.7719988506523284e-07,45.106,0.7820000052452087,0.012464815068867707
45.155172,,2.623187989116839e-07,45.57,0.7839999794960022,0.016314482941016416
45.620689999999996,,3.501788268606467e-07,46.035,0.7860000133514404,0.02012884155028278
46.086206999999995,,4.4058520088799033e-07,46.5,0.765999972820282,-0.02400657163158052
46.551724,,5.333256657434014e-07,46.966,0.765999972820282,-0.024571823252291125
47.017241,,6.281704802375576e-07,47.43,0.765999972820282,-0.02512296328665511
47.482759,,7.248724809081974e-07,47.896,0.7870000004768372,0.020109250529811582
47.948276,,8.231672105321764e-07,48.363,0.7839999794960022,0.013102523064320575
48.413793,,9.227731138260283e-07,48.829,0.7570000290870667,-0.04612810572114228
48.879310000000004,,1.023391802539239e-06,49.297,0.7699999809265137,-0.018137086791091207
49.344828,,1.1247083919923157e-06,49.759,0.800000011920929,0.046978564079555335
49.810345,,1.22639191094571e-06,50.222,0.7730000019073486,-0.011992199854828616
50.275862,,1.328095786505756e-06,50.685,0.7870000004768372,0.018463641465973304
50.741379,,1.4294584055800075e-06,51.156,0.7889999747276306,0.022880022203545573
51.206897,,1.5301037541868555e-06,51.618,0.8100000023841858,0.06879510529295438
51.672414,,1.6296421357031666e-06,52.084,0.7689999938011169,-0.02026596362881812
52.137931,,1.7276709688991455e-06,52.549,0.7839999794960022,0.01276933649334276
52.603448,,1.8237756663619192e-06,53.014,0.7860000133514404,0.017563940823185253
53.068966,,1.9175305936488024e-06,53.475,0.7829999923706055,0.011534283045221902
53.534483,,2.008500109238196e-06,53.94,0.7820000052452087,0.009915913875038042
54.0,,2.0962396850610247e-06,54.407,0.7820000052452087,0.010513089956735324
54.465517,,2.180297107099042e-06,54.873,0.7699999809265137,-0.015015085599936473
54.931034,,2.2602137552287823e-06,55.345,0.777999997138977,0.0030290941294141096
55.396552,,2.3355259611720273e-06,55.803,0.6370000243186951,-0.30356774556896177
55.862069,,2.4057664430860736e-06,56.27,0.781000018119812,0.010707230891224781
56.327586,,2.4704658149905807e-06,56.733,0.7870000004768372,0.024271224632622414
56.793102999999995,,2.5291541688831763e-06,57.197,0.7870000004768372,0.024693531691687004
57.258621000000005,,2.5813627270441727e-06,57.667,0.7070000171661377,-0.14926065016693327
57.724138,,2.626625561672623e-06,58.125,0.7910000085830688,0.033986713010167466
58.189655,,2.6644813786325456e-06,58.595,0.7699999809265137,-0.011627691772706806
58.655172,,2.694475361720533e-06,59.061,0.7889999747276306,0.02979669393720683
59.120689999999996,,2.716161073495269e-06,59.526,0.7820000052452087,0.01446765363904098
59.586207,,2.729102408336878e-06,59.992,0.8309999704360962,0.12103690019357576
60.051724,,2.732875593030788e-06,60.457,0.7820000052452087,0.013998405055941566
60.517241,,2.7270712297982034e-06,60.915,0.7789999842643738,0.007084305485439002
60.982758999999994,,2.71129637632468e-06,61.381,0.7699999809265137,-0.012985445927429545
61.448276,,2.6851766569711383e-06,61.847,0.7870000004768372,0.02351923590360299
61.913793,,2.6483583989893374e-06,62.315,0.7889999747276306,0.027289705572709787
62.379310000000004,,2.6005107872079167e-06,62.778,0.7609999775886536,-0.03433636799802531
62.84482800000001,,2.5413280303070867e-06,63.241,0.7820000052452087,0.010772311527331418
63.310345000000005,,2.4705315314615568e-06,63.711,0.7889999747276306,0.025380418645145626
63.775862000000004,,2.387872055803875e-06,64.171,0.7680000066757202,-0.020993117116140384
64.241379,,2.293131886845725e-06,64.641,0.7889999747276306,0.02417563199586014
64.706897,,2.186126963694528e-06,65.106,0.7710000276565552,-0.015565567209796558
65.172414,,2.0667089906186176e-06,65.57,0.765999972820282,-0.026911371534139937
65.637931,,1.9347675102480385e-06,66.036,0.7879999876022339,0.020653872117921544
66.103448,,1.7902319314513209e-06,66.501,0.7760000228881836,-0.005755284070464413
66.56896599999999,,1.6330735027032102e-06,66.967,0.7580000162124634,-0.04512834933048142
67.03448300000001,,1.4633072215559211e-06,67.426,0.7739999890327454,-0.010314289480875373
67.5,,1.2809936706488141e-06,67.892,0.7850000262260437,0.013722474441845805
67.965517,,1.0862407705401387e-06,68.356,0.7850000262260437,0.013909291276665452
68.431034,,8.792054395213251e-07,68.822,0.7710000276565552,-0.016294527127544416
68.896552,,6.600951504809004e-07,69.289,0.7699999809265137,-0.018074274542462205
69.362069,,4.2916937482306475e-07,69.752,0.7879999876022339,0.02163087723412615
69.827586,,1.8674090341687103e-07,70.215,0.765999972820282,-0.02573345797289612
70.293103,,6.682296544267185e-08,70.685,0.8029999732971191,0.05550267711042556
70.75862099999999,,3.310993810389355e-07,71.145,0.7829999923706055,0.01259800332892003
71.22413800000001,,6.056090481021485e-07,71.615,0.7739999890327454,-0.00631967187009291
71.689655,,8.898154973233725e-07,72.08,0.7839999794960022,0.01615748775786134
72.15517200000001,,1.183124528138064e-06,72.544,0.7870000004768372,0.02336389098193681
72.62069,,1.484883833204945e-06,73.01,0.7620000243186951,-0.030472932389566484
73.086207,,1.7943828137653783e-06,73.47,0.7879999876022339,0.026740256531389124
73.551724,,2.1108525947847893e-06,73.936,0.765999972820282,-0.020700349286347466
74.017241,,2.433466248450051e-06,74.401,0.7609999775886536,-0.031198521792240995
74.482759,,2.7613392342244116e-06,74.866,0.7879999876022339,0.02791260013190321
74.94827599999999,,3.093530063243889e-06,75.33,0.7910000085830688,0.03462008932960976
75.41379300000001,,3.4290411943756344e-06,75.8,0.7620000243186951,-0.028511303547258164
75.87931,,3.7668201687492243e-06,76.263,0.7870000004768372,0.025879192013027654
76.344828,,4.105760989016045e-06,76.725,0.7620000243186951,-0.02878645723250009
76.810345,,4.4447057489898e-06,77.193,0.7630000114440918,-0.026926375063779172
77.275862,,4.7824465186729115e-06,77.655,0.7699999809265137,-0.012104945413229049
77.741379,,5.117727488979486e-06,78.121,0.7850000262260437,0.020048217700679508
78.206897,,5.449247379726082e-06,78.591,0.8009999990463257,0.054298640044640814
78.67241399999999,,5.77566211367744e-06,79.056,0.7760000228881836,-0.0008382904324301058
79.137931,,6.095587758606401e-06,79.518,0.7739999890327454,-0.005909937886188606
79.603448,,6.407603738456619e-06,79.984,0.7639999985694885,-0.028433480438974697
80.068966,,6.710256313784567e-06,80.448,0.9139999747276306,0.2976286913870376
80.53448300000001,,7.002062330705213e-06,80.914,0.7870000004768372,0.020232441099996848
81.0,,7.281513236575248e-06,81.381,0.7820000052452087,0.00867816599252206
81.465517,,7.547079359620793e-06,81.84,0.7839999794960022,0.012438850179312214
81.931034,,7.797214448655148e-06,82.308,0.7889999747276306,0.02281845287586292
82.396552,,8.030360467938697e-06,82.77,0.7649999856948853,-0.02988405125430392
82.86206899999999,,8.244952641110044e-06,83.238,0.7689999938011169,-0.021473304974637876
83.327586,,8.439424736967523e-06,83.7,0.7649999856948853,-0.030371200964500234
83.79310299999999,,8.612214588706433e-06,84.171,0.7960000038146973,0.037111121969235814
84.258621,,8.761769837022776e-06,84.633,0.7699999809265137,-0.01945904913066432
84.72413800000001,,8.886553886282222e-06,85.099,0.7789999842643738,0.00035258227462267935
85.189655,,8.985052061727216e-06,85.562,0.7630000114440918,-0.034178643217737295
85.65517200000001,,9.055777954459213e-06,86.028,0.7749999761581421,-0.007593700451220404
86.12069,,9.097279939691006e-06,86.492,0.7879999876022339,0.021272036434564524
86.586207,,9.108147852520193e-06,86.959,0.7689999938011169,-0.019492247768043123
87.051724,,9.087019804233275e-06,87.426,0.7689999938011169,-0.01879427321810974
87.517241,,9.032589120915262e-06,87.885,0.765999972820282,-0.02458529879405895
87.98275899999999,,8.94361138491675e-06,88.352,0.765999972820282,-0.023815525657048062
88.448276,,8.818911558524003e-06,88.818,0.7870000004768372,0.022708123015817275
88.913793,,8.65739116799263e-06,89.281,0.7680000066757202,-0.017934814648824706
89.37931,,8.45803552494726e-06,89.751,0.6420000195503235,-0.29173917421203127
89.844828,,8.219920961023228e-06,90.212,0.7870000004768372,0.024800589376906018
90.310345,,7.942222050537472e-06,90.681,0.7699999809265137,-0.011687175369957073
90.775862,,7.624218794929666e-06,91.145,0.7549999952316284,-0.04391895705501753
91.241379,,7.2653037417169935e-06,91.607,0.7940000295639038,0.04138091510320648
91.706897,,6.864989009762344e-06,92.072,0.7850000262260437,0.021980547782604807
92.17241399999999,,6.4229131917719046e-06,92.537,0.7820000052452087,0.015520457573078742
92.63793100000001,,5.938848104119821e-06,93.003,0.7620000243186951,-0.028111896918401914
93.103448,,5.412705353350521e-06,93.468,0.7739999890327454,-0.002162571865819741
93.568966,,4.844542688039219e-06,93.933,0.7860000133514404,0.023657150805941905
94.03448300000001,,4.234570104103751e-06,94.4,0.781000018119812,0.012319480321441355
94.5,,3.5831556711618965e-06,94.866,0.7820000052452087,0.013945871261963519
94.965517,,2.890831047123339e-06,95.326,0.7870000004768372,0.02419485254265785
95.431034,,2.1582966478998264e-06,95.796,0.8579999804496765,0.17816271328463415
95.896552,,1.3864264389164267e-06,96.259,0.765999972820282,-0.023039378474297892
96.36206899999999,,5.762723150161685e-07,96.722,0.7910000085830688,0.030631086147654397
96.827586,,2.709319646250542e-07,97.185,0.7820000052452087,0.010220229535769272
97.293103,,1.1537673198117667e-06,97.655,0.7820000052452087,0.009433851348956256
97.758621,,2.0706264038394447e-06,98.121,0.7710000276565552,-0.01527803616741388
98.224138,,3.019711201772772e-06,98.583,0.781000018119812,0.005823330033250901
98.689655,,3.999031204530199e-06,99.049,0.765999972820282,-0.027459356917317504
99.155172,,5.006402190144273e-06,99.51,0.7649999856948853,-0.030140553069764115
99.62069,,6.039445642757376e-06,99.976,0.7839999794960022,0.010867111235992662
100.086207,,7.095588838958735e-06,100.441,0.7839999794960022,0.010609374268295977
100.551724,,8.172065629968083e-06,100.906,0.7820000052452087,0.006132221170380145
101.017241,,9.26591794692162e-06,101.371,0.7649999856948853,-0.030882774559026285
101.482759,,1.0373998055115103e-05,101.837,0.8019999861717224,0.049891733722287265
101.948276,,1.1492971581505346e-05,102.3,0.7630000114440918,-0.03477213802471485
102.413793,,1.261932133806416e-05,102.77,0.7839999794960022,0.011413367759898046
102.87931,,1.3749351961717129e-05,103.23,0.7950000166893005,0.035931422433659765
103.344828,,1.487919538958369e-05,103.7,0.7689999938011169,-0.02005701112292055
103.810345,,1.6004817186065206e-05,104.163,0.7820000052452087,0.009006338243273918
104.275862,,1.712202373600523e-05,104.626,0.7649999856948853,-0.02722718810267838
104.741379,,1.8226470315672534e-05,105.091,0.7870000004768372,0.021545953257744943
105.206897,,1.9313670050695246e-05,105.556,0.7879999876022339,0.02458244547724492
105.672414,,2.0379003767306134e-05,106.021,0.7860000133514404,0.021073137567562347
106.13793100000001,,2.141773074034869e-05,106.485,0.7860000133514404,0.021885769921281936
106.603448,,2.2425000338445024e-05,106.951,0.7639999985694885,-0.02529213275341049
107.068966,,2.3395864563544957e-05,107.418,0.7680000066757202,-0.01590893801598763
107.534483,,2.4325291478766374e-05,107.884,0.7879999876022339,0.028228339813108228
108.0,,2.520817951500637e-05,108.349,0.7680000066757202,-0.014901626388945616
108.46551699999999,,2.6039372643257806e-05,108.815,0.7620000243186951,-0.027666424873431
108.931034,,2.6813676395914402e-05,109.278,0.7879999876022339,0.029139286771950712
109.396552,,2.7525874716597702e-05,109.741,0.7670000195503235,-0.016602866052546073
109.862069,,2.8170747614200554e-05,110.211,0.7639999985694885,-0.023282646280031363
110.32758600000001,,2.874308959292366e-05,110.674,0.7870000004768372,0.026532456398050457
110.793103,,2.9237728826094994e-05,111.145,0.7850000262260437,0.021739835318240107
111.258621,,2.9649547037517583e-05,111.6,0.7839999794960022,0.01899650188540934
111.724138,,2.9973500050001287e-05,112.066,0.7620000243186951,-0.02961202837440169
112.189655,,3.020463895661155e-05,112.531,0.765999972820282,-0.021670983689332055
112.655172,,3.0338131866025687e-05,112.996,0.7749999761581421,-0.002909331619353075
113.12069,,3.036928616923902e-05,113.463,0.7739999890327454,-0.005981730251156612
113.586207,,3.0293571270723624e-05,113.928,0.7860000133514404,0.01924750872038269
114.051724,,3.010664172302703e-05,114.393,0.7789999842643738,0.0030889747408571373
114.51724100000001,,2.980436069972216e-05,114.859,0.7699999809265137,-0.017393135051143534
114.982759,,2.938282373759981e-05,115.322,0.7860000133514404,0.01665093978325099
115.448276,,2.8838382675047213e-05,115.785,0.7739999890327454,-0.010222429903195893
115.913793,,2.8167669709698556e-05,116.256,0.8489999771118164,0.1525552291811747
116.37931,,2.7367621494692774e-05,116.718,0.7820000052452087,0.006093906829269325
116.84482799999999,,2.6435503189248962e-05,117.186,0.7839999794960022,0.010102797063257325
117.310345,,2.5368932375788418e-05,117.648,0.765999972820282,-0.029307990981019702
117.77586199999999,,2.4165902752513324e-05,118.113,1.0069999694824219,0.49571524807928724
118.241379,,2.2824807507214284e-05,118.576,0.7820000052452087,0.00565812823857383
118.70689700000001,,2.13444622751413e-05,119.042,0.7680000066757202,-0.024541674956964694
119.172414,,1.9724127581054417e-05,119.511,0.7960000038146973,0.036911469930884434
119.63793100000001,,1.7963530663090365e-05,119.97,0.722000002861023,-0.12372150983020914
120.103448,,1.6062886573859272e-05,120.442,0.7609999775886536,-0.03804966652341529
120.568966,,1.4022918452239903e-05,120.9,0.8009999990463257,0.049898704308903315
121.034483,,1.1844876857691747e-05,121.367,0.7620000243186951,-0.03419043225028256
121.5,,9.53055805756633e-06,121.832,0.7860000133514404,0.01902492959319754
121.96551699999999,,7.082321156896694e-06,122.3,0.7870000004768372,0.02215380892778875
122.431034,,4.503103959491051e-06,122.763,0.7620000243186951,-0.03136782094114229
122.896552,,1.7964374488715242e-06,123.226,0.781000018119812,0.010936658681625928
123.362069,,1.0335412223012777e-06,123.696,0.8550000190734863,0.1730068974466608
123.827586,,3.982077345176247e-06,124.16,0.7599999904632568,-0.0331988266471014
124.293103,,7.043788979973146e-06,124.622,0.7870000004768372,0.02628167319675449
124.758621,,1.0212659102149211e-05,125.088,0.8149999976158142,0.08781138370293916
125.22413800000001,,1.3482029676268652e-05,125.552,0.7480000257492065,-0.05777597010075412
125.68965500000002,,1.6844597762120425e-05,126.018,0.8119999766349792,0.08188122498531845
126.15517200000001,,2.029241375490751e-05,126.485,0.7649999856948853,-0.02045700961045508
126.62069000000001,,2.3816881858128337e-05,126.951,0.7820000052452087,0.016470082293458803
127.086207,,2.7408762884078493e-05,127.416,0.781000018119812,0.014015469960853118
127.55172400000001,,3.105817947271049e-05,127.882,0.765999972820282,-0.01909887146818017
128.017241,,3.475462381489468e-05,128.341,0.7870000004768372,0.02607189531702368
128.48275900000002,,3.8486967960920073e-05,128.807,0.7639999985694885,-0.02474758784462161
128.948276,,4.224347678935648e-05,129.275,0.7630000114440918,-0.027746159904407763
129.413793,,4.601182370516698e-05,129.738,0.7889999747276306,0.02799340224428081
129.87931,,4.977910912921285e-05,130.201,0.7720000147819519,-0.010006648431058696
130.344828,,5.353188183403254e-05,130.67,0.7820000052452087,0.010787549382822777
130.81034499999998,,5.7256163173006616e-05,131.136,0.765999972820282,-0.025062935968238664
131.275862,,6.093747424174682e-05,131.601,0.7850000262260437,0.015369481312585627
131.741379,,6.456086600177754e-05,132.066,0.7860000133514404,0.016645539306622
132.206897,,6.811095238732129e-05,132.526,0.7699999809265137,-0.019028520801089605
132.67241399999997,,7.157194640626919e-05,132.992,0.781000018119812,0.004232596135535243
133.13793099999998,,7.492769923622554e-05,133.457,0.7680000066757202,-0.02466092838493599
133.60344800000001,,7.816174230588082e-05,133.922,0.7699999809265137,-0.020724146269818094
134.06896600000002,,8.125733234090546e-05,134.389,0.7649999856948853,-0.03187413300593467
134.53448300000002,,8.419749934209169e-05,134.855,0.7979999780654907,0.03993723815577417
135.0,,8.696509745162364e-05,135.315,0.7699999809265137,-0.02097224692836469
135.465517,,8.954285865115336e-05,135.785,0.7870000004768372,0.0163322177286092
135.931034,,9.191344922283027e-05,136.248,0.7870000004768372,0.016767224266739073
136.396552,,9.405952889160392e-05,136.711,0.7820000052452087,0.006464561165401219
136.862069,,9.596381255402788e-05,137.179,0.7689999938011169,-0.021129234090547122
137.327586,,9.760913448547074e-05,137.641,0.7889999747276306,0.02328898462713914
137.793103,,9.897851490412677e-05,138.107,0.753000020980835,-0.054205473779216265
138.258621,,0.00010005522875655195,138.57,0.7879999876022339,0.023047438721525298
138.724138,,0.0001008228765756748,139.037,0.7649999856948853,-0.026027386312483664
139.189655,,0.0001012654572483875,139.504,0.7720000147819519,-0.00973985344958228
139.655172,,0.00010136744251595981,139.97,0.7870000004768372,0.023948513981803192
140.12069,,0.00010111385301668241,140.43,0.7639999985694885,-0.025210254528976905
140.586207,,0.00010049033566638867,140.895,0.7860000133514404,0.02358268719276685
141.05172399999998,,9.948324215887692e-05,141.36,0.8669999837875366,0.2008038079896271
141.51724099999998,,9.807970835481265e-05,141.825,0.7820000052452087,0.01623587650948704
141.982759,,9.626773431448719e-05,142.296,0.7870000004768372,0.0275919431823103
142.44827600000002,,9.403626471690267e-05,142.759,0.7369999885559082,-0.08104934797901188
142.913793,,9.137526939510219e-05,143.222,0.6449999809265137,-0.2813788305830596
143.37931,,8.827582370552756e-05,143.685,0.5180000066757202,-0.5581567817660262
143.844828,,8.473018843752696e-05,144.153,0.7820000052452087,0.01672178286054533
144.310345,,8.073188895801072e-05,144.615,0.7850000262260437,0.02279354612142293
144.77586200000002,,7.62757932757297e-05,145.081,0.7689999938011169,-0.012689889963674976
145.241379,,7.135818869978899e-05,145.548,0.7620000243186951,-0.02870798451439772
145.706897,,6.597685675787373e-05,146.013,0.7860000133514404,0.022692327110225816
146.172414,,6.013114603131651e-05,146.479,0.7879999876022339,0.026070268327401523
146.637931,,5.3822042556640606e-05,146.945,0.765999972820282,-0.02290172164891531
147.103448,,4.705223743663282e-05,147.411,0.7870000004768372,0.021777000988314706
147.568966,,3.982619129839654e-05,147.87,0.7720000147819519,-0.011974441205627637
148.034483,,3.2150195231270646e-05,148.345,0.7639999985694885,-0.030442057015853053
148.5,,2.4032427834033696e-05,148.802,0.7699999809265137,-0.018344248895909514
148.965517,,1.5483007998504532e-05,149.27,0.9580000042915344,0.3903652865180053
149.43103399999998,,6.514043055556987e-06,149.733,0.765999972820282,-0.028684440797530606
149.89655199999999,,2.8603280902565633e-06,150.197,0.7689999938011169,-0.02275096705416922
150.362069,,1.2623897209777402e-05,150.666,0.765999972820282,-0.029728488431167287
150.82758600000003,,2.2758354751437957e-05,151.125,0.777999997138977,-0.003851792479027687
151.293103,,3.324326396171661e-05,151.595,0.7599999904632568,-0.04315219899251046
151.758621,,4.405604148321708e-05,152.061,0.7870000004768372,0.015771693493497895
152.224138,,5.517194478246615e-05,152.526,0.7850000262260437,0.011697484637890202
152.68965500000002,,6.656406675070291e-05,152.992,0.7630000114440918,-0.03577556233155185
153.155172,,7.820333781053165e-05,153.456,0.765999972820282,-0.028622708161103665
153.62069,,9.005853584929838e-05,153.922,0.7860000133514404,0.015708665419221876
154.086207,,0.00010209630428640377,154.382,0.7649999856948853,-0.029165722282802255
154.551724,,0.00011428117856646158,154.847,0.7889999747276306,0.02409189805437877
155.017241,,0.00012657562135323644,155.315,0.7879999876022339,0.022947503471853998
155.482759,,0.00013894006668063768,155.778,0.7689999938011169,-0.0173793975908317
155.948276,,0.000151332973296704,156.241,0.7860000133514404,0.020725838188759383
156.413793,,0.00016371088741448715,156.711,0.7839999794960022,0.017405513116218536
156.87931,,0.00017602851506004009,157.174,0.7689999938011169,-0.014299470063283781
157.34482799999998,,0.00018823880418234997,157.637,0.7879999876022339,0.027977682101710293
157.81034499999998,,0.00020029303666304905,158.103,0.7710000276565552,-0.008294804614806051
158.275862,,0.00021214093033511706,158.569,0.7860000133514404,0.025007950176462807
158.741379,,0.00022373075108958904,159.035,0.7639999985694885,-0.02245971964112083
159.20689700000003,,0.0002350094351175456,159.5,0.7879999876022339,0.03011597852881802
159.672414,,0.0002459227213014375,159.966,0.7789999842643738,0.010613307412798255
160.137931,,0.0002564152937351408,160.431,0.7870000004768372,0.02796172794233792
160.60344800000001,,0.00026643093431611526,160.897,0.828000009059906,0.11702274704968488
161.06896600000002,,0.0002759126853157221,161.357,0.7440000176429749,-0.06642235023701076
161.534483,,0.00028480302179522316,161.822,0.7699999809265137,-0.010380019132840704
162.0,,0.00029304403369532643,162.285,0.7850000262260437,0.021551051964102393
162.465517,,0.00030057761738645056,162.755,0.7509999871253967,-0.053395409840524696
162.931034,,0.00030734567642526405,163.215,0.7689999938011169,-0.01515009914770266
163.396552,,0.0003132903312206216,163.685,0.777999997138977,0.003418591073758893
163.862069,,0.00031835413726889034,164.145,0.7839999794960022,0.015414539926776043
164.327586,,0.0003224803115749579,164.615,0.7630000114440918,-0.031417300343647744
164.793103,,0.00032561296683107996,165.08,0.7870000004768372,0.01981793836259775
165.258621,,0.00032769735288129943,165.545,0.7860000133514404,0.016647190396040807
165.72413799999998,,0.00032868010495459767,166.012,0.8429999947547913,0.13992966174621244
166.189655,,0.00032850949810538056,166.47,0.7870000004768372,0.017144705956116595
166.655172,,0.0003271357072555212,166.936,0.777999997138977,-0.003101538812724358
167.12069,,0.0003245110721881451,167.401,0.7639999985694885,-0.03408121505551992
167.58620699999997,,0.0003205903667998297,167.866,0.7839999794960022,0.009187078442675377
168.051724,,0.00031533107187507715,168.334,0.7979999780654907,0.03956746223084395
168.517241,,0.0003086936506049976,168.797,0.7440000176429749,-0.07801263472367435
168.98275900000002,,0.00030064182603129874,169.26,0.7820000052452087,0.005027534021524888
169.44827600000002,,0.0002911428595571151,169.729,0.765999972820282,-0.02940203472176338
169.913793,,0.0002801678296281235,170.19,0.7860000133514404,0.014765080698561065
170.37931,,0.00026769190965098195,170.66,0.7879999876022339,0.019864349953626428
170.844828,,0.00025369464418160286,171.125,0.7609999775886536,-0.03809136090172499
171.310345,,0.0002381602223833533,171.588,0.7870000004768372,0.019520822143551327
171.775862,,0.00022107774772515908,172.054,0.7580000162124634,-0.0426222954768778
172.241379,,0.0002024415028618782,172.519,0.7599999904632568,-0.0371885600699834
172.706897,,0.00018225120861439749,172.984,0.7789999842643738,0.0052887434066132555
173.172414,,0.0001605122759449387,173.448,0.7699999809265137,-0.013261476774152582
173.637931,,0.00013723604980428076,173.914,0.7820000052452087,0.013883203107017805
174.103448,,0.00011244004371218841,174.379,0.7910000085830688,0.03440552247261727
174.568966,,8.614816392037897e-05,174.845,0.7680000066757202,-0.014902665702161188
175.034483,,5.839092199903201e-05,175.308,0.7820000052452087,0.01626088882387111
175.5,,2.9205634683543188e-05,175.77,0.7239999771118164,-0.10959765342293
175.96551699999998,,1.3633901816620223e-06,176.241,0.7620000243186951,-0.026481446005581655
176.43103399999998,,3.3264682760977704e-05,176.703,0.7879999876022339,0.030305917778033455
176.896552,,6.643945655750225e-05,177.167,0.7710000276565552,-0.0067763690553822665
177.36206900000002,,0.00010082147109291934,177.63,0.7839999794960022,0.02131403893119374
177.827586,,0.00013633691305741833,178.095,0.7630000114440918,-0.024849477894589054
178.293103,,0.00017290429702512185,178.566,0.7710000276565552,-0.00800044234229194
178.758621,,0.00021043438680098963,179.032,0.7889999747276306,0.03048416371039009
179.224138,,0.00024883013843419907,179.497,0.7850000262260437,0.020910443029995188
179.68965500000002,,0.00028798666589948936,179.956,0.765999972820282,-0.02144609391684995
180.155172,,0.00032779123040370525,180.423,0.777999997138977,0.0036609309799944655
180.62069,,0.0003681232542152647,180.888,0.7649999856948853,-0.02574229499323027
181.086207,,0.00040885435985258084,181.353,0.7710000276565552,-0.013762865202422463
181.551724,,0.00044984843542320306,181.819,0.7850000262260437,0.015666805318239024
182.01724099999998,,0.0004909617268672833,182.281,0.7649999856948853,-0.02892417736308726
182.482759,,0.0005320429577775204,182.751,0.7850000262260437,0.013714916294753536
182.948276,,0.0005729334773268876,183.212,0.7820000052452087,0.006357251362353556
183.413793,,0.0006134674367240003,183.681,0.765999972820282,-0.02918588367374246
183.87931,,0.0006534719946379882,184.145,0.7609999775886536,-0.040606899431406565
184.34482799999998,,0.0006927675520907867,184.607,0.765999972820282,-0.03006894390749583
184.81034499999998,,0.0007311680171118246,185.073,0.7799999713897705,0.000260597522506849
185.27586200000002,,0.000768481098959093,185.538,0.7820000052452087,0.004636226987226615
185.74137900000002,,0.0008045086315112813,186.004,0.859000027179718,0.17260183210719504
186.206897,,0.00083904692605065,186.47,0.7649999856948853,-0.03179530808051271
186.672414,,0.0008718871543108382,186.936,0.7960000038146973,0.036312020178329386
187.137931,,0.0009028157616658359,187.401,0.7789999842643738,-6.10266532660806e-07
187.60344800000001,,0.0009316149079298174,187.866,0.7860000133514404,0.01610813998463893
188.06896600000002,,0.0009580629330969843,188.329,0.7519999742507935,-0.05700058436254434
188.534483,,0.0009819348499062884,188.792,0.6700000166893005,-0.23460860912375103
189.0,,0.0010030028687515566,189.26,0.765999972820282,-0.024374616557761943
189.465517,,0.0010210369536966472,189.722,0.8510000109672546,0.1619083918961828
189.931034,,0.00103580539518809,190.186,0.7599999904632568,-0.035266466884702224
190.39655199999999,,0.001047075388154334,190.655,0.7850000262260437,0.020232933038859625
190.862069,,0.001054613633421037,191.121,0.7630000114440918,-0.02674559739991069
191.327586,,0.0010581869970225598,191.584,0.7879999876022339,0.02856261753398545
191.793103,,0.001057563214839727,192.049,0.753000020980835,-0.04698318171962254
192.25862099999998,,0.0010525115578390572,192.51,0.7570000290870667,-0.037718952735266736
192.72413799999998,,0.0010428034122808268,192.976,0.765999972820282,-0.017735774289525393
193.189655,,0.0010282129085162728,193.441,0.7870000004768372,0.028206663357764256
193.655172,,0.00100851779430558,193.907,0.7630000114440918,-0.024080203443409803
194.12069000000002,,0.0009835004294179192,194.374,0.7919999957084656,0.0389110909338455
194.586207,,0.000952948395270854,194.839,0.746999979019165,-0.05950255680470338
195.051724,,0.0009166545638766797,195.3,0.765999972820282,-0.01865728337300821
195.517241,,0.0008744175372607589,195.77,0.7860000133514404,0.024208609121157115
195.98275900000002,,0.0008260434985934679,196.233,0.5299999713897705,-0.5343736377912387
196.448276,,0.000771348426005186,196.696,0.7860000133514404,0.02239292938325854
196.913793,,0.0007101576849916958,197.164,0.7649999856948853,-0.02441263197631702
197.37931,,0.0006423027696831078,197.626,0.7649999856948853,-0.025516672645201566
197.844828,,0.0005676211391950176,198.092,0.7850000262260437,0.01693564459314299
198.310345,,0.0004859643579629721,198.559,0.7870000004768372,0.020190165198277703
198.775862,,0.0003972064614014705,199.025,0.7310000061988831,-0.10286608460164365
199.241379,,0.0003012353849155475,199.489,0.7870000004768372,0.018167985375069688
199.706897,,0.00019793037116215258,199.954,0.7580000162124634,-0.04587158843149479
200.172414,,8.716296314466074e-05,200.419,0.7689999938011169,-0.022627629144825273
200.63793099999998,,3.1154418362704364e-05,200.885,0.7870000004768372,0.016026601824913517
201.103448,,0.00015703050724087057,201.352,0.7990000247955322,0.041786707394383046
201.568966,,0.00029046360889715213,201.81,0.777999997138977,-0.004159057397418446
202.034483,,0.0004315731446336444,202.278,0.7919999957084656,0.026343078113134417
202.5,,0.0005805628875248121,202.741,0.765999972820282,-0.030106232435287532
202.965517,,0.0007374202290428071,203.211,0.7549999952316284,-0.05368815757019569
203.431034,,0.0009017510654513013,203.674,0.7910000085830688,0.025301961069953964
203.896552,,0.0010732657600860823,204.141,0.7639999985694885,-0.03280375641582675
204.36206900000002,,0.0012525057046320366,204.603,0.8069999814033508,0.061733663949935125
204.827586,,0.0014404231428875882,205.069,0.765999972820282,-0.02662343881888971
205.293103,,0.001636551641185158,205.534,0.765999972820282,-0.025574086067625568
205.758621,,0.0018384104369606011,206.0,0.7870000004768372,0.02127649632864999
206.224138,,0.0020447911508609624,206.467,0.7919999957084656,0.03328565321407791
206.689655,,0.002259604382420602,206.925,0.7870000004768372,0.02349196749647277
207.155172,,0.0024881899281902512,207.39,0.7860000133514404,0.02236301300604267
207.62069,,0.0027264641765470934,207.856,0.75,-0.0551012991493288
208.086207,,0.0029598506144343363,208.326,0.7850000262260437,0.02200591824020746
208.551724,,0.0031847429166883753,208.788,0.765999972820282,-0.01867237709319172
209.01724099999998,,0.003427825615772048,209.256,0.7620000243186951,-0.026830796908569026
209.482759,,0.0037173532574810023,209.718,0.7829999923706055,0.019299838565689065
209.948276,,0.004020512975946676,210.186,0.7829999923706055,0.019491237208190324
210.413793,,0.004252518103860591,210.648,0.7839999794960022,0.021668309125727966
210.87930999999998,,0.004412661365839443,211.113,0.7689999938011169,-0.01120597865830966
211.344828,,0.004674137380701354,211.576,0.7860000133514404,0.025449276196636353
211.810345,,0.005175898487542213,212.042,0.7680000066757202,-0.014323785132212104
212.27586200000002,,0.005671867795043431,212.507,0.7099999785423279,-0.14140282290732878
212.741379,,0.005679358303693129,212.973,0.7820000052452087,0.014603445127459699
213.206897,,0.005320667635966817,213.438,0.7879999876022339,0.026707462387045848
213.672414,,0.005694727006947188,213.903,0.9649999737739563,0.4112836515877989
214.137931,,0.0074424330548993715,214.371,0.753000020980835,-0.05167690757986543
214.60344800000001,,0.008759007762884546,214.836,0.7839999794960022,0.01476057087007461
215.068966,,0.006398662433005845,215.297,0.8090000152587891,0.06814358823664676
215.534483,,1.905629013896795e-05,215.767,0.7549999952316284,-0.050536449467193885
216.0,,0.006148514428544131,216.229,0.8019999861717224,0.05090782884707564
216.465517,,0.007469249705564229,216.692,0.7620000243186951,-0.0370809630254215
216.93103399999998,,0.004595168946000442,217.156,0.7850000262260437,0.012319484229828925
217.39655199999999,,0.0017643464992432452,217.626,0.7870000004768372,0.016124048674020838
217.862069,,0.001203887759465564,218.091,0.7739999890327454,-0.012578466607716658
218.327586,,0.0017177855956887467,218.556,0.7889999747276306,0.019905003716754365
218.793103,,0.002197097960973258,219.015,0.7649999856948853,-0.03238928532299853
219.25862099999998,,0.0034949547293446947,219.482,0.765999972820282,-0.030028357448992956
219.724138,,0.006145326668716303,219.947,0.8029999732971191,0.05094775878972153
220.18965500000002,,0.008446570817811578,220.411,0.7680000066757202,-0.024765305837794134
220.65517200000002,,0.008320454727187104,220.877,0.7820000052452087,0.006432242450336615
221.12069,,0.00610624720069786,221.341,0.7749999761581421,-0.00798626188004763
221.586207,,0.00418738758964434,221.807,0.7689999938011169,-0.020115523510064473
222.051724,,0.0042451543780305055,222.27,0.7889999747276306,0.024482181699276788
222.517241,,0.005930945027711052,222.741,0.7850000262260437,0.01684438548434945
222.98275900000002,,0.007948450828792392,223.204,0.765999972820282,-0.0234539471097387
223.448276,,0.009239657780585317,223.666,0.7870000004768372,0.023379953784101754
223.913793,,0.009002777347341413,224.132,0.7910000085830688,0.03313084035951361
224.37931,,0.0067557492781857,224.596,1.0490000247955322,0.5961869125066852
224.844828,,0.0031517895274023834,225.062,0.765999972820282,-0.019502897563626883
225.31034499999998,,0.00017530838672838545,225.529,0.7609999775886536,-0.029657014866148464
225.775862,,0.00038147001036318364,225.995,0.7910000085830688,0.036284998629345686
226.241379,,0.0011651035525499396,226.46,0.781000018119812,0.014907122268456256
226.706897,,0.0024561536124689015,226.926,0.7689999938011169,-0.011014826904860301
227.172414,,0.001482737425062925,227.385,0.7870000004768372,0.028228655243821038
227.63793099999998,,0.0012391999723233016,227.852,0.8330000042915344,0.1282803079050072
228.103448,,0.003320975243215078,228.315,0.8149999976158142,0.08871079407365609
228.56896600000002,,0.0032378605086276,228.785,0.7870000004768372,0.02717722628375721
229.03448300000002,,0.0017791903296164669,229.248,0.7870000004768372,0.02648258511935259
229.5,,0.0007039017096838338,229.711,0.7820000052452087,0.014751554822046662
229.965517,,0.0008503919911449906,230.178,0.7839999794960022,0.018152821198962252
230.431034,,0.0020379120616483884,230.64,0.765999972820282,-0.022108599783217067
230.896552,,0.003852093994411436,231.106,0.8050000071525574,0.06175504220484385
231.362069,,0.005486752897303178,231.57,0.7680000066757202,-0.019982853667260547
231.827586,,0.005399601175895561,232.035,0.8109999895095825,0.07258149172758933
232.293103,,0.002497954714738741,232.5,0.7839999794960022,0.012685238026266085
232.758621,,0.002079385711950607,232.965,0.765999972820282,-0.027526080465288795
233.224138,,0.005222164095714906,233.43,0.9210000038146973,0.30927833657678083
233.689655,,0.004537936142692007,233.896,0.7960000038146973,0.036200584957344656
234.155172,,0.0007061703040732164,234.364,0.7870000004768372,0.016006795026856854
234.62069,,0.0031406042477422377,234.829,0.7559999823570251,-0.05194189502303847
235.086207,,0.004314626458221604,235.293,0.7820000052452087,0.004479826306129139
235.55172399999998,,0.0026792330221056,235.755,0.7599999904632568,-0.04347926770455261
236.01724099999998,,0.000301147722479797,236.223,0.765999972820282,-0.030240681636027424
236.482759,,0.00039182610039087813,236.685,0.7670000195503235,-0.027704431430192623
236.94827600000002,,0.0014836997707537234,237.152,0.765999972820282,-0.029345090031612578
237.413793,,0.00427014236429124,237.615,0.7860000133514404,0.014931265709886263
237.87931,,0.004858978968694848,238.08,0.7630000114440918,-0.0343296688612189
238.344828,,0.00179164126919257,238.552,0.7620000243186951,-0.0355412597213698
238.810345,,0.0027139137795147944,239.01,0.7649999856948853,-0.027948576703260765
239.27586200000002,,0.004843031088246807,239.475,0.7940000295639038,0.03634800167832606
239.741379,,0.0034104466095372264,239.941,0.8169999718666077,0.08759942220148728
240.206897,,0.0008995202745625536,240.408,0.7839999794960022,0.016839976506548265
240.672414,,2.71292334484751e-05,240.873,0.7639999985694885,-0.025639187843375107
241.137931,,0.0003082690723113199,241.345,0.7630000114440918,-0.026800806436784463
241.603448,,8.74807527749938e-05,241.803,0.7200000286102295,-0.11957464781046567
242.068966,,0.001494834318475775,242.267,0.7699999809265137,-0.009871627810735886
242.534483,,0.00210207204784073,242.736,0.7879999876022339,0.029955175615128258
243.0,,0.0008648166437395159,243.2,0.7879999876022339,0.030389517193282305
243.465517,,0.0008592721519426275,243.663,0.7620000243186951,-0.026011400522253397
243.93103399999998,,0.001092575971668205,244.129,0.7870000004768372,0.02849983666078871
244.39655199999999,,0.0004924341162993212,244.592,0.7680000066757202,-0.013050049436040101
244.862069,,0.002844137838772495,245.058,0.7900000214576721,0.03452839470896111
245.327586,,0.005134530820555193,245.522,0.7979999780654907,0.051419998440122315
245.793103,,0.0069865925282745,245.988,0.6660000085830688,-0.23687084260772795
246.258621,,0.007592719686842172,246.456,0.7559999823570251,-0.041655570088235366
246.724138,,0.005969386211002923,246.921,0.7910000085830688,0.033607500488175665
247.18965500000002,,0.0024686186006321535,247.386,0.7870000004768372,0.02380917765915644
247.655172,,0.0008043075002276917,247.845,0.7770000100135803,0.0008779132648840528
248.12069,,0.0018625019521729621,248.315,0.7910000085830688,0.03020742930334919
248.586207,,0.0010549560828031015,248.777,0.8519999980926514,0.16194349916783377
249.051724,,0.0008310048537329992,249.245,0.8579999804496765,0.1739016300791521
249.517241,,0.0030046355375724356,249.708,0.847000002861023,0.1489053235122414
249.982759,,0.006661218682037902,250.171,0.7839999794960022,0.010731180494122815
250.44827600000002,,0.0092070532123152,250.64,0.7870000004768372,0.016485066656708763
250.913793,,0.009094131772170371,251.106,0.5910000205039978,-0.41115642179725304
251.37931000000003,,0.006911775721179084,251.57,0.7990000247955322,0.04154774727622928
251.844828,,0.004151564460590628,252.035,0.7609999775886536,-0.04150704347482368
252.31034499999998,,0.0017828168145580172,252.5,0.765999972820282,-0.030679853077596464
252.77586200000002,,0.00018235181659474042,252.965,0.7839999794960022,0.008672189828282573
253.241379,,0.0003193819497406024,253.431,0.7879999876022339,0.01772293893246208
253.706897,,0.00027018789518182436,253.89,0.7580000162124634,-0.04711006319748545
254.172414,,0.0007032140848441891,254.356,0.7879999876022339,0.018950379366758807
254.63793099999998,,0.000949872902892188,254.822,0.7739999890327454,-0.01069521776014394
255.10344800000001,,0.004706915574622808,255.285,0.7860000133514404,0.016433687671337963
255.56896600000002,,0.007417456507625755,255.755,0.7900000214576721,0.026234070872443643
256.03448299999997,,0.005940358656458266,256.219,0.7620000243186951,-0.0336140354607094
256.5,,0.0015285360798991299,256.681,0.7820000052452087,0.011146246028134785
256.965517,,0.0009824506264394578,257.145,0.7839999794960022,0.01668882440790105
257.431034,,0.0010028356428948087,257.615,0.7620000243186951,-0.030093586842786083
257.896552,,0.0046971851409935185,258.081,0.7870000004768372,0.02544789494633715
258.362069,,0.005752368652634423,258.541,0.5989999771118164,-0.38317089269911925
258.827586,,0.0036372154651027827,259.007,0.6779999732971191,-0.21023264338555317
259.29310300000003,,0.0015600201146487272,259.474,0.7829999923706055,0.01918471115957302
259.758621,,0.0019585045254205125,259.94,0.7699999809265137,-0.008659070868487294
260.224138,,0.003863680071512486,260.404,0.7739999890327454,0.00034090070927493397
260.689655,,0.0047438355154033884,260.87,0.8569999933242798,0.181253573971453
261.155172,,0.003711849344224671,261.33,0.7850000262260437,0.024274098627541804
261.62068999999997,,0.0022840124042675424,261.8,0.7699999809265137,-0.008722499807787885
262.086207,,0.0022028870508439503,262.263,0.7990000247955322,0.05394925268237979
262.551724,,0.0030403729415192215,262.726,0.7850000262260437,0.022761745660361835
263.017241,,0.002566443268087803,263.194,0.7549999952316284,-0.043442132275968104
263.482759,,0.000355240123850141,263.656,0.7879999876022339,0.027474862859370577
263.94827599999996,,0.003952535879846093,264.122,0.7739999890327454,-0.004109656746665058
264.413793,,0.005316915881724752,264.585,0.765999972820282,-0.022695554952410064
264.87931,,0.003716618411895683,265.05,0.777999997138977,0.0022521514073029405
265.34482799999995,,0.0014858688162149244,265.517,0.5720000267028809,-0.4477532922540001
265.810345,,0.0015994562536570487,265.983,0.765999972820282,-0.026274854152236637
266.27586199999996,,0.004725660796086268,266.449,0.7870000004768372,0.018361057787443603
266.741379,,0.008590269739556126,266.915,0.9610000252723694,0.39643534370720207
267.206897,,0.009906335312900885,267.381,0.7910000085830688,0.025193584439001417
267.672414,,0.007106382926084167,267.84,0.7889999747276306,0.020127419235651343
268.137931,,0.001771056304581705,268.308,0.7839999794960022,0.008706002989075045
268.603448,,0.002462155785999996,268.77,0.7649999856948853,-0.03302043332445769
269.06896600000005,,0.0029412090620954774,269.238,0.7739999890327454,-0.013539042171869048
269.53448299999997,,0.0004668818738358383,269.701,0.7860000133514404,0.01268834106151317
270.0,,0.0015233496289365454,270.171,0.8029999732971191,0.05001766796598835
270.465517,,0.0007359034132296093,270.633,0.7850000262260437,0.011295501698435349
270.931034,,0.0012849648285994985,271.099,0.765999972820282,-0.029419593891716167
271.396552,,0.000980715149530198,271.562,0.7760000228881836,-0.006788485038326042
271.86206899999996,,0.002720994983651971,272.028,0.8500000238418579,0.15541773512976573
272.327586,,0.006604420833064991,272.495,0.7630000114440918,-0.03302478660451151
272.793103,,0.006487222281180652,272.96,0.7889999747276306,0.02479974669292268
273.258621,,0.0020496252127467692,273.427,0.7609999775886536,-0.03497927406553174
273.724138,,0.0024093970622989696,273.885,0.765999972820282,-0.02285642849685374
274.18965499999996,,0.0024212930035773044,274.352,0.7630000114440918,-0.02819333794065737
274.655172,,0.0017799737419857812,274.818,0.7720000147819519,-0.007452871513103896
275.12069,,0.005447451534332708,275.285,0.7699999809265137,-0.010777604745928537
275.586207,,0.0044919553217485616,275.748,0.777999997138977,0.007553594627978888
276.051724,,0.0001764799591912368,276.211,0.7979999780654907,0.051871395990375296
276.517241,,0.004019546084986423,276.681,0.765999972820282,-0.017279793770893268
276.98275900000004,,0.00400421056030792,277.145,0.7739999890327454,0.0005179404358417438
277.448276,,0.0012822606197416936,277.607,0.7699999809265137,-0.008036946480243182
277.913793,,0.0010258594154961193,278.073,0.777999997138977,0.00933828796611046
278.37931,,0.0012355633160722305,278.537,0.7990000247955322,0.05482415662077853
278.844828,,0.00013259441332342178,279.002,0.7480000257492065,-0.056757045380888015
279.31034500000004,,0.0016854086043195738,279.468,0.7609999775886536,-0.029096664115566995
279.77586199999996,,0.0023851389503125008,279.933,0.7839999794960022,0.020177868316854315
280.241379,,0.002093751253512865,280.4,0.765999972820282,-0.02001926812774519
280.706897,,0.001619970070989497,280.866,0.7860000133514404,0.022454556077171155
281.172414,,0.002008273787284892,281.326,0.7820000052452087,0.012555867895022412
281.637931,,0.003362809230500369,281.796,0.7599999904632568,-0.0366083023851643
282.10344799999996,,0.004524804384810128,282.259,0.7879999876022339,0.02314663340566758
282.568966,,0.00430518824848871,282.722,0.7620000243186951,-0.03472139194944039
283.034483,,0.0029514983728669716,283.185,0.7860000133514404,0.01640354886025121
283.5,,0.0018580081078037056,283.655,0.7879999876022339,0.01969408630170482
283.965517,,0.0016992706073477894,284.121,0.765999972820282,-0.02917486459434323
284.431034,,0.0014797516193815732,284.583,0.7960000038146973,0.03540215700518448
284.89655200000004,,0.00010495531418441973,285.049,0.7860000133514404,0.013013448287786108
285.362069,,0.002796630404792972,285.514,0.753000020980835,-0.05928604934814081
285.827586,,0.004923837954490855,285.98,0.7910000085830688,0.023308345591167918
286.293103,,0.005325509632217136,286.445,0.7850000262260437,0.01025894450869008
286.758621,,0.004393969074007383,286.911,0.7649999856948853,-0.03307514528229813
287.22413800000004,,0.0029790720993859896,287.371,0.7860000133514404,0.013124829412816022
287.689655,,0.0011336069891455026,287.837,0.7599999904632568,-0.042875617878036405
288.155172,,0.0013326434550170307,288.3,0.7839999794960022,0.010233598987862729
288.62069,,0.0038122384374693133,288.77,0.7940000295639038,0.03299542179162721
289.086207,,0.005390105239131,289.23,0.7680000066757202,-0.022549240067318004
289.55172400000004,,0.005792714419521233,289.7,0.7850000262260437,0.01568002775100993
290.01724099999996,,0.004990945816594544,290.163,0.777999997138977,0.0016780718333393478
290.482759,,0.0026692472837005006,290.625,0.7789999842643738,0.005124647087565419
290.948276,,0.0007857549054339567,291.091,0.7620000243186951,-0.0306633515639986
291.413793,,0.0034603123518963785,291.555,0.765999972820282,-0.02075685670350172
291.87931,,0.003470722920494282,292.021,0.7870000004768372,0.026094381152642412
292.344828,,0.0012842673589920119,292.485,0.7870000004768372,0.027069271444726296
292.81034500000004,,0.0005843015653807575,292.951,0.7620000243186951,-0.026576145870075136
293.275862,,0.00041783067785683306,293.416,0.765999972820282,-0.01722075273398501
293.74137900000005,,0.001013455954371388,293.882,0.7870000004768372,0.02897254263927228
294.206897,,0.001944536410298065,294.349,0.7549999952316284,-0.0405152896464994
294.672414,,0.0018115697922591392,294.815,0.7549999952316284,-0.04050705226120259
295.13793100000004,,0.0012263149195465145,295.278,0.7870000004768372,0.02899659571962578
295.603448,,0.0007036613071255024,295.74,0.7829999923706055,0.019854568054659478
296.068966,,0.0004589483961702936,296.208,0.7850000262260437,0.02358312983679754
296.534483,,0.0007559274942454027,296.67,0.7680000066757202,-0.014266061960012216
297.0,,0.0013962386225477663,297.137,0.7820000052452087,0.015263190316518339
297.46551700000003,,0.001362924906756351,297.602,0.7749999761581421,-0.0010901619730135327
297.931034,,0.00013000177891632687,298.068,0.7820000052452087,0.012959628167635812
298.396552,,0.002542845200502362,298.533,0.7839999794960022,0.016053846632461392
298.862069,,0.00458532263763957,298.999,0.7699999809265137,-0.015734901194381097
299.327586,,0.005625484295059242,299.463,0.765999972820282,-0.025723940718961478
299.79310300000003,,0.006036171163075101,299.929,0.7860000133514404,0.016626039415302322
300.258621,,0.00631059963684225,300.396,0.7910000085830688,0.0263849735122814
300.724138,,0.00631592650971888,300.855,0.7879999876022339,0.018838084212898874
301.189655,,0.0055664782221959645,301.323,0.7860000133514404,0.0136237684306569
301.65517200000005,,0.004036916192763938,301.785,0.7689999938011169,-0.02409108943220878
302.12069,,0.002455277373383071,302.256,0.753000020980835,-0.059428258145404075
302.586207,,0.001710403776018552,302.718,0.7820000052452087,0.0034869985402970387
303.05172400000004,,0.002152756038655006,303.182,0.7720000147819519,-0.018342676861898725
303.517241,,0.0035645994495813503,303.651,0.777999997138977,-0.005089586045153226
303.982759,,0.005356114038825655,304.11,0.7710000276565552,-0.019939358007716068
304.448276,,0.006417350930295677,304.58,0.7879999876022339,0.017706503010758073
304.913793,,0.00543828664977865,305.046,0.765999972820282,-0.02942428741794145
305.37931000000003,,0.002264934640184783,305.511,0.7799999713897705,0.0020432669163882554
305.844828,,0.0013629099417922393,305.977,0.7739999890327454,-0.00992365191877403
306.310345,,0.003329605665488425,306.442,0.7689999938011169,-0.019606217043163718
306.775862,,0.003473850051795016,306.9,0.8119999766349792,0.07535664675389314
307.241379,,0.003804483122604237,307.367,0.7689999938011169,-0.01701135846989907
307.70689699999997,,0.006083503137093147,307.833,0.7879999876022339,0.025690030763465082
308.172414,,0.009398846934555552,308.296,0.765999972820282,-0.020979700407157846
308.637931,,0.010628100859101734,308.766,0.9160000085830688,0.30699630344511303
309.103448,,0.0077388414770612505,309.23,0.7749999761581421,0.0008701245155808812
309.568966,,0.0024799977487887383,309.692,0.7620000243186951,-0.026539008622515816
310.034483,,0.0008185455936481395,310.156,0.7829999923706055,0.019944727383711412
310.5,,0.0006702342734257674,310.625,0.5440000295639038,-0.5002278335346148
310.96551700000003,,0.005722948373082427,311.091,0.7870000004768372,0.029480377106456793
311.431034,,0.01058449901502346,311.556,0.7599999904632568,-0.029279886307386264
311.896552,,0.012429531295986668,312.015,0.7710000276565552,-0.005483060189893552
312.362069,,0.010999893464191227,312.482,0.5830000042915344,-0.41546807679582637
312.827586,,0.007455315295538077,312.948,0.7829999923706055,0.019641064740144022
313.29310300000003,,0.0028520337249879086,313.415,0.7670000195503235,-0.016037355993098055
313.758621,,0.001614540047807336,313.88,0.7839999794960022,0.020008343462706222
314.224138,,0.003802982890709631,314.345,0.7860000133514404,0.023233624557711146
314.689655,,0.0017583688711422518,314.811,0.7649999856948853,-0.023756844109488327
315.155172,,0.00378601414019673,315.274,0.7820000052452087,0.011971690507197139
315.62068999999997,,0.009026899083626427,315.736,0.765999972820282,-0.024225711678353662
316.086207,,0.010273394355593036,316.2,0.7739999890327454,-0.008125624079994558
316.551724,,0.007479835823008347,316.67,0.796999990940094,0.040704431715054445
317.017241,,0.00398894154193505,317.136,0.7699999809265137,-0.019308737778155262
317.482759,,0.0027324799395516877,317.601,0.7839999794960022,0.010127454716574436
317.94827599999996,,0.003370322393710207,318.06,0.7829999923706055,0.007040668836562713
318.413793,,0.0034524403585485895,318.526,0.7609999775886536,-0.04161399894602685
318.87931000000003,,0.001607363565899642,318.992,0.7829999923706055,0.0057970766859533574
319.344828,,0.0012397925084774376,319.459,0.7879999876022339,0.01639225241941307
319.810345,,0.003470844641712118,319.925,0.7620000243186951,-0.04032041412752817
320.275862,,0.004620984104540656,320.391,0.7889999747276306,0.01866692990431774
320.741379,,0.005315886833434433,320.85,0.7870000004768372,0.014700884187311178
321.20689699999997,,0.0059576256151545395,321.321,0.8519999980926514,0.15692134551954917
321.672414,,0.006203783911840671,321.783,0.7720000147819519,-0.01656275972264704
322.137931,,0.005784952555084992,322.247,0.7670000195503235,-0.026475048903328538
322.603448,,0.005077996064642696,322.71,0.7760000228881836,-0.005744357834045189
323.068966,,0.004349804318258068,323.18,0.765999972820282,-0.026300147630620004
323.53448299999997,,0.003052465895793244,323.642,0.7870000004768372,0.02075332638320551
324.0,,0.0007732093569132062,324.108,0.7620000243186951,-0.032379263208248396
324.465517,,0.0013668749501879929,324.572,0.7820000052452087,0.01251869863634136
324.931034,,0.0013268691112691884,325.037,0.7599999904632568,-0.0341352145657832
325.396552,,0.0015100208177938662,325.504,0.7739999890327454,-0.0024449381222717555
325.86206899999996,,0.005306701792615351,325.969,0.7620000243186951,-0.02752252339538049
326.327586,,0.007619702949492251,326.435,0.7820000052452087,0.0169616862597383
326.793103,,0.007870663684961199,326.901,0.7620000243186951,-0.02588199351421524
327.258621,,0.0073723461173023285,327.36,0.7649999856948853,-0.018820972593472974
327.724138,,0.007215577999657509,327.825,0.7850000262260437,0.025057650334534883
328.189655,,0.007087272711269443,328.293,0.7860000133514404,0.02731405001243312
328.655172,,0.006358909931052379,328.756,0.7599999904632568,-0.029483089552568502
329.12068999999997,,0.0054059697966775426,329.226,0.7599999904632568,-0.02986147509328235
329.586207,,0.005105501313343566,329.689,0.7889999747276306,0.03272638996360373
330.051724,,0.005372223202897752,330.152,0.765999972820282,-0.018171331554825997
330.517241,,0.004950890354423843,330.615,0.7879999876022339,0.028798339214391275
330.982759,,0.002912381896181712,331.081,0.7609999775886536,-0.031128784846680357
331.44827599999996,,0.00010257469028737492,331.548,0.7620000243186951,-0.030163799205914985
331.913793,,0.0012572971504154103,332.014,0.7860000133514404,0.02083639684023529
332.37931,,0.0003086268382038998,332.481,0.7879999876022339,0.02387244628108241
332.844828,,0.003803963538586196,332.94,0.7870000004768372,0.020379091436850592
333.310345,,0.00647963960172402,333.411,0.7820000052452087,0.00821702062321569
333.77586199999996,,0.0064547501437026075,333.87,0.7870000004768372,0.017925305137697217
334.241379,,0.0043116916852884175,334.342,0.7689999938011169,-0.02235617935035525
334.706897,,0.001920830411649408,334.8,0.7990000247955322,0.04208863774280367
335.17241399999995,,0.00020863687749156089,335.27,0.7699999809265137,-0.021828379108909692
335.637931,,0.0013958751249545012,335.733,0.8009999990463257,0.04517431750819999
336.103448,,0.0035955211216166403,336.197,0.8510000109672546,0.1537893843514978
336.56896600000005,,0.005959357835077057,336.666,0.765999972820282,-0.031485144318143955
337.034483,,0.007251401042983104,337.132,0.7870000004768372,0.014405916225981748
337.5,,0.006850016300227406,337.595,0.7630000114440918,-0.037519473685295214
337.965517,,0.005572726991254771,338.061,0.8180000185966492,0.0828805038257813
338.431034,,0.0049245416389972685,338.526,0.7850000262260437,0.011754840600816671
338.89655200000004,,0.005633318502514995,338.992,0.7360000014305115,-0.09405835949449169
339.36206899999996,,0.0070641464874518925,339.456,0.7979999780654907,0.042099607242900974
339.827586,,0.007872367761865128,339.922,0.7990000247955322,0.04546995911147536
340.293103,,0.007070069443172484,340.382,0.7599999904632568,-0.038231455870566276
340.758621,,0.004771424664127494,340.847,0.7900000214576721,0.028429458494632187
341.224138,,0.0021629141247608927,341.315,0.7739999890327454,-0.005131252142257778
341.68965499999996,,0.0005295912340127568,341.778,0.7699999809265137,-0.012590781350915544
342.155172,,0.00013614893988396997,342.241,0.7910000085830688,0.0343357000399053
342.62069,,0.000249776855988239,342.711,0.765999972820282,-0.01907098216181572
343.086207,,0.0003119011702843354,343.171,0.7609999775886536,-0.029051982811872747
343.551724,,0.000684560072977409,343.64,0.7829999923706055,0.01961582333277196
344.01724099999996,,0.0019114318531745186,344.106,0.7580000162124634,-0.03430915365506514
344.48275900000004,,0.0035817756168661204,344.57,0.7739999890327454,0.000877991550762171
344.948276,,0.004498038781900128,345.036,0.7630000114440918,-0.022980207569235293
345.413793,,0.003896641370287322,345.5,0.7749999761581421,0.003045811281243432
345.87931,,0.002100715451576665,345.966,0.7039999961853027,-0.15197763562377473
346.344828,,0.00011146288593003574,346.426,0.765999972820282,-0.017453143417670923
346.81034500000004,,0.0011389526469332467,346.892,0.7910000085830688,0.036267673011234104
347.275862,,0.0013934024050831486,347.357,0.7870000004768372,0.026638683033708567
347.741379,,0.001210229317881671,347.823,0.7710000276565552,-0.009275015651717922
348.206897,,0.0013076634171252021,348.285,0.7919999957084656,0.035311907253709106
348.672414,,0.0017956983055814001,348.755,0.7599999904632568,-0.03564372011048855
349.13793100000004,,0.0023633649641776155,349.219,0.7649999856948853,-0.026026920703997307
349.60344799999996,,0.002906352566127782,349.681,0.7870000004768372,0.02062772178422264
350.068966,,0.0033731799095940546,350.145,0.7699999809265137,-0.01764541388091455
350.534483,,0.003309342482794257,350.615,0.7699999809265137,-0.01880510433133511
351.0,,0.0023079702590297416,351.08,0.9309999942779541,0.330911409268025
351.465517,,0.0007929603269088235,351.544,0.765999972820282,-0.029464201746516178
351.93103399999995,,0.0002935385671044713,352.01,0.7820000052452087,0.004666927788809755
352.396552,,0.0005685301597734179,352.475,0.7829999923706055,0.0063079681438694005
352.862069,,0.00040962423904308695,352.94,0.7710000276565552,-0.02016809025020958
353.32758600000005,,6.999646465231936e-05,353.4,0.7820000052452087,0.003678882465732342
353.793103,,0.000627918462417568,353.866,0.7620000243186951,-0.0397953343445628
354.258621,,0.0013542742525002576,354.334,0.7720000147819519,-0.01769728822706675
354.72413800000004,,0.0009473532630475745,354.795,0.8529999852180481,0.15928922381134866
355.189655,,0.0010020967939209768,355.263,0.7839999794960022,0.009668715125707718
355.655172,,0.0028501989025417197,355.726,0.7870000004768372,0.0170785976855945
356.12069,,0.0025580574013365854,356.197,0.7820000052452087,0.007198884437804523
356.586207,,0.000611412433525193,356.66,0.7870000004768372,0.019214475282011884
357.05172400000004,,0.0001735165212536408,357.126,0.777999997138977,0.0008038323789103649
357.517241,,0.0016728472836047377,357.588,0.7699999809265137,-0.015389748260674721
357.982759,,0.004071771952278875,358.054,0.777999997138977,0.0032762254045148537
358.448276,,0.0039612334910196535,358.519,0.7960000038146973,0.0436933416276747
358.913793,,0.0012043180004330054,358.984,0.7699999809265137,-0.011820887807436375
359.37931000000003,,0.0013957675655298797,359.449,0.8420000076293945,0.14606911570759945
359.844828,,0.001573557127105292,359.915,0.7820000052452087,0.016244616928607382
360.310345,,0.0002417119449446775,360.382,0.7950000166893005,0.045301829720087276
360.775862,,0.002182197514663271,360.84,0.777999997138977,0.008817325161618362
361.241379,,0.003094037122951019,361.311,0.7839999794960022,0.02224329335810697
361.706897,,0.003091012598177448,361.773,0.7369999885559082,-0.08000855818086
362.172414,,0.0028155635484142156,362.241,0.7620000243186951,-0.025611966290051837
362.63793100000004,,0.002640635186227426,362.703,0.7889999747276306,0.032930702302527
363.103448,,0.0022888763036343377,363.167,0.765999972820282,-0.01765987066114893
363.568966,,0.0010547614648007079,363.637,0.7820000052452087,0.01653110532577315
364.034483,,0.0013042363927665732,364.096,0.7409999966621399,-0.07362684761594943
364.5,,0.003719511509526044,364.566,0.7620000243186951,-0.02884961401309832
364.96551700000003,,0.004267326958633466,365.025,0.7620000243186951,-0.029935486710361475
365.431034,,0.0021668852160976666,365.49,0.7670000195503235,-0.0202060550882822
365.896552,,0.0006194259513254514,365.955,0.7870000004768372,0.022160957909262997
366.362069,,0.0006535835947156503,366.422,0.7870000004768372,0.020950136719061874
366.827586,,0.0034086909719801017,366.888,0.6449999809265137,-0.28959968636193384
367.29310300000003,,0.008932948748752266,367.352,0.46700000762939453,-0.6785247146854659
367.758621,,0.011727174956034899,367.818,0.8769999742507935,0.2136842666139557
368.224138,,0.010184950820480756,368.281,0.7699999809265137,-0.020338401945441203
368.689655,,0.006409375469032523,368.751,0.7829999923706055,0.007238241775898902
369.155172,,0.0034724225474108607,369.212,0.8040000200271606,0.05242691380035391
369.62068999999997,,0.0024731136432665783,369.682,0.765999972820282,-0.030724907143397404
370.086207,,0.0024134193009664154,370.145,0.7860000133514404,0.012695112264110079
370.55172400000004,,0.002032047687671877,370.607,0.7699999809265137,-0.022102457606801528
371.017241,,0.0011122419607770607,371.073,0.7870000004768372,0.015207196787662877
371.482759,,0.0003751195424794927,371.538,0.7839999794960022,0.009146916786749594
371.948276,,0.0006809022161867545,372.003,0.7689999938011169,-0.02286905054890808
372.413793,,0.0022231912613297636,372.471,0.7630000114440918,-0.03511063656878403
372.87931000000003,,0.004056694351252557,372.93,0.7739999890327454,-0.010174846547582881
373.344828,,0.004489246774445356,373.397,0.7630000114440918,-0.03305874721164345
373.810345,,0.0024230655404288096,373.862,0.7870000004768372,0.020387419038539287
374.275862,,0.0014891733014114957,374.326,0.7689999938011169,-0.017627509159334358
374.741379,,0.005084816867056134,374.796,0.7480000257492065,-0.062173572400715735
375.20689699999997,,0.00615465423343452,375.259,0.7850000262260437,0.019609382297277177
375.672414,,0.00404497410173607,375.722,0.7599999904632568,-0.033751806912360995
376.137931,,0.0003940850511550105,376.185,0.7839999794960022,0.019539659744148972
376.603448,,0.001764557152952016,376.655,0.7870000004768372,0.02694840155091259
377.068966,,0.00035580591327434585,377.121,0.7609999775886536,-0.028981239427717968
377.53448299999997,,0.003870629239557208,377.584,0.7910000085830688,0.03691425955470996
378.0,,0.008053558336845424,378.05,0.7639999985694885,-0.021568542331323267
378.465517,,0.009970049768588353,378.515,0.7599999904632568,-0.03014814611638051
378.931034,,0.009885341628538335,378.98,0.7770000100135803,0.00681417315954227
379.396552,,0.009559109456145373,379.445,0.7850000262260437,0.023962316779564483
379.862069,,0.009716061752818028,379.911,0.7599999904632568,-0.03098222263216337
380.327586,,0.009080333292570528,380.371,0.777999997138977,0.007572681560172615
380.79310300000003,,0.006316652947891984,380.836,0.7860000133514404,0.02417947979936105
381.258621,,0.002508116864083916,381.304,0.7649999856948853,-0.022530570426680198
381.724138,,0.000543808135318671,381.766,0.7710000276565552,-0.010523832604826781
382.189655,,0.001606488953891744,382.234,0.828000009059906,0.11252064869365429
382.655172,,0.0033930464055006377,382.697,0.7580000162124634,-0.04116066101725649
383.12068999999997,,0.0027633166865073584,383.16,0.7889999747276306,0.02519906327430505
383.586207,,0.0006781879779000249,383.63,0.7649999856948853,-0.028233921948732053
384.051724,,0.004627326165257578,384.096,0.7739999890327454,-0.009703923160354073
384.517241,,0.006935879831302572,384.559,0.7910000085830688,0.026355803893085915
384.982759,,0.007230873914130838,385.025,0.781000018119812,0.0037226851607842625
385.44827599999996,,0.006120851709811846,385.485,0.7910000085830688,0.024818877302673167
385.913793,,0.004217040241926597,385.951,0.7820000052452087,0.00469782920905175
386.37931,,0.0023445654974958187,386.416,0.7440000176429749,-0.07841254961448713
386.84482799999995,,0.001702138115248984,386.881,0.9399999976158142,0.34848383761521284
387.310345,,0.002854645615644834,387.346,0.7649999856948853,-0.03268924479980525
387.775862,,0.004776221451548847,387.811,0.7850000262260437,0.011177857917308565
388.241379,,0.005613509815100413,388.281,0.7820000052452087,0.005127116308703359
388.70689699999997,,0.004623012828569213,388.744,0.7480000257492065,-0.06828627479502981
389.172414,,0.003110301892848613,389.208,0.7889999747276306,0.02185296198063797
389.637931,,0.003103395852802804,389.67,0.7620000243186951,-0.03602657343367534
390.103448,,0.004842485805414304,390.136,0.8610000014305115,0.18070514444899646
390.56896600000005,,0.005872306955081608,390.601,0.7850000262260437,0.01624454912462497
391.03448299999997,,0.0034528901521600147,391.067,0.7620000243186951,-0.0327122364261591
391.5,,0.0018472214979726154,391.533,0.7889999747276306,0.02726169441032485
391.965517,,0.005864870209447542,391.999,0.7649999856948853,-0.023912007845288116
392.431034,,0.0050601040544160985,392.463,0.7649999856948853,-0.02286909008601276
392.896552,,0.0005505898795332495,392.929,0.7870000004768372,0.026001580108540288
393.36206899999996,,0.0031625571392763178,393.394,0.781000018119812,0.013739897589826317
393.827586,,0.0032444990601550113,393.859,0.7630000114440918,-0.024820213216515674
394.293103,,0.0009339267596115498,394.322,0.7850000262260437,0.0235912845526861
394.75862099999995,,0.0011366306611544734,394.785,0.7649999856948853,-0.0196889491520694
395.224138,,0.002232530034501611,395.253,0.765999972820282,-0.017414390869376448
395.68965499999996,,0.003099461921438041,395.715,0.8510000109672546,0.16766897295248018
396.155172,,0.0036121345998092937,396.185,0.765999972820282,-0.017810605328860578
396.62069,,0.0026982080554346925,396.648,0.7860000133514404,0.02528415689684142
397.086207,,0.0004965501379938817,397.114,0.7620000243186951,-0.02765183729663223
397.551724,,0.0009890686414253816,397.577,0.7820000052452087,0.015122700910099169
398.017241,,8.333918215034252e-05,398.042,0.7649999856948853,-0.022837946137321853
398.48275900000004,,0.0024739802137014864,398.507,0.7620000243186951,-0.030394282703041182
398.94827599999996,,0.004310384381996954,398.973,0.7870000004768372,0.022986014130334603
399.413793,,0.00403252191796127,399.438,0.7839999794960022,0.015332923116015683
399.87931,,0.002553060924524297,399.904,0.7739999890327454,-0.007567480823026634
400.344828,,0.0017287046686200898,400.371,0.7620000243186951,-0.0347886189807705
400.810345,,0.0020054472698725146,400.836,0.7580000162124634,-0.044512076387568704
401.27586199999996,,0.0019209528451157453,401.297,0.765999972820282,-0.027992846971188298
401.741379,,0.00014951899773251945,401.766,0.7620000243186951,-0.037490545127491406
402.206897,,0.0025254474045443955,402.229,0.8130000233650208,0.07298857045123476
402.672414,,0.004082360652215333,402.692,0.7839999794960022,0.009347081341882644
403.137931,,0.003915049487610068,403.16,0.8740000128746033,0.20515158087232427
403.60344799999996,,0.0035164200117513422,403.622,0.7710000276565552,-0.01932805124008273
404.068966,,0.004191764065377845,404.088,0.7860000133514404,0.01346784519533554
404.534483,,0.005175772257465563,404.556,0.7820000052452087,0.005058604782350038
405.0,,0.004761380061586906,405.021,0.7630000114440918,-0.035851510903259144
405.465517,,0.002447802631305884,405.486,0.7699999809265137,-0.01995419652130485
405.931034,,0.0008806599815385235,405.945,0.7820000052452087,0.006978811641255046
406.39655200000004,,0.004127806783099403,406.411,0.7620000243186951,-0.03568711254195583
406.862069,,0.006295545022252238,406.877,0.7820000052452087,0.008882388530954249
407.327586,,0.00623631044392147,407.344,0.7839999794960022,0.014295365700317773
407.793103,,0.0034373972163352817,407.81,0.7860000133514404,0.019735680808382703
408.258621,,0.0008200024490557538,408.27,0.7900000214576721,0.029527464584517056
408.72413800000004,,0.003925415023005481,408.74,0.7710000276565552,-0.010828509351126243
409.18965499999996,,0.003954786948693962,409.201,0.7599999904632568,-0.03382662214597478
409.655172,,0.0011226159081741737,409.67,0.7870000004768372,0.025863273533067888
410.12069,,0.0026158945251684293,410.137,0.7599999904632568,-0.032220454036461926
410.586207,,0.005161798365866969,410.601,0.8080000281333923,0.07294640858435643
411.05172400000004,,0.0056709657072749,411.06,0.7829999923706055,0.018906863336574008
411.51724099999996,,0.004767914886098807,411.526,0.7699999809265137,-0.009166364721280771
411.982759,,0.003589707443195224,411.992,0.7820000052452087,0.017041518202569973
412.448276,,0.0027127387845444985,412.459,0.7889999747276306,0.03216991406317191
412.913793,,0.0019353627454658652,412.925,0.7720000147819519,-0.005170649360958325
413.37931,,0.0007477273742016828,413.389,0.7860000133514404,0.024854986541762096
413.844828,,0.0011555706896398032,413.855,0.765999972820282,-0.01935039828223964
414.31034500000004,,0.003476263123595771,414.318,0.7820000052452087,0.014738578528197155
414.775862,,0.00519953640622387,414.781,0.7749999761581421,-0.0013945871660346074
415.241379,,0.00527715906088047,415.249,0.6779999732971191,-0.2136936041990262
415.706897,,0.0037798288473530842,415.711,0.7820000052452087,0.01185666610914234
416.172414,,0.002085848114527802,416.182,0.7820000052452087,0.010801944766335541
416.63793100000004,,0.0015278034305528652,416.644,0.7639999985694885,-0.029459755680921938
417.103448,,0.0019544943215451228,417.11,0.7900000214576721,0.02617983512057124
417.568966,,0.001958056524157763,417.573,0.765999972820282,-0.027041588765218803
418.034483,,0.0005294902398964889,418.038,0.8100000023841858,0.06798575501827842
418.5,,0.0018389534248495175,418.504,0.7870000004768372,0.017169970463576018
418.96551700000003,,0.0038239203490546604,418.969,0.765999972820282,-0.029141355547658423
419.43103399999995,,0.004613943030216868,419.433,0.7739999890327454,-0.012109027372254161
419.896552,,0.0042133884787999435,419.899,0.7680000066757202,-0.025403735798003518
420.362069,,0.0028350723414819635,420.364,0.7850000262260437,0.011590934612609911
420.827586,,0.0006714677919302358,420.83,0.7239999771118164,-0.12116876368519304
421.293103,,0.00175926542247703,421.293,0.7879999876022339,0.018577559434006505
421.758621,,0.0035391027936530896,421.756,0.7580000162124634,-0.046303895660797886
422.22413800000004,,0.0038871892808602948,422.226,0.7839999794960022,0.010969412177567977
422.689655,,0.0028627720087826387,422.688,0.7649999856948853,-0.029665576834867122
423.15517200000005,,0.0015785673804604161,423.156,0.7699999809265137,-0.017906030405009717
423.62069,,0.0014155121817399027,423.618,0.7889999747276306,0.024434858213576265
424.086207,,0.002621301505023294,424.084,0.7239999771118164,-0.11618020016964692
424.55172400000004,,0.003872925029932458,424.548,0.7860000133514404,0.019912211604567506
425.017241,,0.0036909449609394893,425.014,0.9269999861717224,0.3281092961097539
425.482759,,0.002093376111024952,425.481,0.7680000066757202,-0.01732417923817276
425.948276,,0.00038164461215345476,425.94,0.7620000243186951,-0.029493473221126363
426.413793,,0.0003732651661265199,426.411,0.7889999747276306,0.03013298469391535
426.87931000000003,,6.124560644033923e-05,426.87,0.7839999794960022,0.01991952355259023
427.344828,,0.000752858511113685,427.341,0.7879999876022339,0.029170364345705333
427.810345,,0.0010400532393283173,427.8,0.7670000195503235,-0.016205072786025024
428.275862,,0.00032451274491047336,428.27,0.7570000290870667,-0.037787652362108536
428.741379,,0.0034077181119372647,428.733,0.7990000247955322,0.05374140389053486
429.20689699999997,,0.006527381691430507,429.201,0.7910000085830688,0.03616076151259505
429.672414,,0.007468996883808583,429.663,0.7850000262260437,0.02276575911877195
430.137931,,0.005510802130677973,430.129,0.8159999847412109,0.0898194871171049
430.603448,,0.0020325434400304512,430.592,0.777999997138977,0.006400987535987467
431.068966,,0.0006690511929279498,431.057,0.7630000114440918,-0.02703554905682983
431.534483,,0.0010244191099400444,431.522,0.7620000243186951,-0.03007570001417709
432.0,,0.0008812622859955628,431.988,0.7839999794960022,0.01691512117015687
432.46551700000003,,0.00350346914916985,432.453,0.7789999842643738,0.005034544216831043
432.931034,,0.005020279299751412,432.918,0.7699999809265137,-0.015577988964314013
433.396552,,0.004766571863513559,433.386,0.75,-0.060142698570374735
433.862069,,0.0037127553166089755,433.851,0.7739999890327454,-0.008803826823138773
434.327586,,0.0033378972024264665,434.315,0.7580000162124634,-0.044538253216419736
434.79310300000003,,0.0039710036526178,434.777,0.7850000262260437,0.013509164330875588
435.258621,,0.004574980117026958,435.245,0.7910000085830688,0.025929576916723082
435.724138,,0.0042117451275322315,435.708,0.7670000195503235,-0.026864454066469718
436.189655,,0.003088014707542414,436.171,0.7860000133514404,0.014183406293221911
436.655172,,0.0017322392267925095,436.64,0.7990000247955322,0.042330414739765475
437.12068999999997,,0.00021006598620766816,437.106,0.7870000004768372,0.01618789784385244
437.586207,,0.0033708655202032336,437.57,0.7979999780654907,0.040330748123079636
438.051724,,0.006976297113056474,438.036,0.7699999809265137,-0.020323420529486713
438.517241,,0.008889321641982454,438.5,0.75,-0.06339045791671073
438.982759,,0.007828466264447444,438.965,0.765999972820282,-0.02788527753869109
439.448276,,0.0049318946710783865,439.43,0.7630000114440918,-0.03365345263242575
439.913793,,0.0026935206068300975,439.895,0.781000018119812,0.006427352216693817
440.37931000000003,,0.0026562407308535147,440.359,0.7900000214576721,0.02697160979438585
440.844828,,0.004190255574028558,440.825,0.7870000004768372,0.02141488123506587
441.310345,,0.005080691795667853,441.286,0.7879999876022339,0.02458533669764046
441.775862,,0.0034165814026598787,441.756,0.7850000262260437,0.019023072907006687
442.241379,,0.00040831627606118876,442.219,0.7620000243186951,-0.030161160706142817
442.70689699999997,,0.00353528110767539,442.681,0.7870000004768372,0.025151789909468498
443.172414,,0.003233837677192543,443.145,0.7730000019073486,-0.004606337593090314
443.637931,,7.519055033383345e-05,443.615,0.7770000100135803,0.004724571078488359
444.103448,,0.0030297475808910555,444.081,0.7940000295639038,0.0422325704107238
444.568966,,0.0030116298602118397,444.541,0.765999972820282,-0.01845839200220757
445.03448299999997,,0.0010900171921683077,445.007,0.7870000004768372,0.027435285568429345
445.5,,0.0005400924044412431,445.474,0.7850000262260437,0.02304670984479207
445.965517,,0.002742529486807576,445.94,0.7820000052452087,0.01630751000978393
446.431034,,0.0056862635542363725,446.404,0.7870000004768372,0.026832100424768142
446.896552,,0.006767496725333651,446.87,0.765999972820282,-0.019442345066859344
447.36206899999996,,0.00585881525101287,447.333,0.765999972820282,-0.020103541793914857
447.827586,,0.004733693890217173,447.796,0.7699999809265137,-0.012168248426217712
448.29310300000003,,0.004315373727283663,448.267,0.8050000071525574,0.06321218961518811
448.758621,,0.0038742089748201826,448.729,0.7839999794960022,0.016523279412082866
449.224138,,0.0028800059122451377,449.19,0.7739999890327454,-0.006236486366572801
449.689655,,0.0022433200907573015,449.66,0.7699999809265137,-0.015931131103929824
450.155172,,0.002875315946557497,450.125,0.7820000052452087,0.00925620158544307
450.62068999999997,,0.0038490511513570003,450.588,0.7620000243186951,-0.035220114318678275
451.086207,,0.0033042643801852924,451.054,0.7870000004768372,0.01842373045186005
451.551724,,0.0010351102256693945,451.519,0.7870000004768372,0.017708425767153955
452.017241,,0.0010940398028523848,451.985,0.7689999938011169,-0.022093332038719136
452.482759,,0.0014876831125195118,452.449,0.765999972820282,-0.029068807529105255
452.94827599999996,,0.0003846826863860513,452.915,0.7900000214576721,0.022939482894603357
453.413793,,0.0011677104758979764,453.381,0.7739999890327454,-0.012029196620532038
453.87931,,0.002477352751777777,453.84,0.7839999794960022,0.009819564306227213
454.344828,,0.0026060703818676953,454.307,0.8080000281333923,0.062340516120677154
454.810345,,4.9523546162811097e-05,454.77,0.777999997138977,-0.0026216441279226627
455.27586199999996,,0.00545554379059512,455.237,0.7770000100135803,-0.004251945164271983
455.741379,,0.011420716135558522,455.7,0.7649999856948853,-0.02971453170751005
456.206897,,0.014317817920924337,456.171,0.765999972820282,-0.026743437723782106
456.672414,,0.012798811651785558,456.633,0.7829999923706055,0.011172781554245993
457.137931,,0.008621570506081729,457.099,0.7699999809265137,-0.01621079134627783
457.603448,,0.004864870842425052,457.563,0.7860000133514404,0.019617295374332714
458.06896600000005,,0.0037635302081318197,458.029,0.7910000085830688,0.031481269628457605
458.53448299999997,,0.005494959091520456,458.497,0.796999990940094,0.04549547597592956
459.0,,0.008234181919464593,458.955,0.777999997138977,0.0049858540506844285
459.465517,,0.00974435096104788,459.427,0.7820000052452087,0.014499554944265037
459.931034,,0.009232503594287381,459.885,0.7789999842643738,0.00865199310651782
460.39655200000004,,0.0073333841284000225,460.352,0.7820000052452087,0.01574444832993144
460.86206899999996,,0.004741809144714607,460.818,0.7630000114440918,-0.02524290827057001
461.327586,,0.0019363508551263416,461.282,0.7749999761581421,0.0011452740924847366
461.793103,,7.984499352395904e-05,461.751,0.7850000262260437,0.02300662542148377
462.258621,,0.00019679970438786612,462.215,0.7590000033378601,-0.03373537905824602
462.724138,,0.0013887717380224348,462.677,0.7860000133514404,0.02482211837874157
463.18965499999996,,0.003098187498044642,463.148,0.7879999876022339,0.028753270602620923
463.655172,,0.0035146433671088932,463.611,0.7649999856948853,-0.0219282985853074
464.12069,,0.00238102344331597,464.076,0.7870000004768372,0.02530031111711266
464.58620699999994,,0.000125693526017311,464.537,0.7639999985694885,-0.025617560032430698
465.051724,,0.0027189760383397373,465.003,0.7910000085830688,0.032315088506056064
465.517241,,0.005345182386754939,465.468,0.753000020980835,-0.051418816785693516
465.98275900000004,,0.006687246263029016,465.933,0.8550000190734863,0.16983419018379817
466.448276,,0.006292564298460618,466.4,0.7620000243186951,-0.033741851319064486
466.913793,,0.005001400508511647,466.866,0.7860000133514404,0.017620264242554175
467.37931,,0.0041924879474804395,467.33,0.781000018119812,0.00586553073761745
467.844828,,0.00412405803245472,467.793,0.7789999842643738,0.0007374778458195814
468.31034500000004,,0.003440312030812828,468.256,0.7919999957084656,0.02840396929853247
468.77586199999996,,0.00099590164487169,468.726,0.7620000243186951,-0.03747658136762733
469.241379,,0.0019094650736135928,469.186,0.7739999890327454,-0.011703765688994724
469.706897,,0.002149172876675123,469.655,0.7820000052452087,0.0055162484950649964
470.172414,,0.0017095413399869784,470.121,0.7850000262260437,0.012011699671832835
470.63793100000004,,0.007039584052436844,470.584,0.7620000243186951,-0.03796809105247411
471.10344799999996,,0.00913519898191494,471.05,0.7820000052452087,0.005899187930567149
471.568966,,0.005739664057378298,471.515,0.7020000219345093,-0.16794353119442018
472.034483,,0.0006076730943768323,471.981,0.7879999876022339,0.020009344325013455
472.5,,0.004894782070134681,472.44,0.765999972820282,-0.027208775552984392
472.965517,,0.004327057792177798,472.906,0.7979999780654907,0.04332273846260681
473.43103399999995,,0.0005757400452415389,473.371,0.7870000004768372,0.020250373897124918
473.89655200000004,,0.0025994339132296906,473.837,0.7329999804496765,-0.09645437041063912
474.362069,,0.0033379322884318262,474.3,0.7860000133514404,0.019975774232772747
474.827586,,0.002693384787801568,474.77,0.8450000286102295,0.14946948549831213
475.293103,,0.0021936550614836824,475.233,0.7639999985694885,-0.026083856095835942
475.758621,,0.0017108494724065323,475.696,0.7990000247955322,0.05102048164284373
476.22413800000004,,0.00026961672155409385,476.164,0.7889999747276306,0.02999284473276817
476.689655,,0.0018670186044097673,476.626,0.7820000052452087,0.015385265182634379
477.155172,,0.002858463192148159,477.091,0.765999972820282,-0.018967179220010535
477.62069,,0.001134908352727344,477.555,0.7699999809265137,-0.009899939618533362
478.086207,,0.002677956715713686,478.021,0.8029999732971191,0.06218407551720946
478.55172400000004,,0.005885332367903185,478.485,0.765999972820282,-0.0184067614980364
479.01724099999996,,0.006033867684763154,478.951,0.7870000004768372,0.027193537024970196
479.482759,,0.0031847800324140757,479.416,0.7829999923706055,0.018161460013698658
479.948276,,0.00029687499752674776,479.881,0.765999972820282,-0.019349577640469472
480.413793,,0.0020960860942274046,480.346,0.7689999938011169,-0.01343018339737258
480.87931000000003,,0.001743041179815871,480.812,0.7850000262260437,0.02068809268671753
481.344828,,0.00036112150636718814,481.282,0.781000018119812,0.011133124660575797
481.810345,,0.0006481491591627708,481.744,0.781000018119812,0.010218713882598825
482.275862,,0.0006742431691830539,482.207,0.7870000004768372,0.02233042442313221
482.74137900000005,,0.0003392727986300724,482.67,0.8899999856948853,0.24575725343555627
483.206897,,0.0010911949115493167,483.136,0.7820000052452087,0.009507363790928997
483.672414,,0.0037757416283022796,483.602,0.781000018119812,0.006418462392977307
484.13793100000004,,0.007107539133809166,484.067,0.7490000128746033,-0.06413768726230618
484.603448,,0.008067202186910816,484.533,0.7480000257492065,-0.06706008670708576
485.068966,,0.00489510905263481,484.999,0.765999972820282,-0.02846996649050277
485.534483,,0.0003513727741816725,485.463,0.777999997138977,-0.002812878708210574
486.0,,0.0035096053098263,485.929,0.7699999809265137,-0.02057425525093953
486.46551700000003,,0.002873555662028524,486.393,0.8899999856948853,0.2406988390149987
486.931034,,0.0007665847651175744,486.859,0.7839999794960022,0.009772208854710718
487.396552,,0.00016313290675755904,487.327,0.7860000133514404,0.014312975047676727
487.862069,,0.0012151398690390535,487.79,0.8140000104904175,0.07566478501454532
488.327586,,0.0021290164611150746,488.252,0.7860000133514404,0.015168327779811256
488.79310300000003,,0.0024007354558087672,488.722,0.7979999780654907,0.04195794852973804
489.258621,,0.0035521554932095574,489.185,0.765999972820282,-0.026993363304334224
489.724138,,0.006530218356357665,489.648,0.7829999923706055,0.010904447931533827
490.189655,,0.009590761302905168,490.113,0.7860000133514404,0.01836992608630128
490.655172,,0.009690699173161106,490.576,0.7720000147819519,-0.01116147275819615
491.12069,,0.005830705471071775,491.042,0.7889999747276306,0.02685525382780021
491.586207,,0.00046439478560593884,491.507,0.7639999985694885,-0.026651427913694934
492.05172400000004,,0.0026734393638420876,491.973,0.7910000085830688,0.03308158181013802
492.517241,,0.002153858373781035,492.438,0.7820000052452087,0.014305426986115054
492.982759,,0.00014286291451501805,492.904,0.7620000243186951,-0.028539491067696425
493.448276,,4.3012930439584036e-05,493.37,0.781000018119812,0.01345612441998233
493.913793,,0.00253699370643711,493.836,0.7689999938011169,-0.012231618146671817
494.37931000000003,,0.005674657963542664,494.297,0.7680000066757202,-0.014113518842715398
494.844828,,0.0064341636559525316,494.767,0.7889999747276306,0.03176637557770523
495.310345,,0.0038154786481185005,495.23,0.48899999260902405,-0.6218771757297311
495.775862,,0.0006424640592007608,495.692,0.7829999923706055,0.01841611472146118
496.241379,,0.004186605507357833,496.16,0.7730000019073486,-0.0037679343220608443
496.70689699999997,,0.0049716879204193725,496.622,0.7620000243186951,-0.028280776562234263
497.172414,,0.003554282879813765,497.088,0.7889999747276306,0.02986215582392021
497.637931,,0.002255600988631312,497.555,0.7870000004768372,0.024714029239166106
498.103448,,0.0026346926368713804,498.021,0.7099999785423279,-0.143919391504721
498.568966,,0.003720167893928876,498.486,0.7639999985694885,-0.02721056189807279
499.03448299999997,,0.0031151311658946575,498.952,0.7820000052452087,0.01103625502387452
499.5,,0.0001770625092394142,499.411,0.7820000052452087,0.01006868954339357
499.96551700000003,,0.004262674732137875,499.876,0.765999972820282,-0.025725888268615837
500.431034,,0.005819119614687891,500.342,0.765999972820282,-0.02660216586883784
500.89655200000004,,0.0032515606707813065,500.807,0.781000018119812,0.0052882506598780155
501.362069,,0.0014344989987984654,501.271,0.7870000004768372,0.017682458266023274
501.827586,,0.004191827759754131,501.741,0.843999981880188,0.14132178022520303
502.293103,,0.002799527843466878,502.204,0.7860000133514404,0.014568077039174862
502.758621,,0.0009575158826511411,502.666,0.7689999938011169,-0.02269950432730361
503.224138,,0.003383569249741728,503.132,0.6830000281333923,-0.21012908008431777
503.68965499999996,,0.002902735130933121,503.596,0.7870000004768372,0.016548970484507413
504.15517200000005,,0.0013713096813296657,504.062,0.7889999747276306,0.021167820906857083
504.62068999999997,,0.0014420807116118325,504.527,0.7699999809265137,-0.019808928831266087
505.08620699999994,,0.003358367163712871,504.992,0.7929999828338623,0.030859762477210416
505.55172400000004,,0.004787317999025083,505.459,0.765999972820282,-0.0272797655264297
506.017241,,0.003529044474958011,505.925,0.7850000262260437,0.01490103785160369
506.48275899999993,,0.00018872442034507784,506.39,0.7870000004768372,0.02012238492078508
506.948276,,0.0041787041870170434,506.856,0.7559999823570251,-0.046501223572439146
507.413793,,0.006358718688922011,507.319,0.7850000262260437,0.017615507614246254
507.87931,,0.0059268132228472836,507.781,0.7680000066757202,-0.01849349474225971
508.344828,,0.0032805177167725724,508.245,0.5419999957084656,-0.5099810193611908
508.810345,,0.00019873888860133315,508.714,0.7870000004768372,0.024602952982922182
509.27586199999996,,0.002561638170310716,509.175,0.7739999890327454,-0.002996957257556447
509.74137900000005,,0.002634258920500288,509.644,0.7789999842643738,0.008509037410745136
510.20689699999997,,0.0013268687421504957,510.11,0.7720000147819519,-0.006256834906175672
510.67241399999995,,0.0009400331998101015,510.573,0.7839999794960022,0.020229223078185317
511.13793100000004,,0.0025890193714747786,511.039,0.7699999809265137,-0.01008147485237152
511.603448,,0.004557880301459814,511.504,0.7850000262260437,0.0226317136278925
512.0689659999999,,0.0038366449119662826,511.969,0.7739999890327454,-0.0014573448307750566
512.534483,,0.00048714202914413045,512.434,0.7860000133514404,0.02441012335769471
513.0,,0.005784630893348014,512.899,0.7680000066757202,-0.015225403436615862
513.465517,,0.00830863354698262,513.364,0.7710000276565552,-0.009239563730073121
513.931034,,0.006851732137484615,513.83,0.7829999923706055,0.016241104607933578
514.396552,,0.0033884679836068887,514.292,0.765999972820282,-0.021550920069473345
514.862069,,0.0003292125439592323,514.755,0.7910000085830688,0.03209211327202724
515.327586,,0.0016977437496994746,515.224,0.7649999856948853,-0.025418807117098322
515.793103,,0.0030022879132202297,515.687,0.7820000052452087,0.010736042129243034
516.258621,,0.0031291789243102553,516.156,0.7620000243186951,-0.033708566332089476
516.724138,,0.0013042269759803158,516.618,0.7760000228881836,-0.0040421649838772705
517.189655,,0.0018815605648301497,517.084,0.7990000247955322,0.04529498289745836
517.655172,,0.004514238454336248,517.549,0.75,-0.06214428240195757
518.1206900000001,,0.005184573086489221,518.014,0.7630000114440918,-0.03440145603541646
518.5862070000001,,0.003939137054317141,518.479,0.7649999856948853,-0.03050126394212521
519.051724,,0.0015265118332276498,518.944,0.7919999957084656,0.028002073298149507
519.517241,,0.001226324005425199,519.411,0.7739999890327454,-0.011387104883702474
519.982759,,0.0032788811795653283,519.87,0.7879999876022339,0.019091984243424197
520.448276,,0.003950549781420008,520.342,0.7649999856948853,-0.030887730130755086
520.9137929999999,,0.004044953970506089,520.8,0.7620000243186951,-0.03714845547740045
521.37931,,0.005161212903251816,521.27,0.7739999890327454,-0.010593083665158794
521.844828,,0.0072347573317704155,521.733,0.8510000109672546,0.15769976909439548
522.310345,,0.007975335353145697,522.196,0.7620000243186951,-0.03555357156750593
522.7758620000001,,0.005730736680060357,522.667,0.7820000052452087,0.008753526969171178
523.241379,,0.0018765005197131182,523.125,0.7680000066757202,-0.020949802282914567
523.7068969999999,,0.0008465512964394755,523.595,0.7879999876022339,0.02345992471687972
524.172414,,0.0015934362893850718,524.061,0.7649999856948853,-0.025799019153554828
524.637931,,0.001762737601481859,524.526,0.7749999761581421,-0.003175797643512747
525.103448,,0.0026064950282796828,524.985,0.7739999890327454,-0.0045565973600156275
525.568966,,0.0037187816589479266,525.452,0.7829999923706055,0.01578618201359875
526.034483,,0.003929749699189462,525.918,0.7879999876022339,0.027329632090314984
526.5,,0.0030193080111936845,526.382,0.7649999856948853,-0.022233416677530253
526.9655170000001,,0.0021765259681682204,526.848,0.7720000147819519,-0.0065581324375490555
527.4310340000001,,0.002608901860511012,527.311,0.7699999809265137,-0.010624689093974276
527.8965519999999,,0.003872697284393621,527.781,0.7990000247955322,0.05270552533453277
528.362069,,0.004191655108151756,528.245,0.6119999885559082,-0.354700517672939
528.827586,,0.00255748859176842,528.707,0.7850000262260437,0.022057017876307955
529.293103,,0.00011304673716553538,529.171,0.7839999794960022,0.019587562380299527
529.7586210000001,,0.0020729109594174993,529.64,0.765999972820282,-0.020047910668572456
530.224138,,0.0023982617532654297,530.106,0.7789999842643738,0.0077390740273406014
530.689655,,0.001446308253216732,530.57,0.7910000085830688,0.03324937233486207
531.155172,,0.00027513917263082823,531.036,0.781000018119812,0.010751948323187006
531.62069,,0.00020712663548577503,531.5,0.7770000100135803,0.001271119950933046
532.086207,,5.9280605019112855e-05,531.966,0.8489999771118164,0.15733721947367324
532.5517239999999,,0.00029004947548066495,532.426,0.7870000004768372,0.021460151561665107
533.017241,,0.0002188311558169772,532.892,0.765999972820282,-0.02507357761090656
533.482759,,0.001232191507522507,533.356,0.8059999942779541,0.06133173220962643
533.9482760000001,,0.0018598299188345394,533.822,0.7870000004768372,0.019261031126537476
534.413793,,0.0014710162512141642,534.285,0.7990000247955322,0.044813186913613155
534.87931,,4.358195246002878e-05,534.755,0.7609999775886536,-0.03846585906923246
535.344828,,0.0019595867284746275,535.216,0.7149999737739563,-0.13906053022285053
535.810345,,0.0035219891449938005,535.686,0.7829999923706055,0.008833778797468423
536.275862,,0.0033599150849458036,536.148,0.7689999938011169,-0.02178998543664771
536.7413789999999,,0.0011808900758776908,536.611,0.7910000085830688,0.026152873589593725
537.206897,,0.0013537855830304897,537.076,0.46299999952316284,-0.6883031552468548
537.672414,,0.001623464501289292,537.542,0.765999972820282,-0.027914322239722483
538.137931,,0.001580401823100864,538.008,0.781000018119812,0.005138211856162021
538.6034480000001,,0.006587493175929594,538.475,0.7839999794960022,0.012156140712070065
539.0689659999999,,0.009854837314672888,538.941,0.7609999775886536,-0.03737610529915046
539.5344829999999,,0.008928109761189452,539.401,0.7839999794960022,0.0133862328508066
540.0,,0.004757305154241573,539.866,0.7889999747276306,0.024990281636825082
540.465517,,0.0007055627468239515,540.334,0.7649999856948853,-0.026550416803914168
540.931034,,0.000982722795260029,540.796,0.7739999890327454,-0.006182897600821081
541.396552,,0.0010643630236759176,541.267,0.765999972820282,-0.02286286092841554
541.862069,,0.0013016929526036638,541.729,0.7950000166893005,0.041034744546336335
542.327586,,0.0017033821763864276,542.193,0.7749999761581421,-0.0018752470287571397
542.7931030000001,,0.0009427527561202151,542.655,0.7860000133514404,0.022679510038687612
543.258621,,0.001115062442850611,543.121,0.7680000066757202,-0.01603821973558076
543.7241379999999,,0.0028555319696124677,543.591,0.7950000166893005,0.043176836794331264
544.189655,,0.003014195529758529,544.05,0.746999979019165,-0.06112530890025321
544.655172,,0.0021234460005481134,544.522,0.7870000004768372,0.02616673216370615
545.12069,,0.001383226627909901,544.98,0.7850000262260437,0.021824731968396772
545.5862070000001,,0.0009118098354384032,545.445,0.7910000085830688,0.0347815162782951
546.051724,,0.0001327592305539409,545.911,0.765999972820282,-0.019926866270890582
546.517241,,0.0019505620327177021,546.375,0.7789999842643738,0.008033353346463577
546.982759,,0.003457203191847647,546.84,0.7950000166893005,0.042420741638276326
547.448276,,0.003677678994485571,547.311,0.7820000052452087,0.013533276226182233
547.9137929999999,,0.0032435029140472074,547.773,0.7820000052452087,0.012891255011479046
548.3793099999999,,0.003662955423909109,548.241,0.7789999842643738,0.005655309850124892
548.844828,,0.005271724108255185,548.703,0.765999972820282,-0.02340427669815104
549.310345,,0.006896376470015933,549.171,0.7689999938011169,-0.01762083225850444
549.775862,,0.007671758050509983,549.633,0.7910000085830688,0.02956448600195721
550.241379,,0.008045828298184258,550.099,0.7609999775886536,-0.03650971569856139
550.706897,,0.00834400102939831,550.562,0.7699999809265137,-0.01756517595284114
551.172414,,0.007388505329665684,551.028,0.7089999914169312,-0.15105607481124653
551.637931,,0.003897206638016375,551.492,1.0049999952316284,0.49332214134266394
552.103448,,0.0010016172531974075,551.958,0.7680000066757202,-0.023407699775830387
552.568966,,0.004061655534796303,552.423,0.8450000286102295,0.14407996358967018
553.034483,,0.0032684672586951887,552.888,0.7839999794960022,0.01104052060187646
553.5,,9.564980958596934e-05,553.352,0.7860000133514404,0.01538582575996338
553.965517,,0.0022441704900511587,553.818,0.7990000247955322,0.043824958148565726
554.4310340000001,,0.0023213448937315904,554.285,0.7839999794960022,0.011386788317529374
554.896552,,0.0014527958046000077,554.748,0.7699999809265137,-0.018755931811750327
555.3620689999999,,0.0013404481270447293,555.215,0.7689999938011169,-0.020471497079364537
555.827586,,0.0019225831913192346,555.678,0.7789999842643738,0.001868354000903604
556.293103,,0.002137606034919537,556.148,0.7870000004768372,0.019924914495229342
556.758621,,0.0018044791121959631,556.611,0.7580000162124634,-0.04257366464709236
557.224138,,0.0015924849599274538,557.076,0.7710000276565552,-0.013535363073907845
557.689655,,0.0015811475289489393,557.541,0.7710000276565552,-0.012807428645596723
558.155172,,0.0010108873052370796,558.007,0.7879999876022339,0.02494839361699529
558.6206900000001,,0.0005869546335018459,558.467,0.7950000166893005,0.04088821904025495
559.0862070000001,,0.002847750175159214,558.932,0.7870000004768372,0.024098571113409233
559.5517239999999,,0.005102335177092771,559.397,0.7860000133514404,0.022490823181453398
560.017241,,0.0067728351833006226,559.862,0.7720000147819519,-0.0075253389604786735
560.482759,,0.007386768006157518,560.33,0.7820000052452087,0.014645571306460083
560.948276,,0.006927116711562891,560.793,0.7820000052452087,0.01491850112740975
561.413793,,0.006151789138727398,561.256,0.7710000276565552,-0.008892963817175165
561.87931,,0.005897105736297945,561.726,0.7950000166893005,0.04342476442681881
562.344828,,0.005988800532202587,562.189,0.7839999794960022,0.01936623875986619
562.8103450000001,,0.005464803100235243,562.651,0.7599999904632568,-0.03313534192024491
563.275862,,0.004025417235626474,563.117,0.7900000214576721,0.031895666560896964
563.7413789999999,,0.002641493491891143,563.58,0.7839999794960022,0.018391340963685488
564.206897,,0.002430485916129314,564.045,0.7620000243186951,-0.030061852416581075
564.672414,,0.0033914939741021928,564.512,0.7820000052452087,0.01291272092166975
565.137931,,0.004530502403348136,564.977,0.765999972820282,-0.02260135408560781
565.603448,,0.004889812875361533,565.442,0.7699999809265137,-0.014580009723862593
566.068966,,0.004178248165504169,565.907,0.7870000004768372,0.021747135603462902
566.534483,,0.0025444665171053303,566.374,0.7710000276565552,-0.013816114306577355
567.0,,1.281113126566397e-05,566.84,0.7860000133514404,0.0181847355943113
567.465517,,0.0035209746324967677,567.3,0.777999997138977,0.0001230319501019741
567.931034,,0.007444637827999012,567.77,0.7599999904632568,-0.03966035754816216
568.396552,,0.009960113443496352,568.23,0.7950000166893005,0.03610612537603575
568.862069,,0.009432714265683711,568.699,0.753000020980835,-0.05578754761812402
569.327586,,0.006408637785804698,569.16,0.7620000243186951,-0.03646356707716805
569.793103,,0.0033205739477308515,569.63,0.7910000085830688,0.026548216593935383
570.2586210000001,,0.0017533002092464302,570.096,0.8140000104904175,0.07660947567870213
570.724138,,0.0009180573377431692,570.559,0.7919999957084656,0.028754932371247828
571.189655,,0.0006305025029889498,571.025,0.7850000262260437,0.013700532757280242
571.655172,,0.0027393418030015717,571.485,0.7680000066757202,-0.02302740011014286
572.12069,,0.004008494207452923,571.951,0.7870000004768372,0.018779106970659466
572.586207,,0.0037792598680022934,572.416,0.7839999794960022,0.01274600731812578
573.051724,,0.0027848218713941624,572.881,0.7739999890327454,-0.008462148321190653
573.517241,,0.0020196527784392734,573.349,0.7599999904632568,-0.03832774173072175
573.982759,,0.0017499921739540846,573.814,0.8119999766349792,0.07563572494267357
574.4482760000001,,0.0015803705781215318,574.282,0.8460000157356262,0.15040390602171072
574.913793,,0.0008885083363058717,574.744,0.7850000262260437,0.018200853805783943
575.37931,,0.0007071433602230654,575.207,0.765999972820282,-0.022521485549108003
575.844828,,0.0027476624373400688,575.67,0.7820000052452087,0.012964897333194472
576.310345,,0.003894804935368633,576.137,0.765999972820282,-0.021328699961577994
576.775862,,0.0030463162075800416,576.602,0.7870000004768372,0.024908038115503982
577.241379,,0.000568239548417766,577.067,0.7609999775886536,-0.031346044830833496
577.706897,,0.0018691527957049414,577.535,0.7329999804496765,-0.09206415315749358
578.172414,,0.002716711679924731,578.001,0.7860000133514404,0.023572879242167107
578.6379310000001,,0.0017177290609365686,578.46,0.7480000257492065,-0.059166605221276904
579.1034480000001,,0.0001992652224382028,578.926,0.6620000004768372,-0.24660373882158093
579.5689659999999,,0.001917965344524818,579.394,0.6600000262260437,-0.25115777843481135
580.034483,,0.002847902186805831,579.859,0.7850000262260437,0.02086040339634179
580.5,,0.0027842771421654785,580.322,0.7990000247955322,0.0509476054438122
580.965517,,0.0016370700025214705,580.785,0.7870000004768372,0.024304987948530667
581.431034,,0.0001734058076689261,581.252,0.7870000004768372,0.02373695155958354
581.896552,,0.0013602896347196963,581.722,0.7689999938011169,-0.016098863442186223
582.362069,,0.0006181399770614374,582.185,0.7680000066757202,-0.018931210371828475
582.827586,,0.0021042360680351016,582.648,0.7839999794960022,0.015259725399735732
583.2931030000001,,0.005728933632375297,583.114,0.7829999923706055,0.012420877928116998
583.758621,,0.009164152192364529,583.576,0.7699999809265137,-0.016534748035089208
584.2241379999999,,0.011427236513522848,584.042,0.7789999842643738,0.002485558370940816
584.689655,,0.011157180038059695,584.507,0.6570000052452087,-0.2638363585440252
585.155172,,0.007645494583389862,584.973,0.7680000066757202,-0.022459128233985316
585.6206900000001,,0.002513599353895429,585.438,0.7870000004768372,0.01857171129950159
586.0862070000001,,0.0012162245876596732,585.904,0.7360000014305115,-0.09280121929994121
586.551724,,0.0022109442400885526,586.37,0.7599999904632568,-0.040667597794568716
587.017241,,0.0017190514908371694,586.836,0.7630000114440918,-0.03417362041601172
587.482759,,0.0011299097287081306,587.297,0.7760000228881836,-0.005779806321608646
587.948276,,0.00030984960454559317,587.767,0.7870000004768372,0.01836794879934319
588.4137929999999,,0.0008705592155336928,588.23,0.765999972820282,-0.027095688520615512
588.87931,,0.0010338413706078588,588.692,0.7879999876022339,0.021218539912550963
589.344828,,0.0010286262930471707,589.156,0.7649999856948853,-0.028422875530337885
589.810345,,0.003949164977469536,589.625,0.7739999890327454,-0.00827891070645106
590.2758620000001,,0.00480315689151737,590.091,0.7620000243186951,-0.03383497582682257
590.741379,,0.002589203897709658,590.556,0.7950000166893005,0.03868174432725233
591.2068969999999,,0.0005447934147152657,591.021,0.7789999842643738,0.0044598402100550875
591.672414,,0.0017654746261733536,591.486,0.6660000085830688,-0.24109726826764774
592.137931,,0.0003506891537789409,591.952,0.8510000109672546,0.16255647516710411
592.603448,,0.0021770906444727395,592.411,0.7850000262260437,0.019328111893678914
593.068966,,0.003944919730241949,592.877,0.7599999904632568,-0.03463323970343825
593.534483,,0.004261048299681082,593.342,0.7699999809265137,-0.012416331235365726
594.0,,0.0035238317820419918,593.807,0.7870000004768372,0.024964202250921035
594.4655170000001,,0.0022757753031268967,594.27,0.7699999809265137,-0.011825868346113209
594.9310340000001,,0.0009447133023825556,594.74,0.7730000019073486,-0.0051465587532966
595.3965519999999,,0.00034547250225964684,595.204,0.7850000262260437,0.02103313001162012
595.862069,,0.0014207137910724336,595.666,0.765999972820282,-0.020433309240372597
596.327586,,0.0038698752515652574,596.132,0.7490000128746033,-0.05764811539277438
596.793103,,0.005625785411213423,596.596,0.7680000066757202,-0.016532165136543785
597.2586210000001,,0.004617357569684961,597.062,0.7609999775886536,-0.032152350251270716
597.724138,,0.001223694557548416,597.526,0.7900000214576721,0.030580226294263494
598.189655,,0.0015691693827694715,597.992,0.765999972820282,-0.02221993533653216
598.655172,,0.0009281845145356881,598.457,0.7870000004768372,0.022971196354484313
599.12069,,0.002995261670979711,598.923,0.7870000004768372,0.02238024245665454
599.586207,,0.007181299398545181,599.389,0.7820000052452087,0.010884124153584373
600.0517239999999,,0.00844722795635122,599.855,0.7820000052452087,0.01028751785840895
600.517241,,0.0058983841883903715,600.315,0.7860000133514404,0.01842985279979348
600.982759,,0.001261569901059226,600.785,0.765999972820282,-0.0256741954857253
601.448276,,0.0025998328655766167,601.248,0.7450000047683716,-0.07190066174239014
601.913793,,0.003758252416492154,601.711,0.7710000276565552,-0.01566117562572397
602.37931,,0.002549634990618745,602.178,0.765999972820282,-0.02687813640054691
602.844828,,0.0010313483279936206,602.64,0.7870000004768372,0.01864187966961815
603.310345,,0.0007747309003774956,603.106,0.7990000247955322,0.044653413492348956
603.775862,,0.001202594994565294,603.57,0.7739999890327454,-0.00984200614401799
604.2413789999999,,0.0005394885116137195,604.035,0.7599999904632568,-0.040269704981674634
604.706897,,0.0017645601798883157,604.5,0.8019999861717224,0.05140638301459469
605.172414,,0.004345421856692632,604.966,0.7870000004768372,0.01899412021189781
605.637931,,0.005621441522541212,605.433,0.7879999876022339,0.021526323794545638
606.1034480000001,,0.005173749782578782,605.899,0.7630000114440918,-0.03251216266512938
606.5689659999999,,0.0032701297360135453,606.364,0.7620000243186951,-0.03420342715725555
607.0344829999999,,0.00020439934351294088,606.83,0.7799999713897705,0.005543771834109222
607.5,,0.003224172578605913,607.293,0.7599999904632568,-0.037469443293961555
607.965517,,0.005418519577701964,607.762,0.7789999842643738,0.004495465407622294
608.431034,,0.005116721397790393,608.224,0.7039999961853027,-0.15834020822716116
608.896552,,0.0027379007964563554,608.686,0.7599999904632568,-0.03579886080469388
609.362069,,0.00016989695810694708,609.156,0.7950000166893005,0.04095026376448097
609.827586,,0.0007868011083186899,609.619,0.7689999938011169,-0.01525174367221655
610.293103,,0.00031834408225430095,610.084,0.7789999842643738,0.006911169445022031
610.758621,,0.002507918905032133,610.552,0.7860000133514404,0.022460909560140577
611.2241379999999,,0.004098963879778871,611.011,0.7850000262260437,0.020496084523850877
611.689655,,0.0036950831582364253,611.478,0.7739999890327454,-0.0033466426876922017
612.155172,,0.0011431035405466677,611.943,0.7630000114440918,-0.027284260701278606
612.62069,,0.0021776482948034715,612.409,0.7870000004768372,0.024935376962619903
613.0862070000001,,0.004223679982442477,612.874,0.7950000166893005,0.04220480021652969
613.551724,,0.003701661061503291,613.342,0.7879999876022339,0.026708511077477657
614.017241,,0.0008732042966127367,613.8,0.7860000133514404,0.022027465842424297
614.4827590000001,,0.002729923990484669,614.27,0.777999997138977,0.004206123095243484
614.948276,,0.005334268370450747,614.733,0.7609999775886536,-0.03327990203510415
615.4137929999999,,0.005894093607557612,615.201,0.765999972820282,-0.02287937123609455
615.8793099999999,,0.004272210104505342,615.663,0.781000018119812,0.009279164888595343
616.344828,,0.0009427139334176084,616.128,0.75,-0.058793023531931894
616.810345,,0.002819419007273263,616.591,0.7710000276565552,-0.013572454866676402
617.275862,,0.004749517572541192,617.057,0.7910000085830688,0.02948878873274986
617.741379,,0.0030531986745584152,617.522,0.7739999890327454,-0.008024459007105716
618.206897,,0.0012041694660035456,617.988,0.7839999794960022,0.013335414786062079
618.672414,,0.00419511140262014,618.453,0.7850000262260437,0.015149741705544381
619.137931,,0.002938241175557129,618.919,0.7620000243186951,-0.03525107752274051
619.603448,,0.001459950821339311,619.386,0.7820000052452087,0.008110382790811988
620.068966,,0.0047838752376202645,619.851,0.7870000004768372,0.018878814092257747
620.534483,,0.0036954970738520255,620.315,0.765999972820282,-0.026907611630542755
621.0,,0.0014761815897906027,620.778,0.7870000004768372,0.018899620385334357
621.465517,,0.0072357810431223244,621.241,0.7680000066757202,-0.022351074411534222
621.9310340000001,,0.00962424369931839,621.711,0.7789999842643738,0.0018407758947095192
622.396552,,0.007039088640870996,622.171,0.7839999794960022,0.013036740194858232
622.862069,,0.0013739700041422356,622.641,0.7699999809265137,-0.01709506005712348
623.327586,,0.0034408924074273645,623.1,0.7850000262260437,0.016008984260372117
623.793103,,0.004443398492653785,623.57,0.8159999847412109,0.08401396020206928
624.258621,,0.0016625801728509823,624.036,1.0290000438690186,0.5485671621102732
624.724138,,0.002302685797073091,624.501,0.7889999747276306,0.026214453311410472
625.189655,,0.004423119582397119,624.967,0.847000002861023,0.15310169060968404
625.655172,,0.0034609130661417942,625.426,0.781000018119812,0.009818647104112727
626.1206900000001,,0.0007871498359959821,625.891,0.765999972820282,-0.022388708675212123
626.5862070000001,,0.0010013788894700378,626.356,0.7609999775886536,-0.03286134239346796
627.0517239999999,,0.0005782591914947786,626.821,0.8080000281333923,0.06989146218167626
627.5172409999999,,0.0011652119045511978,627.289,0.7990000247955322,0.050566034979514396
627.982759,,0.0027495775060304983,627.752,0.7580000162124634,-0.03855862370452376
628.448276,,0.003923128945476644,628.215,0.7910000085830688,0.033447403818705694
628.913793,,0.0050877824086715115,628.685,0.7630000114440918,-0.02753653262670102
629.37931,,0.005554256429511168,629.145,0.7639999985694885,-0.025432489800430346
629.844828,,0.0039337407626310866,629.615,0.7850000262260437,0.020154654005535372
630.3103450000001,,0.0005634609540397933,630.082,0.8100000023841858,0.07437336578329551
630.7758620000001,,0.0020293729488350394,630.541,0.7870000004768372,0.023943301851976618
631.2413789999999,,0.0021181420526255237,631.006,0.765999972820282,-0.02219336153354606
631.706897,,0.0010672926681413947,631.47,0.7630000114440918,-0.029166763000916883
632.172414,,0.001351473824290438,631.936,0.7870000004768372,0.022644783486120455
632.637931,,0.003164987844485638,632.401,0.777999997138977,0.0025384286374520917
633.103448,,0.004505634949446839,632.867,0.5960000157356262,-0.3944840355144862
633.568966,,0.00415862361218793,633.33,0.7820000052452087,0.01023928568204158
634.034483,,0.0029191972185221827,633.8,0.7910000085830688,0.029364630307226684
634.5,,0.0016700409330991399,634.263,0.7229999899864197,-0.1192250861402586
634.9655170000001,,8.907805912129043e-05,634.726,0.7870000004768372,0.01982090892590665
635.431034,,0.00271236284404424,635.196,0.7990000247955322,0.04564484100861688
635.8965519999999,,0.0045954055388034345,635.659,0.7870000004768372,0.019260300049072802
636.362069,,0.003743436095880245,636.125,0.765999972820282,-0.026646014071480296
636.827586,,0.0009532901408653339,636.588,0.7730000019073486,-0.011460194090280696
637.293103,,0.00045524570041727383,637.054,0.7699999809265137,-0.01796963110581977
637.7586210000001,,0.0013225271128832882,637.519,0.800000011920929,0.04750712791705397
638.224138,,0.00423692247235354,637.984,0.7839999794960022,0.01285309539849258
638.689655,,0.0049749626615734266,638.448,0.7870000004768372,0.01967368888582826
639.155172,,0.002827778533584945,638.914,0.7739999890327454,-0.008294092838437229
639.62069,,0.0001939035709593695,639.381,0.7620000243186951,-0.03402560992675483
640.086207,,0.0024383132963253368,639.84,0.7429999709129333,-0.07496513031669791
640.551724,,0.004245044200941774,640.308,0.7730000019073486,-0.009123326851088326
641.017241,,0.006322620865455625,640.77,0.7860000133514404,0.019693913998933808
641.482759,,0.00794133682434782,641.241,0.7870000004768372,0.022364745395360687
641.9482760000001,,0.007787986627241127,641.704,0.7599999904632568,-0.035985399160124124
642.413793,,0.005992681587498369,642.167,0.7850000262260437,0.018919640254306862
642.87931,,0.004119900411780323,642.637,0.7829999923706055,0.014952554869371897
643.344828,,0.0030306643244130014,643.095,0.7870000004768372,0.023996942481436138
643.810345,,0.0017285770417650105,643.567,0.7850000262260437,0.019898493414934708
644.275862,,0.0009400223008349876,644.025,0.7829999923706055,0.01572068432561396
644.7413789999999,,0.00399793911435327,644.496,0.7720000147819519,-0.008150015956603892
645.206897,,0.0049979063401325375,644.962,0.8510000109672546,0.16397067403048537
645.672414,,0.00317432376016672,645.426,0.8029999732971191,0.059317667252580565
646.1379310000001,,0.000724948415302942,645.892,0.7820000052452087,0.013405120728355232
646.6034480000001,,0.0001730666157592497,646.357,0.7749999761581421,-0.002086198607892949
647.0689659999999,,0.0012762290498927785,646.815,0.7630000114440918,-0.028543349258850145
647.534483,,0.0015816583459574568,647.286,0.7710000276565552,-0.011490453770483001
648.0,,0.00023502645683946163,647.748,0.7760000228881836,-0.0010239545044869163
648.465517,,0.002628871863107882,648.211,0.8289999961853027,0.11398256493672325
648.931034,,0.003258993011300518,648.681,0.7860000133514404,0.019820129221732652
649.396552,,0.0022880353629383975,649.145,0.722000002861023,-0.1200988784652026
649.862069,,0.0025614987552249275,649.607,0.7820000052452087,0.010143508684023635
650.327586,,0.005969468260700538,650.073,0.765999972820282,-0.02516633843688698
650.7931030000001,,0.010397435597437592,650.539,0.7860000133514404,0.017996216721613917
651.258621,,0.011512469027591801,651.005,0.765999972820282,-0.025932958059450645
651.7241379999999,,0.007631935507018508,651.47,0.7879999876022339,0.021707413984951823
652.189655,,0.0018180661952570463,651.936,0.7630000114440918,-0.03297301470259925
652.655172,,0.0012460983341022536,652.397,0.7820000052452087,0.008289674701138979
653.12069,,0.0001837917588223189,652.862,0.765999972820282,-0.026613449769797223
653.5862070000001,,0.003781892730233951,653.33,0.7870000004768372,0.019182270929986322
654.051724,,0.005904132348711463,653.793,0.7860000133514404,0.017135519051556802
654.517241,,0.004795494494702093,654.256,0.7739999890327454,-0.008792679646455429
654.982759,,0.001322558563337644,654.726,0.765999972820282,-0.02593005715286529
655.448276,,0.0024441376243074207,655.189,0.7860000133514404,0.018001475744416247
655.9137929999999,,0.004614628224477895,655.652,0.7599999904632568,-0.038229905055581374
656.37931,,0.003991423049443931,656.117,0.7310000061988831,-0.10095663998184369
656.844828,,0.0006086686699973436,656.58,0.7730000019073486,-0.00897434619667547
657.310345,,0.003685734333281027,657.046,0.7950000166893005,0.03944588441613106
657.7758620000001,,0.006029807872510786,657.512,0.7820000052452087,0.011609675240402784
658.241379,,0.004775653735397964,657.977,0.7649999856948853,-0.02496103744180051
658.7068969999999,,0.0008985058540108973,658.445,0.765999972820282,-0.022352033961787064
659.172414,,0.00300078357487106,658.911,0.7870000004768372,0.023780079632330402
659.637931,,0.004999874029441075,659.371,0.765999972820282,-0.02165323790038741
660.103448,,0.0052127151362876085,659.837,0.7820000052452087,0.013450954642844508
660.568966,,0.0050938566530911895,660.304,0.7839999794960022,0.017973357621961804
661.034483,,0.005528477342283258,660.767,0.7599999904632568,-0.03423527225511361
661.5,,0.00582665228556078,661.237,0.7850000262260437,0.02022053603901756
661.965517,,0.004926943859431052,661.699,0.765999972820282,-0.02127361667876216
662.4310340000001,,0.003313560417770619,662.163,0.7599999904632568,-0.03453173337772199
662.8965519999999,,0.0027296607659358313,662.626,0.8029999732971191,0.05888337701907627
663.362069,,0.0035638704118777123,663.091,0.7870000004768372,0.023687421982861806
663.827586,,0.0036657751306406116,663.555,0.7820000052452087,0.012396567303484523
664.293103,,0.0011368328941688591,664.021,0.7639999985694885,-0.027264867677205984
664.7586210000001,,0.0022248324158557946,664.485,0.7480000257492065,-0.06260382036168434
665.224138,,0.0021987131406650644,664.95,0.7599999904632568,-0.03696084181677782
