Trial: ,9
Threshold: ,0.0
Maximum EMG: ,0.07325198532824878
Success: ,True

EMG Time,Raw EMG,Filtered EMG,Force Time,Raw Force (V),Filtered Force (N)
0.0,samples,1.0802876765021014e-05,0.469,0.7699999809265137,-0.009646445177117218
0.46551699999999996,time,1.1019779051600954e-05,0.932,0.8489999771118164,0.16223807872608856
0.9310339999999999,value,1.120677100868076e-05,1.398,0.7829999923706055,0.018245565273235644
1.396552,,1.1361894309661028e-05,1.863,0.7649999856948853,-0.021139799210903518
1.862069,,1.1483219632261517e-05,2.329,0.7720000147819519,-0.006023348368578852
2.327586,,1.1568854787301762e-05,2.795,0.8679999709129333,0.2030340857880391
2.793103,,1.1616953066183946e-05,3.261,0.765999972820282,-0.01923496067817397
3.258621,,1.1625721786771271e-05,3.726,0.781000018119812,0.013443549719993807
3.724138,,1.1593431015771053e-05,4.184,0.7760000228881836,0.002592858899655701
4.189654999999999,,1.1518422444157267e-05,4.651,0.7839999794960022,0.020107063598901295
4.655172,,1.1399118390608446e-05,5.117,0.7580000162124634,-0.03641322346751652
5.12069,,1.1234030906399943e-05,5.585,0.7820000052452087,0.016033803591781658
5.586207,,1.1021770953680912e-05,6.047,0.7649999856948853,-0.02081388624634281
6.051723999999999,,1.0761057627592625e-05,6.51,0.7760000228881836,0.003364645285176382
6.517241,,1.045072739125267e-05,6.98,0.765999972820282,-0.01819154295825699
6.982759,,1.0089743291246064e-05,7.443,0.7630000114440918,-0.02448731856580066
7.448276,,9.677204119936367e-06,7.906,0.824999988079071,0.11083205206017557
7.913793000000001,,9.212353489644729e-06,8.371,0.746999979019165,-0.05886307557734512
8.379309999999998,,8.694588782549498e-06,8.837,0.753000020980835,-0.04556423561730107
8.844828000000001,,8.123469939041069e-06,9.302,0.7919999957084656,0.0396097420520041
9.310345,,7.498728046233081e-06,9.769,0.765999972820282,-0.01685380364710803
9.775862,,6.820273687389555e-06,10.235,0.781000018119812,0.015976670983213506
10.241379,,6.08820501218515e-06,10.7,0.7789999842643738,0.01173474447293557
10.706897,,5.302815486979857e-06,11.165,0.6710000038146973,-0.22348426180648193
11.172414,,4.464601283667261e-06,11.628,0.7820000052452087,0.018376441172492063
11.637931,,3.574268265154171e-06,12.09,0.7870000004768372,0.029257525603398966
12.103447999999998,,2.6327385251559897e-06,12.558,0.8090000152587891,0.07713636214673113
12.568966000000001,,1.6411564397534594e-06,13.021,0.7739999890327454,0.0007949905024401567
13.034483,,6.008941880590182e-07,13.484,0.9340000152587891,0.3492583384010264
13.5,,4.864433006084999e-07,13.954,0.781000018119812,0.015778760726686904
13.965517,,1.6190140154375867e-06,14.42,0.6600000262260437,-0.24801023007857734
14.431034,,2.7947351907584876e-06,14.882,0.7620000243186951,-0.025986944870137623
14.896552,,4.011280332100555e-06,15.348,0.7739999890327454,-6.077524664687206e-05
15.362069,,5.266076982473858e-06,15.814,0.7590000033378601,-0.0329678455288543
15.827586000000002,,6.556305268799752e-06,16.28,0.781000018119812,0.014732376176950468
16.293103,,7.878897267358291e-06,16.74,0.7570000290870667,-0.03778083111199392
16.758621,,9.230537225879362e-06,17.205,0.7820000052452087,0.016471051151021054
17.224138,,1.0607662678475659e-05,17.674,0.777999997138977,0.007560463844023027
17.689655,,1.2006466487996084e-05,18.139,0.7599999904632568,-0.03182693494797759
18.155172,,1.3422899848565432e-05,18.602,0.7820000052452087,0.01596081871273698
18.62069,,1.4852676279068347e-05,19.065,0.777999997138977,0.007137476902408414
19.086207,,1.6291276636131334e-05,19.533,0.7599999904632568,-0.03214996562547659
19.551724,,1.773395517275532e-05,19.994,0.7609999775886536,-0.03000475582701021
20.017241000000002,,1.9175746666153028e-05,20.462,0.765999972820282,-0.01910590280634519
20.482758999999998,,2.0611474635550975e-05,20.925,0.777999997138977,0.007082739119071188
20.948276,,2.203576066772683e-05,21.391,0.7580000162124634,-0.036407528334776874
21.413793000000002,,2.3443034864871206e-05,21.854,0.7760000228881836,0.00292591170196501
21.87931,,2.4827547425991752e-05,22.32,0.7599999904632568,-0.03178343376741635
22.344828,,2.618338136952067e-05,22.785,0.7609999775886536,-0.029429204425663893
22.810344999999998,,2.7504466401049102e-05,23.25,0.777999997138977,0.007804610579883071
23.275862,,2.8784593926198743e-05,23.715,0.7839999794960022,0.02108904683641111
23.741379,,3.0017433204558513e-05,24.18,0.7710000276565552,-0.007011099523789875
24.206897,,3.119654863636998e-05,24.647,0.781000018119812,0.015000148580324528
24.672414,,3.231541816924739e-05,25.113,0.7570000290870667,-0.037067278616791356
25.137931,,3.336745280767548e-05,25.581,0.765999972820282,-0.017251379878052194
25.603448,,3.4346017203350946e-05,26.043,0.8119999766349792,0.08315709058199765
26.068966,,3.524445129963213e-05,26.506,0.7639999985694885,-0.021249854095303573
26.534483,,3.605609299844789e-05,26.969,0.8019999861717224,0.061679136044727835
27.0,,3.677430181300392e-05,27.435,0.7609999775886536,-0.027537565911598116
27.465517,,3.739248346452561e-05,27.906,0.7789999842643738,0.011749812030214479
27.931034,,3.7904115376106464e-05,28.364,0.7789999842643738,0.011782889451571967
28.396552,,3.83027730115044e-05,28.829,0.765999972820282,-0.016546061758644332
28.862069,,3.8582157001462155e-05,29.294,0.8069999814033508,0.07273296737457839
29.327586,,3.873612099483829e-05,29.759,0.7429999709129333,-0.06678388400918155
29.793103000000002,,3.8758700166541354e-05,30.225,0.7860000133514404,0.02677887075982749
30.258620999999998,,3.8644140308978735e-05,30.691,0.7689999938011169,-0.010409709896253838
30.724138,,3.838692742848429e-05,31.157,0.7760000228881836,0.004662097444691689
31.189655000000002,,3.79818177629942e-05,31.625,0.7820000052452087,0.017533407375125768
31.655172000000004,,3.7423868132119845e-05,32.088,0.7820000052452087,0.017317642436905877
32.12069,,3.670846652574142e-05,32.551,0.7599999904632568,-0.03083731450381771
32.586207,,3.5831362832338254e-05,33.021,0.777999997138977,0.008151302634636667
33.051724,,3.478869960350388e-05,33.484,0.8500000238418579,0.16479319873667095
33.517241000000006,,3.357704274648925e-05,33.947,0.7789999842643738,0.00990277932553853
33.982759,,3.2193412032199194e-05,34.412,0.7580000162124634,-0.03603578360805435
34.448276,,3.063531130185913e-05,34.875,0.7760000228881836,0.003016034254089703
34.913793,,2.8900758251595444e-05,35.341,0.7680000066757202,-0.014548863173802858
35.37931,,2.6988313670457833e-05,35.807,0.7979999780654907,0.05070782578379367
35.844828,,2.4897110003979754e-05,36.273,0.7739999890327454,-0.001645862279299049
36.310345,,2.262687911224882e-05,36.74,0.7730000019073486,-0.003852368337990422
36.775862,,2.0177979088666204e-05,37.206,0.7630000114440918,-0.02562831265228391
37.241378999999995,,1.7551420003137682e-05,37.67,0.7599999904632568,-0.032116126226554784
37.706897000000005,,1.4748888431382742e-05,38.129,0.7649999856948853,-0.021138688605660056
38.172414,,1.177277063039601e-05,38.599,0.7310000061988831,-0.0950954817506983
38.637931,,8.626174218870406e-06,39.061,0.7620000243186951,-0.027411080651770666
39.103448,,5.312948220616771e-06,39.525,0.7590000033378601,-0.033775630192157576
39.568965999999996,,1.8377013287124635e-06,39.994,0.7839999794960022,0.02088315418286138
40.034483,,1.794181751697054e-06,40.455,0.7850000262260437,0.02327095163627107
40.5,,5.576526023313479e-06,40.925,0.7630000114440918,-0.024439926399962744
40.965517,,9.502354119447327e-06,41.391,0.7749999761581421,0.0019265410569291829
41.431034,,1.3563876567962335e-05,41.854,0.7620000243186951,-0.026176552990478153
41.896552,,1.775248453237534e-05,42.32,0.7839999794960022,0.02196296975799648
42.362069000000005,,2.2058745163134154e-05,42.785,0.777999997138977,0.009084739620272635
42.827586000000004,,2.6472399688544306e-05,43.25,0.765999972820282,-0.016887070145917765
43.293103,,3.0982364370649215e-05,43.714,0.7570000290870667,-0.036350315865187645
43.758621,,3.5576734446575334e-05,44.18,0.7689999938011169,-0.010094451487976672
44.224138,,4.024279117042445e-05,44.639,0.7820000052452087,0.01830489787377527
44.689655,,4.496701206472134e-05,45.105,0.7599999904632568,-0.029585923767419538
45.155172,,4.9735084483700035e-05,45.573,0.7609999775886536,-0.027407082617390537
45.620689999999996,,5.4531922583331884e-05,46.035,0.7839999794960022,0.02266270915460361
46.086206999999995,,5.934168778496175e-05,46.503,0.781000018119812,0.016050191762093387
46.551724,,6.414781281072498e-05,46.965,0.7789999842643738,0.011581077407867605
47.017241,,6.893302935956946e-05,47.432,0.7599999904632568,-0.02995738946313817
47.482759,,7.367939948270974e-05,47.897,0.7760000228881836,0.004728213921027012
47.948276,,7.836835070670149e-05,48.363,0.7590000033378601,-0.03250548656504379
48.413793,,8.29807149410537e-05,48.829,0.7820000052452087,0.01738891409396399
48.879310000000004,,8.749677119540687e-05,49.294,0.7710000276565552,-0.006801971901917702
49.344828,,9.189629211881326e-05,49.755,0.7739999890327454,-0.0004964034893445378
49.810345,,9.615859436057817e-05,50.221,0.7419999837875366,-0.0704418398973463
50.275862,,0.0001002625927384807,50.688,0.7630000114440918,-0.024911060931573872
50.741379,,0.00010418685818601259,51.154,0.7870000004768372,0.027170622000235463
51.206897,,0.00010790967943558182,51.617,0.7590000033378601,-0.034015349800143944
51.672414,,0.00011140912837945436,52.08,0.7739999890327454,-0.0014920518407223905
52.137931,,0.00011466312903458438,52.551,0.7860000133514404,0.024527872556327584
52.603448,,0.0001176495300214489,53.013,0.7620000243186951,-0.027846953849341306
53.068966,,0.00012034618045059346,53.477,0.7850000262260437,0.022213907444380596
53.534483,,0.0001227310090938564,53.939,0.7639999985694885,-0.023545035605822662
54.0,,0.00012478210670021305,54.405,0.6869999766349792,-0.19126889708778702
54.465517,,0.00012647781129891832,54.876,0.8510000109672546,0.16610030879640955
54.931034,,0.00012779679631517546,55.334,0.843999981880188,0.15096153678640387
55.396552,,0.000128718161305976,55.799,0.7829999923706055,0.01821544689366832
55.862069,,0.00012922152510609722,56.265,0.7799999713897705,0.011863605005914511
56.327586,,0.00012928712115656716,56.729,0.7020000219345093,-0.15786241174661195
56.793102999999995,,0.00012889589477027745,57.195,0.7649999856948853,-0.02038282480556279
57.258621000000005,,0.0001280296020719038,57.662,0.7599999904632568,-0.03104099227616392
57.724138,,0.00012667091033195064,58.127,0.777999997138977,0.00841438509051182
58.189655,,0.00012480349939763936,58.595,1.0839999914169312,0.6753244422433072
58.655172,,0.000122412163906579,59.057,0.7720000147819519,-0.004168492011532422
59.120689999999996,,0.00011948291595276924,59.525,0.7789999842643738,0.011316008202160274
59.586207,,0.00011600308785856123,59.988,0.7599999904632568,-0.02986952689531106
60.051724,,0.00011196143469081915,60.451,0.781000018119812,0.01605854162449082
60.517241,,0.00010734823614476337,60.921,0.4909999966621399,-0.615616767296849
60.982758999999994,,0.00010215539740491169,61.379,0.7820000052452087,0.0184504041600118
61.448276,,9.637654857924972e-05,61.846,0.7870000004768372,0.029374153639505688
61.913793,,9.000714229033507e-05,62.312,0.7580000162124634,-0.033821504193382645
62.379310000000004,,8.304454899555269e-05,62.778,0.7549999952316284,-0.04041809803951713
62.84482800000001,,7.548814959827335e-05,63.243,0.7789999842643738,0.011765062888048775
63.310345000000005,,6.733942490230204e-05,63.71,0.7649999856948853,-0.01888009673098612
63.775862000000004,,5.8602041453820925e-05,64.169,0.8420000076293945,0.14869833802583207
64.241379,,4.928193330811024e-05,64.636,0.7599999904632568,-0.030155204736742425
64.706897,,3.9387379252748795e-05,65.101,0.7739999890327454,0.00012012250607410977
65.172414,,2.892907501483148e-05,65.569,0.777999997138977,0.008593710721907165
65.637931,,1.7920199977068485e-05,66.032,0.7609999775886536,-0.02869196052010065
66.103448,,6.376477926523783e-06,66.495,0.7879999876022339,0.029883194730045633
66.56896599999999,,5.683768639721242e-06,66.965,0.7609999775886536,-0.029180587840285866
67.03448300000001,,1.8239571125460895e-05,67.432,0.7789999842643738,0.009810371957385895
67.5,,3.126727483229642e-05,67.896,0.7799999713897705,0.011786910070713546
67.965517,,4.474050680625707e-05,68.354,0.7609999775886536,-0.029780577514519825
68.431034,,5.863015199004678e-05,68.821,0.777999997138977,0.007117188145955209
68.896552,,7.290433812719656e-05,69.287,0.7599999904632568,-0.03219979753856883
69.362069,,8.752842985276024e-05,69.755,0.7720000147819519,-0.0061163051154372
69.827586,,0.00010246503239151795,70.22,0.7850000262260437,0.02218884965715376
70.293103,,0.00011767400526891096,70.681,0.8370000123977661,0.13550638824759137
70.75862099999999,,0.0001331124864220909,71.147,0.7820000052452087,0.015753682023719903
71.22413800000001,,0.00014873492707850032,71.61,0.7699999809265137,-0.010275802458081025
71.689655,,0.00016449313774729134,72.08,0.7860000133514404,0.024733292348169643
72.15517200000001,,0.00018033634564462302,72.543,0.7789999842643738,0.00966482436593706
72.62069,,0.0001962112638474496,73.006,0.7599999904632568,-0.03152216070789812
73.086207,,0.00021206217244182517,73.474,0.7590000033378601,-0.033475854325636316
73.551724,,0.0002278310119010157,73.935,0.7630000114440918,-0.024526274563550412
74.017241,,0.00024345748889584632,74.401,0.7739999890327454,-0.00032331552437372165
74.482759,,0.0002588791947047455,74.865,0.7739999890327454,-8.955491482266851e-05
74.94827599999999,,0.00027403173635391474,75.33,0.7820000052452087,0.017562378411161976
75.41379300000001,,0.0002888488805790016,75.795,0.7760000228881836,0.004695442984634026
75.87931,,0.00030326271065863296,76.261,0.7630000114440918,-0.023446516940860425
76.344828,,0.0003172037961272432,76.729,0.7609999775886536,-0.02765394195744613
76.810345,,0.0003306013753298812,77.194,0.7820000052452087,0.018212724795864884
77.275862,,0.0003433835507351821,77.658,0.7789999842643738,0.011754073438511894
77.741379,,0.00035547749687453743,78.124,0.8040000200271606,0.06625869456968607
78.206897,,0.00036680968072579524,78.584,0.7789999842643738,0.011791146735078823
78.67241399999999,,0.00037730609430868526,79.054,0.765999972820282,-0.016572539239552455
79.137931,,0.0003868924992067108,79.517,0.7829999923706055,0.020384218214138893
79.603448,,0.00039549468267661715,79.98,0.7620000243186951,-0.025484033286924602
80.068966,,0.00040303872495187667,80.444,0.7429999709129333,-0.06702849167592868
80.53448300000001,,0.00040945127729107847,80.913,0.7599999904632568,-0.030170602563206063
81.0,,0.0004146598502658389,81.379,0.7739999890327454,0.00012850833305915257
81.465517,,0.0004185931117260297,81.844,0.7570000290870667,-0.03712610461244257
81.931034,,0.00042118119382293596,82.309,0.8489999771118164,0.1630845493116682
82.396552,,0.00042235600841360134,82.774,0.7789999842643738,0.01035587193928465
82.86206899999999,,0.0004220515701122896,83.239,0.7839999794960022,0.021033803937233832
83.327586,,0.00042020432619790276,83.699,0.7609999775886536,-0.02927736493839869
83.79310299999999,,0.000416753492529562,84.164,0.7620000243186951,-0.02728230725764283
84.258621,,0.00041164139456660224,84.636,0.781000018119812,0.013952427887654086
84.72413800000001,,0.0004048138125341952,85.095,0.7480000257492065,-0.05807352059615663
85.189655,,0.0003962203297219318,85.565,0.777999997138977,0.007187982448891346
85.65517200000001,,0.00038581468285020824,86.028,0.7649999856948853,-0.02119663213277699
86.12069,,0.0003735551133884298,86.496,0.7580000162124634,-0.036471807109202475
86.586207,,0.00035940471866012085,86.958,0.777999997138977,0.007114336715045926
87.051724,,0.0003433318015232753,87.423,0.7739999890327454,-0.0015492394024278302
87.517241,,0.0003253102173699632,87.886,0.7609999775886536,-0.02978463102080627
87.98275899999999,,0.0003053197171475898,88.351,0.7829999923706055,0.018265737681603316
88.448276,,0.000283346285065557,88.82,0.753000020980835,-0.04694454738790413
88.913793,,0.00025938246961566987,89.279,0.7609999775886536,-0.029342612928728355
89.37931,,0.00023342770650273094,89.75,0.8479999899864197,0.1603922865471757
89.844828,,0.00020548863205364394,90.209,0.7649999856948853,-0.020227942833466312
90.310345,,0.00017557938564928256,90.68,0.7829999923706055,0.019202916168208677
90.775862,,0.00014372189970362887,91.146,0.7990000247955322,0.05427655147180276
91.241379,,0.00010994617569948955,91.606,0.7820000052452087,0.01744839775203895
91.706897,,7.429054477970709e-05,92.069,0.7540000081062317,-0.04335864997298465
92.17241399999999,,3.6801911387477384e-05,92.539,0.722000002861023,-0.11290230512759697
92.63793100000001,,2.4640215505629924e-06,93.002,0.9259999990463257,0.33168990111759056
93.103448,,4.344254739921153e-05,93.47,0.7910000085830688,0.03769453990698796
93.568966,,8.605977203699023e-05,93.932,0.7760000228881836,0.00510613683961416
94.03448300000001,,0.00013023245299815224,94.398,0.7620000243186951,-0.025340978528438054
94.5,,0.0001758678629832784,94.864,0.7910000085830688,0.03785437058118779
94.965517,,0.00022286367915728234,95.329,0.6589999794960022,-0.2497544213598651
95.431034,,0.0002711078996170718,95.789,0.7620000243186951,-0.025423644400978843
95.896552,,0.000320478788368456,96.254,0.7749999761581421,0.002789373869579363
96.36206899999999,,0.00037084485010290664,96.721,0.7919999957084656,0.039684502042488974
96.827586,,0.00042206483600807856,97.187,0.781000018119812,0.015550319548775018
97.293103,,0.00047398778178070207,97.652,0.9950000047683716,0.4815945738163754
97.758621,,0.0005264530789384971,98.117,0.7630000114440918,-0.024046700082303717
98.224138,,0.0005792905804523054,98.58,0.7789999842643738,0.010610706628970703
98.689655,,0.0006323207416391385,99.05,0.7820000052452087,0.016942057061335974
99.155172,,0.0006853547971634636,99.514,0.7630000114440918,-0.02465424105156572
99.62069,,0.0007381949748847311,99.976,0.7789999842643738,0.010010681316261162
100.086207,,0.0007906347471776075,100.44,0.7649999856948853,-0.02066924941149178
100.551724,,0.000842459120254972,100.91,0.7599999904632568,-0.03172150665130203
101.017241,,0.00089344496192829,101.375,0.8550000190734863,0.17511735026773026
101.482759,,0.0009433613680987529,101.839,0.7609999775886536,-0.02977664891986002
101.948276,,0.0009919700680777561,102.305,0.777999997138977,0.007193244675176892
102.413793,,0.0010390258686771416,102.77,0.7870000004768372,0.02676869391896019
102.87931,,0.0010842771369767349,103.235,0.765999972820282,-0.0189793856162666
103.344828,,0.0011274663216546525,103.696,0.7950000166893005,0.044240947730678104
103.810345,,0.0011683305124818694,104.161,0.7609999775886536,-0.02975920266662574
104.275862,,0.0012066020370550424,104.629,0.7670000195503235,-0.01658154502107757
104.741379,,0.001242009093646932,105.09,0.7260000109672546,-0.10577330523401718
105.206897,,0.001274276419614756,105.558,0.7620000243186951,-0.027186632052473063
105.672414,,0.0013031259952765353,106.021,0.7820000052452087,0.016560246054909855
106.13793100000001,,0.001328277782000118,106.484,0.7369999885559082,-0.08129104418080069
106.603448,,0.0013494504909601327,106.954,0.746999979019165,-0.059309328862051626
107.068966,,0.0013663623791881293,107.42,0.8379999995231628,0.13914575059536913
107.534483,,0.0013787320739796125,107.882,0.777999997138977,0.00862403580918465
108.0,,0.0013862794295044212,108.348,0.7720000147819519,-0.0042578748726688044
108.46551699999999,,0.0013887264121501461,108.814,0.7850000262260437,0.024240364626234086
108.931034,,0.0013857979991595626,109.28,0.7369999885559082,-0.08017916819100841
109.396552,,0.0013772230802122146,109.74,0.7879999876022339,0.0310622284830899
109.862069,,0.0013627353798652032,110.205,0.7739999890327454,0.0006627676964207801
110.32758600000001,,0.0013420744304501748,110.67,0.7590000033378601,-0.03194695064159186
110.793103,,0.0013149865758293217,111.136,0.7820000052452087,0.018197770239540053
111.258621,,0.0012812259227668315,111.599,0.7870000004768372,0.029092117642050785
111.724138,,0.0012405552066855532,112.068,0.7739999890327454,0.0007363583784559954
112.189655,,0.001192746708988139,112.532,0.765999972820282,-0.01676020205352754
112.655172,,0.0011375833958730576,112.994,0.7820000052452087,0.017998579642444765
113.12069,,0.001074860123971819,113.462,0.7760000228881836,0.0047979536641503595
113.586207,,0.0010043844315522868,113.925,0.7649999856948853,-0.019321464709382632
114.051724,,0.0009259768407099129,114.391,0.7749999761581421,0.0022896195637194497
114.51724100000001,,0.0008394715916502974,114.854,0.7620000243186951,-0.026224138231514815
114.982759,,0.0007447186879550319,115.32,0.7820000052452087,0.017147161489840215
115.448276,,0.0006415860504840581,115.787,0.8029999732971191,0.06269382891224937
115.913793,,0.0005299590040222205,116.253,0.7870000004768372,0.027634375053721228
116.37931,,0.0004097373450054175,116.718,0.746999979019165,-0.05970392077229252
116.84482799999999,,0.0002808358865797998,117.183,0.7639999985694885,-0.022845987666917072
117.310345,,0.00014319266391626232,117.651,0.7580000162124634,-0.03607866825848793
117.77586199999999,,3.2239975446988335e-06,118.109,0.7720000147819519,-0.005714811081297354
118.241379,,0.00015842517935644944,118.577,0.7580000162124634,-0.03632513319952626
118.70689700000001,,0.0003224222196159073,119.039,0.7770000100135803,0.004991479998491353
119.172414,,0.0004952221106721696,119.51,0.7789999842643738,0.009305543560656063
119.63793100000001,,0.000676779797743679,119.972,0.9660000205039978,0.41670978043356716
120.103448,,0.0008669685777436492,120.444,0.7429999709129333,-0.0690894154334305
120.568966,,0.0010656537122218591,120.906,0.8209999799728394,0.10092315815766593
121.034483,,0.0012728113159486377,121.364,0.6460000276565552,-0.280231331507585
121.5,,0.0014884712963207881,121.829,0.7940000295639038,0.04234308991204615
121.96551699999999,,0.0017124270182064874,122.294,0.7760000228881836,0.003284818101156009
122.431034,,0.0019441208670421038,122.762,0.777999997138977,0.007819956707055634
122.896552,,0.0021831499844363104,123.228,0.7609999775886536,-0.029024709670817557
123.362069,,0.0024299052117645963,123.692,0.7599999904632568,-0.031002806055870757
123.827586,,0.0026850412594579117,124.157,0.8159999847412109,0.0912048683395417
124.293103,,0.002947740849504003,124.621,0.7490000128746033,-0.05456368086634409
124.758621,,0.0032154203217376305,125.091,0.7839999794960022,0.021880609872689173
125.22413800000001,,0.0034870651812419686,125.551,0.7860000133514404,0.026414750721296364
125.68965500000002,,0.0037664974034588693,126.021,0.7580000162124634,-0.034430582541025635
126.15517200000001,,0.004058124431348289,126.481,0.7820000052452087,0.01798865997649165
126.62069000000001,,0.0043568314202693335,126.95,0.7630000114440918,-0.023303008758487453
127.086207,,0.004648661346622877,127.409,0.765999972820282,-0.01669674017277647
127.55172400000001,,0.004932143631447424,127.879,0.7599999904632568,-0.02973282178923803
128.017241,,0.005233911479289339,128.344,0.7770000100135803,0.0073045898237962745
128.48275900000002,,0.005577305030409129,128.809,0.7990000247955322,0.055200843601668804
128.948276,,0.005925215961865643,129.275,0.7990000247955322,0.05513465888520145
129.413793,,0.006199058304733237,129.74,0.7639999985694885,-0.021214629796468855
129.87931,,0.006411429863452063,130.205,0.8500000238418579,0.16602562851678002
130.344828,,0.006732920551482516,130.669,0.765999972820282,-0.0171271274099092
130.81034499999998,,0.007272585034316335,131.135,0.7850000262260437,0.02410180721342329
131.275862,,0.00776539925470591,131.595,0.7490000128746033,-0.0545112692354445
131.741379,,0.007774605628111763,132.065,0.7570000290870667,-0.03727543940207593
132.206897,,0.007497753442298477,132.528,0.781000018119812,0.014812732525927895
132.67241399999997,,0.007999254844735442,132.991,0.7599999904632568,-0.03113779629183641
133.13793099999998,,0.009737670841079118,133.459,0.765999972820282,-0.018258552435361352
133.60344800000001,,0.010830679484867612,133.921,0.7639999985694885,-0.02279664972684987
134.06896600000002,,0.008328057523827379,134.386,0.8009999990463257,0.05765043501807974
134.53448300000002,,0.002201747850840944,134.851,0.7850000262260437,0.022653042975724607
135.0,,0.003587541063752177,135.316,0.7820000052452087,0.016006082031508936
135.465517,,0.005693747798249853,135.78,0.7839999794960022,0.020283406216111667
135.931034,,0.005394095328479505,136.246,0.7649999856948853,-0.021157728407075325
136.396552,,0.005998730891634623,136.711,0.7620000243186951,-0.027706619514396777
136.862069,,0.008050743120637305,137.177,0.7820000052452087,0.015887411712520564
137.327586,,0.009485400616957244,137.644,0.777999997138977,0.007228048776438024
137.793103,,0.009173147758407158,138.109,0.7820000052452087,0.016030796189959565
138.258621,,0.007912146705505937,138.573,0.800000011920929,0.05536535321210302
138.724138,,0.006628977867424482,139.036,0.7549999952316284,-0.04252791802760733
139.189655,,0.00566306044967892,139.499,0.7739999890327454,-0.00096581313279298
139.655172,,0.005632691651827592,139.969,0.7639999985694885,-0.02256799102905988
140.12069,,0.007189160093398112,140.435,0.7590000033378601,-0.033265981791801694
140.586207,,0.009564283353444286,140.898,0.7279999852180481,-0.10060465541907902
141.05172399999998,,0.010823961605293383,141.364,0.781000018119812,0.015061472435900487
141.51724099999998,,0.010235197351196882,141.828,0.7820000052452087,0.017431587029145663
141.982759,,0.009242902884889556,142.294,0.7609999775886536,-0.02813967203718311
142.44827600000002,,0.009349809864288358,142.758,0.7630000114440918,-0.023618882811419304
142.913793,,0.010063212005704503,143.224,0.777999997138977,0.009202454822012205
143.37931,,0.009844249722225912,143.684,0.7620000243186951,-0.025539823066129487
143.844828,,0.008229482843882469,144.15,0.7910000085830688,0.03772831381214749
144.310345,,0.005969404946270492,144.617,0.7789999842643738,0.01164113551909864
144.77586200000002,,0.0036751632590298336,145.08,0.777999997138977,0.009486907712371059
145.241379,,0.001532840655089805,145.551,0.781000018119812,0.016014053318729456
145.706897,,0.00016539765783624356,146.013,0.7620000243186951,-0.025422441175071274
146.172414,,0.000519003219782512,146.477,0.777999997138977,0.009361168538030522
146.637931,,0.002473688122744231,146.939,0.7630000114440918,-0.023423761938311752
147.103448,,0.004359040433862042,147.405,0.7820000052452087,0.01783789754283377
147.568966,,0.004469821055715642,147.876,0.7820000052452087,0.01768199908747
148.034483,,0.002799493790066096,148.334,0.7789999842643738,0.010971614580129387
148.5,,0.0008245507669793629,148.799,0.7789999842643738,0.01078359018230924
148.965517,,0.0002773172309026986,149.264,0.7620000243186951,-0.02645002664365758
149.43103399999998,,0.0005436293771883263,149.729,0.7620000243186951,-0.026650343362345192
149.89655199999999,,0.0001924039217139297,150.194,0.8029999732971191,0.06247641435881016
150.362069,,0.0013433349667714913,150.666,0.7839999794960022,0.02089380253878867
150.82758600000003,,0.00424236694906187,151.124,0.7820000052452087,0.01636318075588797
151.293103,,0.006628668682073294,151.592,0.7820000052452087,0.01620927069294311
151.758621,,0.0056754049475151004,152.054,0.7620000243186951,-0.02749409598940704
152.224138,,0.0009139895663780127,152.525,0.7580000162124634,-0.036312702171041114
152.68965500000002,,0.004533374617876052,152.987,0.765999972820282,-0.018958489267598074
153.155172,,0.006775501888435542,153.451,0.7609999775886536,-0.02989511544786047
153.62069,,0.004880343963794733,153.921,0.7820000052452087,0.015846437458511446
154.086207,,0.001414684780571173,154.379,0.7860000133514404,0.024585394469649927
154.551724,,0.00037144510646694835,154.844,0.7590000033378601,-0.034179817612890843
155.017241,,0.0005735362313437306,155.31,0.5680000185966492,-0.45021545747546676
155.482759,,0.0027674017100410343,155.777,0.7549999952316284,-0.0427001020851921
155.948276,,0.0040336258835036096,156.242,0.777999997138977,0.007539788113368874
156.413793,,0.0034677719209735684,156.706,0.7620000243186951,-0.02716368817431269
156.87931,,0.0019297300669195289,157.172,0.7739999890327454,-0.0008449981720669662
157.34482799999998,,0.0008403690927411253,157.637,0.7739999890327454,-0.0006542242171694622
157.81034499999998,,0.000611705412657761,158.103,0.7620000243186951,-0.026596384781220832
158.275862,,0.000571226876113963,158.565,0.777999997138977,0.008468693650351612
158.741379,,0.0004331887427577749,159.035,0.7900000214576721,0.03481938361668888
159.20689700000003,,0.0011417389286502366,159.496,0.7599999904632568,-0.030338873619073125
159.672414,,0.0037821348378222455,159.965,0.777999997138977,0.009066162518047621
160.137931,,0.008114114179057028,160.431,0.7630000114440918,-0.023441953620891076
160.60344800000001,,0.012635962267284575,160.889,0.753000020980835,-0.04508022541169032
161.06896600000002,,0.015724879894519934,161.355,0.781000018119812,0.016041959365689924
161.534483,,0.016348438815714163,161.822,0.7870000004768372,0.02920267154725743
162.0,,0.014166198200180781,162.288,0.7820000052452087,0.018364642657386795
162.465517,,0.009703970429280428,162.755,0.7480000257492065,-0.05569081545765562
162.931034,,0.004531492365234094,163.214,0.7820000052452087,0.018363139611874437
163.396552,,0.0007450499903010009,163.681,0.781000018119812,0.016126232555262823
163.862069,,0.0003244462789339827,164.147,0.7620000243186951,-0.025363431422417614
164.327586,,0.0008771657936433023,164.61,0.7820000052452087,0.018078750837051825
164.793103,,0.002591139504579471,165.079,0.7699999809265137,-0.00822804609593079
165.258621,,0.0033182769268251485,165.54,0.7630000114440918,-0.023669822613814753
165.72413799999998,,0.002750051886169016,166.01,0.7850000262260437,0.024045737175101303
166.189655,,0.0013807482089618298,166.473,0.7649999856948853,-0.019759478480392147
166.655172,,9.680842117826505e-05,166.936,0.7789999842643738,0.010498377855072587
167.12069,,0.0009948920006207492,167.401,0.7820000052452087,0.01678708653367151
167.58620699999997,,0.001025615091557661,167.865,0.7820000052452087,0.016543197885841257
168.051724,,0.0007696211177612757,168.331,0.765999972820282,-0.018548890690835696
168.517241,,0.001217643049087535,168.795,0.7609999775886536,-0.029659247694441813
168.98275900000002,,0.0025674736662004228,169.26,0.800000011920929,0.055114389666327396
169.44827600000002,,0.0038294508178117526,169.726,0.7739999890327454,-0.0016939901091314314
169.913793,,0.003879790452729595,170.191,0.7990000247955322,0.052644681442730074
170.37931,,0.0025866244356277926,170.658,0.7820000052452087,0.015520216928675343
170.844828,,0.0005452994863783846,171.123,0.7689999938011169,-0.012846604666657699
171.310345,,0.0018781223551018072,171.584,0.7820000052452087,0.015475947375989795
171.775862,,0.004423223433741746,172.054,1.0190000534057617,0.5318658306448629
172.241379,,0.005962609711856237,172.517,0.7609999775886536,-0.030122706645188322
172.706897,,0.004812085019780051,172.98,0.7829999923706055,0.017956459399694244
173.172414,,0.0008099348093516909,173.448,0.800000011920929,0.05518024554994373
173.637931,,0.003357621984193085,173.91,0.777999997138977,0.0074697982190875065
174.103448,,0.003949126027458978,174.376,0.7620000243186951,-0.027142655367104928
174.568966,,0.0001470484166510978,174.84,0.7620000243186951,-0.02687892629852564
175.034483,,0.0057702040566448825,175.306,0.777999997138977,0.008253314751772812
175.5,,0.008060807678581092,175.773,0.8610000014305115,0.1893594774358621
175.96551699999998,,0.004894086442111268,176.238,0.7649999856948853,-0.01951483563227633
176.43103399999998,,0.0012235757444815161,176.703,0.7440000176429749,-0.06500323192380099
176.896552,,0.005537216102547617,177.169,0.824999988079071,0.11170861184559601
177.36206900000002,,0.005307163294920403,177.636,0.7599999904632568,-0.029689965896718094
177.827586,,0.0020135669627139967,178.094,0.7620000243186951,-0.02515405949857048
178.293103,,0.0004151419467347962,178.562,0.7620000243186951,-0.02501723256944561
178.758621,,0.00043774667105774234,179.024,0.7860000133514404,0.027361699098222766
179.224138,,0.0033030871252128138,179.495,0.7829999923706055,0.020869591960096953
179.68965500000002,,0.0050598357307181105,179.957,0.7820000052452087,0.01868620882486905
180.155172,,0.0043840117618453535,180.423,0.7599999904632568,-0.029298071990767074
180.62069,,0.002915049401845115,180.886,0.7009999752044678,-0.15794210541777054
181.086207,,0.0028481580685154988,181.352,0.7620000243186951,-0.025196332654237322
181.551724,,0.004413529299625156,181.817,0.765999972820282,-0.01667626517563647
182.01724099999998,,0.006360350593243438,182.283,0.7820000052452087,0.017952738574893292
182.482759,,0.008054844091851976,182.747,0.7789999842643738,0.011159795860534474
182.948276,,0.009876908669245189,183.212,0.7739999890327454,-1.0039567532465566e-05
183.413793,,0.011700863684274214,183.677,0.7820000052452087,0.017131181749803055
183.87931,,0.012279710244134013,184.143,0.765999972820282,-0.01801811166960737
184.34482799999998,,0.010850666226359268,184.606,0.7480000257492065,-0.05751936922119499
184.81034499999998,,0.008666725827203249,185.069,0.7749999761581421,0.0010316750479680806
185.27586200000002,,0.0078110046849547005,185.539,0.8349999785423279,0.13150162082806766
185.74137900000002,,0.008322129818486686,186.002,0.7820000052452087,0.015816912726073128
186.206897,,0.007441903707263276,186.47,0.7820000052452087,0.015638837876494102
186.672414,,0.002609886406150843,186.932,0.7720000147819519,-0.006283318805398178
187.137931,,0.005005383670565421,187.397,0.7649999856948853,-0.02162372736388906
187.60344800000001,,0.010865294591956435,187.864,0.7609999775886536,-0.030380152565810736
188.06896600000002,,0.01126973905640699,188.329,0.7620000243186951,-0.02819427112346422
188.534483,,0.006795953836961372,188.795,0.7799999713897705,0.0110774472795051
189.0,,0.0014800730381449576,189.26,0.777999997138977,0.006824353990117153
189.465517,,0.0008910164795758081,189.725,0.7620000243186951,-0.027884965293304847
189.931034,,0.00042193969861612293,190.184,0.7620000243186951,-0.027696175416689874
190.39655199999999,,0.003305928889081373,190.651,0.7590000033378601,-0.034009568774998326
190.862069,,0.0052105491852203955,191.117,0.777999997138977,0.007634807708761556
191.327586,,0.005467749942679139,191.585,0.777999997138977,0.007905569229822863
191.793103,,0.005452994107324073,192.047,0.7789999842643738,0.010368008618561601
192.25862099999998,,0.006510679179608156,192.51,0.7739999890327454,-0.00023684054390693716
192.72413799999998,,0.008032510559689121,192.98,0.7409999966621399,-0.07184866469249719
193.189655,,0.00809532505516562,193.44,0.7820000052452087,0.017745754481309942
193.655172,,0.005795692750164992,193.91,0.7590000033378601,-0.03211472598600563
194.12069000000002,,0.0020919311151176715,194.369,0.777999997138977,0.009499619557501946
194.586207,,0.001620867023283912,194.836,0.7990000247955322,0.055437049685229806
195.051724,,0.004527110006048948,195.301,0.7749999761581421,0.0032959676225919423
195.517241,,0.005675838638166357,195.765,0.7879999876022339,0.031721230430240346
195.98275900000002,,0.0038481809301827504,196.231,0.7620000243186951,-0.024868179006741768
196.448276,,0.0005645746355406019,196.696,0.7609999775886536,-0.027041455129105982
196.913793,,0.004419944157299212,197.161,0.7889999747276306,0.033916003780146586
197.37931,,0.0042462822379578215,197.624,0.7879999876022339,0.03164471677542517
197.844828,,0.00011906351914151832,198.095,0.777999997138977,0.009720561747999488
198.310345,,0.003893769280782657,198.558,0.7739999890327454,0.0008267306811501243
198.775862,,0.0038743608901954506,199.021,0.7829999923706055,0.02021884462597459
199.241379,,0.00021523741041550287,199.488,0.781000018119812,0.015615841740217825
199.706897,,0.0031098493291840407,199.95,0.753000020980835,-0.04565537555058774
200.172414,,0.0031057653450019275,200.416,0.7990000247955322,0.054277827433450415
200.63793099999998,,0.00038027646147948036,200.886,0.7599999904632568,-0.030981016670617725
201.103448,,0.002791243934081807,201.344,0.777999997138977,0.007944799131440854
201.568966,,0.005202061634922039,201.811,0.777999997138977,0.007665012041506705
202.034483,,0.006498679986252018,202.276,0.7630000114440918,-0.025276003211625347
202.5,,0.00583225080298695,202.744,0.7570000290870667,-0.03858354960385908
202.965517,,0.002655408412492271,203.209,0.7770000100135803,0.004786295617925533
203.431034,,0.001549817420023351,203.669,0.7639999985694885,-0.023700093599804246
203.896552,,0.003972570652089796,204.135,0.7670000195503235,-0.01728384079030806
204.36206900000002,,0.003245474440162281,204.603,0.8009999990463257,0.05671892257758257
204.827586,,0.0007012245054728341,205.065,0.7850000262260437,0.02184118693027588
205.293103,,0.0013581173933263691,205.532,0.777999997138977,0.006623727560200193
205.758621,,0.001966705434626545,205.994,0.7620000243186951,-0.02815055780364511
206.224138,,0.0017614634472798744,206.462,0.7429999709129333,-0.069413479641962
206.689655,,0.0016331549313161134,206.925,0.8169999718666077,0.09198223620271205
207.155172,,0.0017949833577698923,207.391,0.7789999842643738,0.009410067908966303
207.62069,,0.0018821941876226525,207.854,0.765999972820282,-0.018661699119312276
208.086207,,0.0014090388998028662,208.319,0.7829999923706055,0.018652048348859956
208.551724,,0.000395576933524857,208.784,0.7820000052452087,0.016768258938709323
209.01724099999998,,0.0001435661621381151,209.25,0.7620000243186951,-0.026500544730623913
209.482759,,0.000965337552729259,209.718,0.7590000033378601,-0.032732992759385245
209.948276,,0.003253407917274683,210.183,0.7829999923706055,0.019848399732754148
210.413793,,0.0046045649599395855,210.647,0.7559999823570251,-0.03869949555145495
210.87930999999998,,0.0037793894156476896,211.113,0.7789999842643738,0.011658502581836405
211.344828,,0.0019164790021925487,211.58,0.7860000133514404,0.02712455221847388
211.810345,,0.0005693519756321552,212.043,0.765999972820282,-0.01627292101977766
212.27586200000002,,0.00073923600338971,212.506,0.7820000052452087,0.01871558987624893
212.741379,,0.0036295176247527045,212.969,0.7590000033378601,-0.03131310060196764
213.206897,,0.007972574777641649,213.44,0.7620000243186951,-0.02474975101515167
213.672414,,0.011263832464560843,213.902,0.7919999957084656,0.040583379164894455
214.137931,,0.011220677292433852,214.368,0.7839999794960022,0.023075864178671683
214.60344800000001,,0.008305602854327819,214.832,0.7699999809265137,-0.007553363021122788
215.068966,,0.00521078802420418,215.297,0.7590000033378601,-0.03169370855352133
215.534483,,0.004168382934512867,215.763,0.7649999856948853,-0.018839729511915322
216.0,,0.005248159171283227,216.228,0.7860000133514404,0.02665823357830819
216.465517,,0.006956787379518365,216.696,0.7900000214576721,0.03509170092136657
216.93103399999998,,0.007585243495935506,217.154,0.7850000262260437,0.023898644061855667
217.39655199999999,,0.006070807630939275,217.625,0.765999972820282,-0.017805918082991375
217.862069,,0.0028399162525610424,218.087,0.753000020980835,-0.046440522280310606
218.327586,,0.00014083283423510173,218.555,0.7620000243186951,-0.02713847916847903
218.793103,,0.0002065912749725689,219.018,0.7820000052452087,0.016144758644585963
219.25862099999998,,0.0024302384561431167,219.481,0.824999988079071,0.1095635033310979
219.724138,,0.0035598649467233658,219.95,0.7689999938011169,-0.012668511239174526
220.18965500000002,,0.0015585888796289667,220.409,0.796999990940094,0.04814756741193055
220.65517200000002,,0.001727313430559128,220.879,0.7639999985694885,-0.02388734739427048
221.12069,,0.0028221546558418764,221.344,0.7730000019073486,-0.004368711246115475
221.586207,,0.000952726719666659,221.811,0.7710000276565552,-0.008762423166131227
222.051724,,0.001040204279231927,222.269,0.7620000243186951,-0.028352846537826198
222.517241,,0.0001522544552142677,222.736,0.7590000033378601,-0.03481829785069249
222.98275900000002,,0.0033795107656125448,223.202,0.7770000100135803,0.0045192156874242165
223.448276,,0.006684834378345076,223.669,0.7829999923706055,0.01776148169400745
223.913793,,0.007658801384673226,224.135,0.777999997138977,0.007082864225945201
224.37931,,0.006747215169423941,224.595,0.777999997138977,0.007335421137560742
224.844828,,0.005508414284431033,225.065,0.7670000195503235,-0.016346831199644654
225.31034499999998,,0.004757674236416516,225.525,0.777999997138977,0.007922894843687286
225.775862,,0.004653057825050857,225.995,0.7870000004768372,0.027848584049064536
226.241379,,0.005327305233368267,226.458,0.7649999856948853,-0.019759951275604558
226.706897,,0.006353999144879316,226.921,0.7850000262260437,0.02412900315118991
227.172414,,0.0064220916446186905,227.386,0.7279999852180481,-0.09975426264625745
227.63793099999998,,0.004748593998486279,227.851,0.7789999842643738,0.011630858247095172
228.103448,,0.0024789910591354603,228.316,0.765999972820282,-0.01645100493354944
228.56896600000002,,0.0017143408114350409,228.78,0.7599999904632568,-0.029322519655632248
229.03448300000002,,0.003183594336114964,229.245,0.7710000276565552,-0.005203500922276116
229.5,,0.005505228061711008,229.71,0.7990000247955322,0.055902091121505945
229.965517,,0.006728032616530202,230.176,0.777999997138977,0.01020111219163031
230.431034,,0.00600555605113918,230.643,0.7789999842643738,0.012375827149501622
230.896552,,0.003626039395042938,231.109,0.7580000162124634,-0.033435105193458985
231.362069,,0.0001244793948178623,231.569,0.7749999761581421,0.0034881086170856558
231.827586,,0.0039045228898186056,232.039,0.7820000052452087,0.018574151163842326
232.293103,,0.007358308577008791,232.503,0.7620000243186951,-0.025209301767103794
232.758621,,0.008893316730726304,232.965,0.7350000143051147,-0.08428437537552946
233.224138,,0.008086739306532366,233.431,0.7799999713897705,0.01346898701638739
233.689655,,0.006046585282096954,233.896,0.7739999890327454,8.659829490952542e-05
234.155172,,0.004510960049995381,234.362,0.7789999842643738,0.010654417211110902
234.62069,,0.004304251382275483,234.829,0.8090000152587891,0.07568393349883634
235.086207,,0.004745677370277211,235.295,0.7820000052452087,0.016536228342385183
235.55172399999998,,0.004517358279879016,235.755,0.7770000100135803,0.005333755201589436
236.01724099999998,,0.00294273452294551,236.221,0.7559999823570251,-0.04070420234493787
236.482759,,0.0003814577549535438,236.688,0.7850000262260437,0.022221587939628255
236.94827600000002,,0.0022208714520186345,237.154,0.753000020980835,-0.047711494985455405
237.413793,,0.0036944219906036393,237.614,0.7950000166893005,0.04362093926099465
237.87931,,0.0029409050822567138,238.084,0.7789999842643738,0.00864298935946635
238.344828,,7.842529172485182e-05,238.547,0.7860000133514404,0.023829433885359005
238.810345,,0.0034446975433959724,239.01,0.7820000052452087,0.015107905270142564
239.27586200000002,,0.00444637612582485,239.48,0.7480000257492065,-0.05891610986293399
239.741379,,0.0023631007474941993,239.943,0.7820000052452087,0.015262809017120349
240.206897,,0.0005918766323061269,240.409,0.7639999985694885,-0.02379577057491407
240.672414,,0.001825549347559092,240.871,0.7820000052452087,0.01562510605648081
241.137931,,0.001291852181705784,241.337,0.8600000143051147,0.1858088854012631
241.603448,,0.0010407014687739357,241.802,0.7639999985694885,-0.02305422686324328
242.068966,,0.0022018303583711337,242.267,0.765999972820282,-0.01838220619667657
242.534483,,0.003454902363921024,242.733,0.7789999842643738,0.010271716557990678
243.0,,0.0028360020954308336,243.198,0.7609999775886536,-0.028605533744796505
243.465517,,0.00039414348811096626,243.662,0.7789999842643738,0.01094543035185713
243.93103399999998,,0.0017125589390827541,244.127,0.7620000243186951,-0.025769419567559314
244.39655199999999,,0.0016398781475511597,244.595,0.7620000243186951,-0.02547038805169592
244.862069,,0.0003870427330875582,245.057,0.7850000262260437,0.02490570937912853
245.327586,,0.002813248143532055,245.526,0.7820000052452087,0.01859784418908362
245.793103,,0.004370154957368599,245.988,0.7580000162124634,-0.033507573533026476
246.258621,,0.00462417717620056,246.451,0.7889999747276306,0.034160766692299345
246.724138,,0.0037887587080270625,246.921,0.7670000195503235,-0.013694589647342168
247.18965500000002,,0.002568556727636904,247.379,0.7649999856948853,-0.018035186817329258
247.655172,,0.0016486170344417045,247.844,0.7649999856948853,-0.018077524465019035
248.12069,,0.0010296939361236375,248.31,0.777999997138977,0.010144896237510855
248.586207,,0.00035067479511955796,248.777,0.7760000228881836,0.005633279718401121
249.051724,,0.00024164253601750152,249.242,0.7749999761581421,0.003250518793067565
249.517241,,0.0003699402115784516,249.706,0.7820000052452087,0.018253555041072782
249.982759,,0.00045413909807450327,250.172,0.7099999785423279,-0.13889417136269044
250.44827600000002,,0.001391923774726747,250.636,0.6539999842643738,-0.26121593329580073
250.913793,,0.00299527295947217,251.102,0.765999972820282,-0.017548926245880943
251.37931000000003,,0.0036551642253332384,251.57,0.8009999990463257,0.05835217072340749
251.844828,,0.0020457551785109346,252.032,0.7850000262260437,0.02314608891849319
252.31034499999998,,0.0013090079856556197,252.499,0.7839999794960022,0.020634221427781232
252.77586200000002,,0.004521464879832676,252.962,0.765999972820282,-0.01889045756721935
253.241379,,0.006129326511909217,253.427,0.7799999713897705,0.011334766854542235
253.706897,,0.006173967436956638,253.891,0.765999972820282,-0.019400757866422678
254.172414,,0.00562433878098977,254.357,0.7870000004768372,0.02616515789034571
254.63793099999998,,0.004963779656432076,254.822,0.777999997138977,0.006426151158210221
255.10344800000001,,0.0036520483789766723,255.288,0.7599999904632568,-0.03286244462089246
255.56896600000002,,0.001149224109145674,255.754,0.7730000019073486,-0.004553079711907847
256.03448299999997,,0.0020101532161401455,256.22,0.7720000147819519,-0.006684559820439613
256.5,,0.004771490920275906,256.685,0.7620000243186951,-0.02836514387432114
256.965517,,0.006741956822503637,257.151,0.7820000052452087,0.01536911939769757
257.431034,,0.00790382630531861,257.614,0.7590000033378601,-0.034527907759482654
257.896552,,0.007602677843960331,258.076,0.7850000262260437,0.022373014286896652
258.362069,,0.005258079112670417,258.539,0.753000020980835,-0.04705159456613255
258.827586,,0.002099792708345282,259.009,0.7739999890327454,-0.0009809135244679525
259.29310300000003,,0.0005951452116745112,259.473,0.7820000052452087,0.016784977429640312
259.758621,,0.0014706842420815517,259.935,0.7480000257492065,-0.05694504073302628
260.224138,,0.0025742535495694384,260.401,0.8050000071525574,0.067578764438874
260.689655,,0.0017865554678675737,260.865,0.7599999904632568,-0.03013252649898279
261.155172,,0.0001390016213881212,261.331,0.7820000052452087,0.018102690126658192
261.62068999999997,,0.00046005185790499835,261.797,0.7670000195503235,-0.01430475373326965
262.086207,,0.003217454307545059,262.263,0.7820000052452087,0.01860642826959856
262.551724,,0.005552702458274036,262.724,0.7839999794960022,0.02314763278440649
263.017241,,0.004991392731480192,263.19,0.781000018119812,0.016742912441272333
263.482759,,0.0025238105278615327,263.654,0.7570000290870667,-0.03547085977162196
263.94827599999996,,0.0008357591556570386,264.121,0.777999997138977,0.010294299493663532
264.413793,,0.0005462463802843023,264.584,0.7609999775886536,-0.026789783902648176
264.87931,,0.00019765537516571672,265.054,0.7680000066757202,-0.01164545723771589
265.34482799999995,,0.002631851280656021,265.517,0.7739999890327454,0.0012641523154470113
265.810345,,0.005427904113359847,265.98,0.781000018119812,0.016302006807559496
266.27586199999996,,0.006360857088067424,266.444,0.781000018119812,0.016045632771515522
266.741379,,0.005004751275785359,266.913,0.765999972820282,-0.016926519909275108
267.206897,,0.002955892736629038,267.379,0.7789999842643738,0.011076285484806119
267.672414,,0.0015650646315471303,267.844,0.7789999842643738,0.010739234630903616
268.137931,,0.00020633538697922425,268.309,0.765999972820282,-0.017927400252242487
268.603448,,0.002634959056755541,268.77,0.777999997138977,0.007875377553564001
269.06896600000005,,0.00679905016025806,269.235,0.7620000243186951,-0.0273106139265869
269.53448299999997,,0.009851870188839661,269.702,0.7400000095367432,-0.07554598146783101
270.0,,0.009413045108408968,270.168,0.8240000009536743,0.10718787437923187
270.465517,,0.005583777916463481,270.629,0.781000018119812,0.013276005754599253
270.931034,,0.0007984385040890915,271.099,0.753000020980835,-0.047907025158478764
271.396552,,0.002269662696100749,271.562,0.7860000133514404,0.023860917196438236
271.86206899999996,,0.002524152942405331,272.024,0.7749999761581421,-0.0001739980207225965
272.327586,,0.0009339940738114915,272.492,0.7789999842643738,0.008531090193955404
272.793103,,0.0002364476986852066,272.954,0.7609999775886536,-0.03063409427636548
273.258621,,0.0008174726107080091,273.42,0.7889999747276306,0.030477002053472105
273.724138,,0.003771595487750888,273.89,0.7680000066757202,-0.015110250469612913
274.18965499999996,,0.006381718695233971,274.349,0.777999997138977,0.006890816551535515
274.655172,,0.006687449467569871,274.814,0.7820000052452087,0.01586380134418337
275.12069,,0.004701939200496679,275.28,0.7630000114440918,-0.02523629684540197
275.586207,,0.0017316429900038515,275.747,0.7860000133514404,0.025193514508705814
276.051724,,0.0011492207908544217,276.213,0.7739999890327454,-0.0006123294358064348
276.517241,,0.0032406718938787207,276.677,0.7620000243186951,-0.026411491723134728
276.98275900000004,,0.003715442456826282,277.142,0.7829999923706055,0.019680370190359404
277.448276,,0.0023845533945337336,277.606,0.7620000243186951,-0.025745366304639302
277.913793,,0.0007869827690530747,278.075,0.7739999890327454,0.0006996040959271291
278.37931,,0.0010392246292456983,278.536,0.7770000100135803,0.007503222327981986
278.844828,,0.003030626826308955,278.999,0.7599999904632568,-0.02930798338776432
279.31034500000004,,0.003774529073144781,279.469,0.753000020980835,-0.04438190475183756
279.77586199999996,,0.0005734042103128091,279.932,0.7620000243186951,-0.024652551026672253
280.241379,,0.005367247734581487,280.398,0.7820000052452087,0.018983810785933905
280.706897,,0.009382676615097096,280.864,0.7609999775886536,-0.026763848020774094
281.172414,,0.007922348169311918,281.329,0.7770000100135803,0.008039138895163087
281.637931,,0.0024340883366761887,281.791,0.7789999842643738,0.012283445517661522
282.10344799999996,,0.0019204969946439298,282.257,0.7630000114440918,-0.022741668863736565
282.568966,,0.0015558891337744938,282.722,0.7689999938011169,-0.009885731625401907
283.034483,,0.002162462490208599,283.187,0.7760000228881836,0.005106533802064574
283.5,,0.005154834734847221,283.655,0.7820000052452087,0.017886048524069414
283.965517,,0.005265001202173265,284.12,0.7760000228881836,0.004497040374905818
284.431034,,0.0035797264373329035,284.584,0.7760000228881836,0.004164638312329901
284.89655200000004,,0.0018376548432632205,285.047,0.7609999775886536,-0.028853139723382715
285.362069,,0.0002873924700693998,285.51,0.7799999713897705,0.012207752500531941
285.827586,,0.001610241747288546,285.98,0.765999972820282,-0.018611977007078874
286.293103,,0.0037049692288950004,286.44,0.753000020980835,-0.047228934772060166
286.758621,,0.005033638749384108,286.91,0.7820000052452087,0.0156899664953384
287.22413800000004,,0.004557668755631448,287.376,0.7580000162124634,-0.036818433759745986
287.689655,,0.0019055878992907326,287.84,0.7599999904632568,-0.03263462291266078
288.155172,,0.0018846017009699159,288.299,0.7839999794960022,0.019532234397132007
288.62069,,0.0043764343489863305,288.765,1.0269999504089355,0.5488850784142159
289.086207,,0.0034926643198473434,289.231,0.7620000243186951,-0.028447646376832714
289.55172400000004,,0.00028777983681067267,289.696,0.7829999923706055,0.017375385083614945
290.01724099999996,,0.003978522104839044,290.161,0.7739999890327454,-0.0021057964826048468
290.482759,,0.004634797214290004,290.625,0.781000018119812,0.01332243648357849
290.948276,,0.0017560289698760937,291.095,0.7649999856948853,-0.02131359067399108
291.413793,,0.0025957907734747527,291.558,0.7820000052452087,0.015983330197013305
291.87931,,0.005593282419424617,292.021,0.7609999775886536,-0.029479474338525203
292.344828,,0.005637386221215267,292.484,0.7789999842643738,0.010044938519317419
292.81034500000004,,0.003148806939672149,292.954,0.7860000133514404,0.025614899243904872
293.275862,,0.00010633428788528088,293.42,0.765999972820282,-0.017637772251397066
293.74137900000005,,0.0023011687765681138,293.882,0.8140000104904175,0.08724945170136611
294.206897,,0.00249692576085066,294.348,0.7739999890327454,0.0003982535871985334
294.672414,,0.0010609629940898412,294.814,0.7570000290870667,-0.036370774940308354
295.13793100000004,,0.0004705437339103328,295.279,0.7879999876022339,0.03139956565264041
295.603448,,0.000399540887861094,295.744,0.7820000052452087,0.018518393065925644
296.068966,,0.0016379697259939633,296.21,0.7760000228881836,0.0055904489722794146
296.534483,,0.004141281453695397,296.669,0.8029999732971191,0.06450725919589606
297.0,,0.004956785884188345,297.135,0.781000018119812,0.01661807075052027
297.46551700000003,,0.003050038760913708,297.602,0.781000018119812,0.016605601356080343
297.931034,,0.0008037276315684787,298.065,0.7599999904632568,-0.02921196648498273
298.396552,,0.004645586316574036,298.536,0.7599999904632568,-0.02932953360033791
298.862069,,0.0065332362513380315,298.998,0.8029999732971191,0.06418757619637185
299.327586,,0.0056942158986698806,299.466,0.847000002861023,0.15984416010362318
299.79310300000003,,0.003077831781986217,299.928,0.7870000004768372,0.028889793702267057
300.258621,,0.0007545555458741892,300.394,0.7590000033378601,-0.032373693822379125
300.724138,,0.0002974434051074574,300.857,0.777999997138977,0.008739671892578942
301.189655,,0.0013628674095582944,301.323,0.7599999904632568,-0.030768153915811006
301.65517200000005,,0.0020154086388109328,301.787,0.7620000243186951,-0.026705442081437963
302.12069,,0.000893734636721663,302.253,0.7559999823570251,-0.040066047811184606
302.586207,,0.0010709466082239809,302.718,0.7910000085830688,0.03591335931565259
303.05172400000004,,0.0017382858487611779,303.184,0.7620000243186951,-0.027516676143493755
303.517241,,0.0004942859947408799,303.644,0.7839999794960022,0.020195821617493025
303.982759,,0.0010532636642460796,304.11,0.7590000033378601,-0.034450249143181476
304.448276,,0.001349135755489368,304.58,0.800000011920929,0.05473777266958477
304.913793,,0.0007380451525761161,305.043,0.8069999814033508,0.06989998478840953
305.37931000000003,,0.00033736947094638016,305.506,0.7609999775886536,-0.030355296827344603
305.844828,,8.348580008674006e-05,305.969,0.7699999809265137,-0.01073468429106767
306.310345,,0.0008187826195251705,306.436,0.7990000247955322,0.05250838682848485
306.775862,,0.0019406101050332056,306.899,0.7839999794960022,0.019938751452072093
307.241379,,0.001716549577404786,307.364,0.7620000243186951,-0.027837381421096426
307.70689699999997,,1.7056151849592356e-05,307.829,0.7620000243186951,-0.027645672241043914
308.172414,,0.000774196988023804,308.295,0.7839999794960022,0.020507699669173002
308.637931,,0.0020929758085423663,308.762,0.9200000166893005,0.3170550303589879
309.103448,,0.007839680705546236,309.228,0.7789999842643738,0.010139055022295312
309.568966,,0.012273687503127276,309.691,0.7820000052452087,0.016959976245341013
310.034483,,0.011828652960753864,310.157,0.7599999904632568,-0.030686129183617916
310.5,,0.007332188174717052,310.621,0.7799999713897705,0.013160949740163219
310.96551700000003,,0.0030677289367443137,311.09,0.7609999775886536,-0.027977872037095543
311.431034,,0.0022248777318403102,311.551,0.7599999904632568,-0.029927835856600762
311.896552,,0.004061475820594512,312.021,0.777999997138977,0.009482722655074504
312.362069,,0.005572196463551431,312.484,0.7509999871253967,-0.04918535863094644
312.827586,,0.004885356949122026,312.947,0.777999997138977,0.009749692731766787
313.29310300000003,,0.0024611680616774957,313.412,0.753000020980835,-0.04465187535766416
313.758621,,0.0001913408690922731,313.875,0.7990000247955322,0.05558272321703028
314.224138,,0.0019487102692668844,314.341,1.0499999523162842,0.6023983984594778
314.689655,,0.002421113307492869,314.806,0.7620000243186951,-0.025113302364278303
315.155172,,0.001841893289242125,315.272,0.7820000052452087,0.01835937265938801
315.62068999999997,,0.0010203295616170382,315.736,0.7839999794960022,0.02257549233367949
316.086207,,0.0009423408979522916,316.201,0.7760000228881836,0.004969096246263922
316.551724,,0.0019573066470293192,316.666,0.7889999747276306,0.03308343008239375
317.017241,,0.0034540037524502265,317.132,0.777999997138977,0.008886187201614135
317.482759,,0.004496661243742126,317.595,0.753000020980835,-0.04582976812392777
317.94827599999996,,0.004563147859567013,318.065,0.7839999794960022,0.02144801196040457
318.413793,,0.0035693064806997105,318.529,0.9179999828338623,0.3131275216849284
318.87931000000003,,0.0016929261550275134,318.991,0.777999997138977,0.00786884297489998
319.344828,,0.0003223391851061662,319.459,0.8009999990463257,0.057746779205400264
319.810345,,0.001042709038696395,319.921,0.796999990940094,0.04882297865233533
320.275862,,0.0006756195733233845,320.387,0.6790000200271606,-0.20844072875024688
320.741379,,0.0042704479643882074,320.854,0.7620000243186951,-0.027767519532877528
321.20689699999997,,0.0072942358803003,321.32,0.7789999842643738,0.009149071604318961
321.672414,,0.007150654412063438,321.784,0.781000018119812,0.013426327972279425
322.137931,,0.0035715988779298196,322.25,0.7599999904632568,-0.0323627391692531
322.603448,,0.0005963107335469927,322.71,0.7739999890327454,-0.0018555413137594937
323.068966,,0.0018160369812868099,323.176,0.7519999742507935,-0.04973659810105595
323.53448299999997,,0.0005250588797157652,323.64,0.7350000143051147,-0.08668334555665204
324.0,,0.003574039854638042,324.106,0.8479999899864197,0.15963366628666117
324.465517,,0.00442320569895811,324.569,0.7590000033378601,-0.03409833449455094
324.931034,,0.0030787249949112,325.039,0.777999997138977,0.007496038773052192
325.396552,,0.0013849394988936705,325.499,0.7639999985694885,-0.022779819096417697
325.86206899999996,,0.00018486018964575216,325.969,0.7689999938011169,-0.011642929558336405
326.327586,,0.0011199185957325823,326.44,0.7599999904632568,-0.030996185140415494
326.793103,,0.0027902329431705023,326.895,0.7599999904632568,-0.03073846875760487
327.258621,,0.003923284617959831,327.36,0.4959999918937683,-0.6056537880790435
327.724138,,0.003504864229392544,327.825,0.8460000157356262,0.15710138753586814
328.189655,,0.001596650140487773,328.291,0.777999997138977,0.009161395135390698
328.655172,,0.0005731253584583182,328.758,0.7820000052452087,0.01806282019498225
329.12068999999997,,0.0014463783984036368,329.224,0.7599999904632568,-0.029708833944248583
329.586207,,0.0004016130301022478,329.689,0.7609999775886536,-0.027404902681181332
330.051724,,0.001408523097259876,330.154,0.781000018119812,0.016256583607771442
330.517241,,0.0018716565966420075,330.617,0.7620000243186951,-0.025088328637242856
330.982759,,0.000167889392112599,331.08,0.7730000019073486,-0.0011144020220606446
331.44827599999996,,0.0020127562809827827,331.551,0.7820000052452087,0.018461612734230318
331.913793,,0.0021737857688613263,332.013,0.6060000061988831,-0.3650550915693879
332.37931,,8.223312069395243e-05,332.481,0.781000018119812,0.01609044955587987
332.844828,,0.0025617695116365536,332.943,0.7620000243186951,-0.025459263142513622
333.310345,,0.0031860997521321495,333.408,0.7620000243186951,-0.025644780803498503
333.77586199999996,,0.0024705199534083458,333.871,0.7820000052452087,0.0177179779658386
334.241379,,0.0024994001076449083,334.337,0.7609999775886536,-0.028262098769297292
334.706897,,0.0038809131841486813,334.803,0.7739999890327454,-0.00017979350254443286
335.17241399999995,,0.0049884263035306345,335.269,0.7680000066757202,-0.013496722219283155
335.637931,,0.004368298466107002,335.736,0.7739999890327454,-0.000667734107808579
336.103448,,0.0026053052477138664,336.194,0.7599999904632568,-0.031402756328120215
336.56896600000005,,0.0011152202717370245,336.659,0.7620000243186951,-0.027264170186795212
337.034483,,4.6783773667724147e-05,337.125,0.777999997138977,0.007396773724177543
337.5,,0.0015933544981107872,337.595,0.7580000162124634,-0.036346379736659884
337.965517,,0.004077796958372288,338.057,0.7770000100135803,0.004909529346894235
338.431034,,0.006168059705863923,338.525,0.7770000100135803,0.004807046356891271
338.89655200000004,,0.006360759971982821,338.988,0.7639999985694885,-0.02357910507420038
339.36206899999996,,0.004379570678533336,339.451,0.7789999842643738,0.009077140669691355
339.827586,,0.0011843059112099622,339.921,0.8299999833106995,0.12020676453219743
340.293103,,0.0020317904582766266,340.379,0.777999997138977,0.006977986836651773
340.758621,,0.004360306717031323,340.847,0.7820000052452087,0.01579304735092754
341.224138,,0.005036438758782687,341.312,0.7870000004768372,0.026822307428569763
341.68965499999996,,0.0037258015456322455,341.777,0.7570000290870667,-0.038370002434787595
342.155172,,0.0012977894495912405,342.243,0.7739999890327454,-0.0011406385834874236
342.62069,,0.00044272532089985415,342.71,0.7620000243186951,-0.02707250852971332
343.086207,,0.0005746604602745743,343.169,0.7599999904632568,-0.031204992143923995
343.551724,,0.00033171714460505106,343.636,0.7630000114440918,-0.024437820771533395
344.01724099999996,,0.0017807342193455781,344.102,0.7889999747276306,0.03243840026317202
344.48275900000004,,0.00521832629568443,344.569,0.777999997138977,0.008699246142833888
344.948276,,0.008594188131224118,345.032,0.7599999904632568,-0.030302611001722227
345.413793,,0.009743400741507244,345.495,0.7860000133514404,0.026537710767983065
345.87931,,0.008513115781957825,345.965,0.7599999904632568,-0.029935520942085986
346.344828,,0.006216555672247309,346.431,0.7820000052452087,0.018138046602793945
346.81034500000004,,0.0036817524188332202,346.889,0.7820000052452087,0.018249351964529523
347.275862,,0.0008950228168412928,347.355,0.7630000114440918,-0.02306846968646569
347.741379,,0.0015627353425287328,347.822,0.7609999775886536,-0.027386814033520036
348.206897,,0.002067770654323224,348.287,0.7620000243186951,-0.02520775549459178
348.672414,,0.00021180545377563227,348.755,0.753000020980835,-0.04485390060008698
349.13793100000004,,0.0036275279029356847,349.221,0.7910000085830688,0.03785964021909455
349.60344799999996,,0.005125537849584728,349.68,0.7620000243186951,-0.025429912251271617
350.068966,,0.0030679941796782004,350.146,0.7820000052452087,0.01800398034396235
350.534483,,0.0012690151828267933,350.614,0.7860000133514404,0.02655371174954217
351.0,,0.004774126936955233,351.076,0.777999997138977,0.008938992026707756
351.465517,,0.005010111349352587,351.544,0.777999997138977,0.008738030711089308
351.93103399999995,,0.0022657232907709783,352.006,0.7620000243186951,-0.02633144986669564
352.396552,,0.0006115769707190987,352.469,0.7860000133514404,0.025740576449915682
352.862069,,0.0009882056337236075,352.939,0.7839999794960022,0.021169888005875413
353.32758600000005,,0.0007863643877463473,353.405,0.7770000100135803,0.005714460418545052
353.793103,,0.0021477951816621394,353.868,0.7699999809265137,-0.009727552582375445
354.258621,,0.0020117567920059577,354.333,0.7820000052452087,0.01624344206611229
354.72413800000004,,0.0024532088068166726,354.799,0.753000020980835,-0.047087243894955486
355.189655,,0.005826210255412971,355.265,0.7820000052452087,0.015970260514671885
355.655172,,0.011156493141443832,355.725,0.7620000243186951,-0.027695981634691072
356.12069,,0.01475571179171924,356.191,0.7820000052452087,0.01581620435100192
356.586207,,0.014320107969923706,356.658,0.7670000195503235,-0.016890145772446435
357.05172400000004,,0.01136980832888906,357.124,0.7789999842643738,0.009261613332064936
357.517241,,0.009191906813599594,357.586,0.7710000276565552,-0.008125151808521563
357.982759,,0.008901513237530799,358.055,0.7820000052452087,0.015915340773673844
358.448276,,0.008355644829004976,358.518,0.7620000243186951,-0.02755150433668314
358.913793,,0.005195423867825656,358.979,0.7580000162124634,-0.03613302039985678
359.37931000000003,,0.000127408165245005,359.447,0.7590000033378601,-0.033798586446650875
359.844828,,0.003825834592069357,359.91,0.777999997138977,0.007770233856574338
360.310345,,0.005019085904765175,360.376,0.7699999809265137,-0.009470041577339822
360.775862,,0.004859623686858926,360.84,0.7850000262260437,0.023408365298329445
361.241379,,0.005561538919682551,361.306,0.7699999809265137,-0.009068579630766217
361.706897,,0.007442189877090718,361.773,0.7559999823570251,-0.03936852583202959
362.172414,,0.009238994358585224,362.238,0.777999997138977,0.008755322178806042
362.63793100000004,,0.01023135892873889,362.702,0.7609999775886536,-0.02810081308746127
363.103448,,0.0107858500717384,363.168,0.7850000262260437,0.02435059498743546
363.568966,,0.010978403006441654,363.629,0.7789999842643738,0.01142118880270604
364.034483,,0.009959583626730757,364.098,0.7620000243186951,-0.025498231580390485
364.5,,0.007240087613935412,364.561,0.781000018119812,0.015985027923883278
364.96551700000003,,0.0038775345644783566,365.024,0.7609999775886536,-0.027530054366592675
365.431034,,0.001628528484178783,365.492,0.7599999904632568,-0.029683578801212467
365.896552,,0.0010715368789477528,365.954,0.7829999923706055,0.02041694322554286
366.362069,,0.0010863776033548222,366.42,0.7799999713897705,0.013840086242044162
366.827586,,0.0002233126981816807,366.89,0.781000018119812,0.015946997828695277
367.29310300000003,,0.001815121764643773,367.356,0.6420000195503235,-0.28698872452454827
367.758621,,0.004183908968303076,367.814,0.7630000114440918,-0.02350735735689673
368.224138,,0.005891000088700048,368.279,0.765999972820282,-0.0171325078226615
368.689655,,0.00625121054890307,368.751,0.7820000052452087,0.01754641948108214
369.155172,,0.004666486169874005,369.209,0.7870000004768372,0.02824749710799712
369.62068999999997,,0.0009635854459554502,369.677,0.7850000262260437,0.023691355219991012
370.086207,,0.0036674768156251293,370.142,0.6119999885559082,-0.3534183400456235
370.55172400000004,,0.006899060319074088,370.61,0.7490000128746033,-0.055149256025273714
371.017241,,0.007219834641394403,371.073,0.7139999866485596,-0.1316033900658542
371.482759,,0.005290684861493657,371.536,0.9620000123977661,0.4085167000300628
371.948276,,0.002779119428372905,372.006,0.7850000262260437,0.022737910970054724
372.413793,,0.00041627310115663937,372.466,0.8640000224113464,0.19472423536147282
372.87931000000003,,0.001968855284667166,372.929,0.7950000166893005,0.04430303974304619
373.344828,,0.004071573019401655,373.395,0.765999972820282,-0.018939166921127834
373.810345,,0.005038683882719132,373.866,0.7670000195503235,-0.016789810075180593
374.275862,,0.004748137326359781,374.324,0.7609999775886536,-0.029859686074741598
374.741379,,0.004004125066144178,374.795,0.7760000228881836,0.0028532201097985843
375.20689699999997,,0.0031197024125763635,375.261,0.7789999842643738,0.009452171344920438
375.672414,,0.0013421322767738894,375.726,0.777999997138977,0.0073647920570964875
376.137931,,0.001558375215787903,376.184,0.7789999842643738,0.009659869598581217
376.603448,,0.0038789144880841003,376.651,0.777999997138977,0.007619296853826558
377.068966,,0.0033047714376956,377.117,0.7639999985694885,-0.022726583577224735
377.53448299999997,,0.00039738280113764434,377.584,0.7590000033378601,-0.03345263593946981
378.0,,0.004778048458452318,378.046,0.7639999985694885,-0.02238535822357895
378.465517,,0.006893237067855939,378.514,0.8529999852180481,0.17169221999454928
378.931034,,0.005689722316834548,378.977,0.7789999842643738,0.010650949183640656
379.396552,,0.0025057131339709026,379.44,0.7620000243186951,-0.026212590196068142
379.862069,,5.251866297213939e-05,379.91,0.7609999775886536,-0.02823003739047266
380.327586,,6.67165457475148e-05,380.375,0.7620000243186951,-0.025906697176775337
380.79310300000003,,0.0026107110043507606,380.84,0.765999972820282,-0.017067949021834252
381.258621,,0.004893754799011907,381.305,0.777999997138977,0.009177173215095459
381.724138,,0.004340564835738429,381.765,0.7559999823570251,-0.03867708806214974
382.189655,,0.0013947030371482777,382.231,0.777999997138977,0.009302261259328572
382.655172,,0.001101163878711146,382.696,0.7770000100135803,0.0071452156144091485
383.12068999999997,,0.0015698844645925258,383.161,0.7519999742507935,-0.04732713817349578
383.586207,,0.0012238326190314854,383.625,0.7620000243186951,-0.025574285132675866
384.051724,,0.0013456566708155674,384.095,0.7839999794960022,0.022296207802328206
384.517241,,0.0009547763887660359,384.558,0.7599999904632568,-0.030074300414960644
384.982759,,0.0012103448511752535,385.021,0.7820000052452087,0.01775243567016504
385.44827599999996,,0.003701336897486145,385.484,0.7630000114440918,-0.02376287949371795
385.913793,,0.0034852917379580885,385.954,0.7760000228881836,0.004424712496579703
386.37931,,0.00019061061747584145,386.42,0.7540000081062317,-0.04365075502601547
386.84482799999995,,0.004756357631778844,386.883,0.7749999761581421,0.0019492689587498756
387.310345,,0.0072993312916190154,387.348,0.7620000243186951,-0.026526692424366873
387.775862,,0.007250366257066156,387.814,0.7990000247955322,0.053932360514422864
388.241379,,0.005741320330936056,388.279,0.7820000052452087,0.016751760601522656
388.70689699999997,,0.003536567133854784,388.743,0.781000018119812,0.01444075460300882
389.172414,,0.0006373249913493397,389.209,0.7590000033378601,-0.033608341223242987
389.637931,,0.0024482093954394366,389.669,0.7770000100135803,0.00550447153872577
390.103448,,0.004134962391996769,390.135,0.7900000214576721,0.03374276503764137
390.56896600000005,,0.003069521506887093,390.603,0.7620000243186951,-0.02732278993141235
391.03448299999997,,0.0001748746635485793,391.065,0.7910000085830688,0.03581632874314615
391.5,,0.003164265397303813,391.532,0.8080000281333923,0.0728349057502118
391.965517,,0.003528055350985408,391.995,0.781000018119812,0.014016642104930276
392.431034,,0.0007981145822137522,392.466,0.777999997138977,0.0075082653953411245
392.896552,,0.0034471360892317816,392.928,0.7329999804496765,-0.09048378773614736
393.36206899999996,,0.006909935011609544,393.394,0.7739999890327454,-0.0010950662640192088
393.827586,,0.008028996651873137,393.857,0.7620000243186951,-0.027159386503220702
394.293103,,0.006556817408072974,394.323,0.7900000214576721,0.03393600926562486
394.75862099999995,,0.0033292704400781116,394.788,0.7820000052452087,0.01661192361946116
395.224138,,0.00010033931054904488,395.254,0.7329999804496765,-0.09002838175463695
395.68965499999996,,0.0019361293632860815,395.721,0.7850000262260437,0.02337952147013108
396.155172,,0.0013123414234446774,396.179,0.7519999742507935,-0.04839599257714281
396.62069,,0.0005225292951120292,396.644,0.753000020980835,-0.04609832980677901
397.086207,,0.0010249394201678546,397.109,0.7630000114440918,-0.0241971641705491
397.551724,,0.0008667756103454313,397.58,0.8510000109672546,0.16763397746551792
398.017241,,0.0033207489773583497,398.043,0.7760000228881836,0.004340342629073292
398.48275900000004,,0.0037344990917594005,398.506,0.7749999761581421,0.002258158606026752
398.94827599999996,,0.0017716151512458935,398.969,0.7820000052452087,0.017593415960562853
399.413793,,0.0006828773510939659,399.44,0.7820000052452087,0.017664527984752806
399.87931,,0.002262871206012005,399.902,0.7710000276565552,-0.006244621153052939
400.344828,,0.0033949264832008187,400.368,0.7820000052452087,0.01775982380239308
400.810345,,0.004489669692597329,400.833,0.7749999761581421,0.002531206041170025
401.27586199999996,,0.00444999440722594,401.298,0.7599999904632568,-0.03014467029249983
401.741379,,0.002334220898460878,401.765,0.7760000228881836,0.004699018203107695
402.206897,,0.00048583901460969996,402.231,0.7599999904632568,-0.030192407927335702
402.672414,,0.0016998895076575642,402.696,0.7609999775886536,-0.028064423043884956
403.137931,,0.0014831957127103804,403.154,0.5669999718666077,-0.4507933384661046
403.60344799999996,,0.0027629053473152464,403.625,0.7760000228881836,0.004451744194047622
404.068966,,0.007342965859508062,404.088,0.7820000052452087,0.01741605524844931
404.534483,,0.012929264036234808,404.551,0.777999997138977,0.008586217523303423
405.0,,0.01523975606682976,405.02,0.7620000243186951,-0.026392129574625677
405.465517,,0.012802070636824217,405.481,0.7789999842643738,0.010522914166345198
405.931034,,0.008408939303242302,405.944,0.7580000162124634,-0.03534925817282962
406.39655200000004,,0.005414890507126751,406.41,0.777999997138977,0.008107422335817403
406.862069,,0.003859379371282261,406.88,0.7870000004768372,0.0276068432886282
407.327586,,0.001521559615490658,407.345,0.7910000085830688,0.03622433174614852
407.793103,,0.0019563578172259615,407.811,0.765999972820282,-0.018325651592487995
408.258621,,0.0038734500004983675,408.269,0.7599999904632568,-0.031466833155953826
408.72413800000004,,0.0017742972330525076,408.736,0.7820000052452087,0.016409689533154644
409.18965499999996,,0.0032415627210249445,409.202,0.7630000114440918,-0.025021490842588315
409.655172,,0.007162892077767798,409.666,0.7490000128746033,-0.05554246052137877
410.12069,,0.0066498623556939754,410.132,0.7760000228881836,0.0032779928166779735
410.586207,,0.0019291556186212162,410.595,0.7609999775886536,-0.029387893053685207
411.05172400000004,,0.003452069555306027,411.065,0.699999988079071,-0.1622562675791673
411.51724099999996,,0.005782239369637685,411.529,0.7910000085830688,0.03604355743583037
411.982759,,0.0044089429612412375,411.992,0.8159999847412109,0.09056752639243884
412.448276,,0.0018327443064480248,412.455,0.7839999794960022,0.020924166546883935
412.913793,,0.00079282428196137,412.924,0.7979999780654907,0.051511918146718905
413.37931,,0.001829474641665585,413.39,0.7820000052452087,0.016750817373170246
413.844828,,0.00361106668066361,413.854,0.7940000295639038,0.04299974915625778
414.31034500000004,,0.004634366405288899,414.32,0.7860000133514404,0.0256806643051529
414.775862,,0.004169371680074923,414.785,0.7639999985694885,-0.022137879047221275
415.241379,,0.0023921764479342654,415.25,0.7820000052452087,0.01718761000350006
415.706897,,0.00034333373147815395,415.71,0.75,-0.0524246033344323
416.172414,,0.0006159614997248884,416.175,0.7580000162124634,-0.03489944114088105
416.63793100000004,,0.00012541704963159707,416.64,0.7609999775886536,-0.02827895639081096
417.103448,,0.0019261838369767103,417.105,0.7879999876022339,0.03061660235792579
417.568966,,0.0034008337046929705,417.573,0.7789999842643738,0.011067337037954747
418.034483,,0.003165532238662461,418.036,0.7630000114440918,-0.023747318631785405
418.5,,0.000691977086045992,418.499,0.7799999713897705,0.013316965732967286
418.96551700000003,,0.0025780528991270354,418.969,0.7630000114440918,-0.02370952101407413
419.43103399999995,,0.0036109272975070965,419.435,0.7649999856948853,-0.019359084879042893
419.896552,,0.0009028864162628288,419.899,0.7889999747276306,0.032904932756543055
420.362069,,0.0031535021492037126,420.365,0.7630000114440918,-0.023778941939383236
420.827586,,0.0049113178221968125,420.824,0.777999997138977,0.008847036896782887
421.293103,,0.004173114525292839,421.29,0.7820000052452087,0.017494893949323822
421.758621,,0.003985490238692903,421.754,0.7870000004768372,0.028310645266632045
422.22413800000004,,0.005752720923045412,422.22,0.7630000114440918,-0.02406330442225128
422.689655,,0.007205167295130804,422.684,0.7609999775886536,-0.028514621649939734
423.15517200000005,,0.006089174066575986,423.149,0.7699999809265137,-0.009006244762733909
423.62069,,0.0036432321088030973,423.617,0.7730000019073486,-0.0025723704740977424
424.086207,,0.0028497461743029803,424.08,0.7739999890327454,-0.0004956202396653449
424.55172400000004,,0.004382183087953695,424.551,0.777999997138977,0.008120120372528607
425.017241,,0.005776019759738381,425.013,0.7620000243186951,-0.026831721919753724
425.482759,,0.00447275598479269,425.477,0.7850000262260437,0.023191322916787223
425.948276,,0.0008562541931295281,425.939,0.6320000290870667,-0.3102204017226367
426.413793,,0.001978106861444894,426.405,0.7820000052452087,0.016505613870955838
426.87931000000003,,0.001312123855996438,426.875,0.765999972820282,-0.018412577792870005
427.344828,,0.0024038822846927676,427.334,0.7870000004768372,0.027295412051386154
427.810345,,0.0058659708753478175,427.799,0.777999997138977,0.0076616286362971315
428.275862,,0.006072858240533679,428.264,0.7739999890327454,-0.0010602334517001092
428.741379,,0.003087624305535177,428.736,0.7620000243186951,-0.02719264174296424
429.20689699999997,,0.00040482110444113996,429.194,0.7440000176429749,-0.06637944256275775
429.672414,,0.0019160025330875752,429.659,0.7829999923706055,0.01863358649644306
430.137931,,0.0010421943696753695,430.125,0.7450000047683716,-0.06409302614185151
430.603448,,0.0011093251588778575,430.595,0.7879999876022339,0.02966580760664201
431.068966,,0.003262377734834688,431.058,0.7649999856948853,-0.02035266958570195
431.534483,,0.004313496346176552,431.521,0.7739999890327454,-0.0006430374467447913
432.0,,0.003315413263225227,431.984,0.8370000123977661,0.13672344240282103
432.46551700000003,,0.00024926987174580465,432.454,0.824999988079071,0.11070014301014725
432.931034,,0.003273846485239892,432.917,0.7739999890327454,-0.0002850715966188525
433.396552,,0.004976579712777837,433.383,0.7789999842643738,0.010733621312322172
433.862069,,0.004077794636627141,433.85,0.7689999938011169,-0.010932611591943375
434.327586,,0.0022450506735238623,434.309,0.7580000162124634,-0.034786898973010245
434.79310300000003,,0.0018995367279850245,434.78,0.765999972820282,-0.017260359544199112
435.258621,,0.0035196628078540157,435.246,0.7870000004768372,0.02857279187938221
435.724138,,0.005173123952972266,435.711,0.7739999890327454,0.0003138398741564369
436.189655,,0.005045444597900461,436.169,0.6919999718666077,-0.17829364424684996
436.655172,,0.003821145376270567,436.637,0.7889999747276306,0.033052425734738114
437.12068999999997,,0.00380922770611213,437.103,0.7720000147819519,-0.003991047398078947
437.586207,,0.00603394480068618,437.566,0.7739999890327454,0.0003373205102953035
438.051724,,0.00917227786776921,438.036,0.7839999794960022,0.02207321489214631
438.517241,,0.011426998261640809,438.499,0.7599999904632568,-0.030285312407288205
438.982759,,0.012250932460926199,438.962,0.765999972820282,-0.01730345524301326
439.448276,,0.011532109835104292,439.427,0.746999979019165,-0.05880483273086212
439.913793,,0.008387013006972652,439.891,0.7850000262260437,0.02386305217816318
440.37931000000003,,0.0025617881430094395,440.357,0.7580000162124634,-0.03509109098115504
440.844828,,0.00343432399100309,440.822,0.8429999947547913,0.14995893146665368
441.310345,,0.005771054760966854,441.287,0.7689999938011169,-0.011395448726061097
441.775862,,0.003483372132254211,441.754,0.7799999713897705,0.012439069131378617
442.241379,,0.0002623537096826345,442.22,0.7710000276565552,-0.007292784130990808
442.70689699999997,,0.0017750943934003974,442.685,0.7739999890327454,-0.0008710351601157504
443.172414,,0.0005652092560781876,443.15,0.7649999856948853,-0.02057982699547266
443.637931,,0.0011781794400822269,443.613,0.7789999842643738,0.009836493305045591
444.103448,,0.0016375036400513737,444.075,0.7749999761581421,0.0010561420643546951
444.568966,,0.0007330644329276275,444.543,0.765999972820282,-0.01859643959325931
445.03448299999997,,0.0008420595433300171,445.007,0.7820000052452087,0.016239611750807372
445.5,,0.002488033575892729,445.47,0.7689999938011169,-0.012081959358965836
445.965517,,0.00356528057467707,445.939,0.7739999890327454,-0.0011645104294477982
446.431034,,0.003536713692412143,446.405,0.7480000257492065,-0.05776288842871056
446.896552,,0.002604683293539546,446.868,0.75,-0.05333905891032383
447.36206899999996,,0.0015615487913218204,447.333,0.7620000243186951,-0.027110408555324497
447.827586,,0.0007938767912379169,447.799,0.828000009059906,0.116782892338602
448.29310300000003,,4.5895151209772466e-05,448.264,0.7870000004768372,0.02757753680936106
448.758621,,0.0011377482153872513,448.729,0.7310000061988831,-0.09429545824710382
449.224138,,0.0017828035597550879,449.195,0.7620000243186951,-0.02661994533823893
449.689655,,0.0013283957928385346,449.654,0.7820000052452087,0.017092870525472457
450.155172,,0.0007380671336341806,450.12,0.7580000162124634,-0.03505544576432843
450.62068999999997,,0.0020771796865448906,450.588,0.7609999775886536,-0.028385485483626082
451.086207,,0.005721985546583693,451.05,0.7620000243186951,-0.026082015967578923
451.551724,,0.009091594666972045,451.519,0.777999997138977,0.00888839225699124
452.017241,,0.009212104684323742,451.981,0.7559999823570251,-0.03894558237074776
452.482759,,0.005825992923473416,452.444,0.7839999794960022,0.022134318518382094
452.94827599999996,,0.0011536081359769604,452.913,0.7580000162124634,-0.03445357276535299
453.413793,,0.0024312211969839443,453.379,0.7850000262260437,0.024404346623635293
453.87931,,0.0035991145894828367,453.844,0.7870000004768372,0.0287728298606479
454.344828,,0.002209994334188062,454.31,0.753000020980835,-0.04531365286622289
454.810345,,0.00037377059953292823,454.77,0.7820000052452087,0.01783045158921001
455.27586199999996,,0.0019717345464858992,455.235,0.781000018119812,0.015592186365811302
455.741379,,0.00186585393848212,455.7,0.7730000019073486,-0.0019177753597081145
456.206897,,0.0017949172801766705,456.165,0.7620000243186951,-0.025983097137583556
456.672414,,0.0036330247983600394,456.639,0.7639999985694885,-0.021743408097712063
457.137931,,0.006638675687731916,457.098,0.7730000019073486,-0.00226716260239369
457.603448,,0.008025951401820696,457.566,0.6690000295639038,-0.2289901586055478
458.06896600000005,,0.006093079185224033,458.028,0.777999997138977,0.008329525835298017
458.53448299999997,,0.002104599170927325,458.496,0.7820000052452087,0.016888414354638438
459.0,,0.0010406274050778564,458.958,0.7620000243186951,-0.02683643950539612
459.465517,,0.001641017666134899,459.424,0.7839999794960022,0.02095001654099257
459.931034,,0.0003472901194467424,459.887,0.6359999775886536,-0.3016235275117253
460.39655200000004,,0.0012773937378201814,460.352,0.7620000243186951,-0.02723536204443726
460.86206899999996,,0.0024814443581977915,460.817,0.7630000114440918,-0.025160791290435136
461.327586,,0.0032262176026447717,461.283,0.7739999890327454,-0.001275874848355614
461.793103,,0.0032551826730816084,461.748,0.765999972820282,-0.018758242102609957
462.258621,,0.0022200817831625466,462.213,0.7630000114440918,-0.02531829704603853
462.724138,,0.00034056108898458616,462.681,0.753000020980835,-0.04709929744634325
463.18965499999996,,0.0019175889341030692,463.139,0.7649999856948853,-0.02092040672630654
463.655172,,0.0044393563099241655,463.61,0.7649999856948853,-0.020855938511542604
464.12069,,0.006817988841204541,464.072,0.781000018119812,0.014095195649577414
464.58620699999994,,0.0076303110208689896,464.536,0.6700000166893005,-0.22761799337859515
465.051724,,0.00577171436664001,464.999,0.7789999842643738,0.009990679965415972
465.517241,,0.0025086775560320958,465.469,0.7850000262260437,0.02321598674766697
465.98275900000004,,0.0007777115705147321,465.932,0.75,-0.052868973151349946
466.448276,,0.0018804180457375724,466.397,0.800000011920929,0.05624057520788856
466.913793,,0.0037832122963414954,466.864,0.7490000128746033,-0.05468936162532694
467.37931,,0.0034380788038044147,467.329,0.7990000247955322,0.054422741774604176
467.844828,,0.0004162899560741836,467.795,0.7770000100135803,0.006665292839182884
468.31034500000004,,0.002554699334632712,468.261,0.7599999904632568,-0.030211485514164475
468.77586199999996,,0.002849670283087716,468.726,0.7699999809265137,-0.00828346781241365
469.241379,,0.0010316870207016725,469.184,0.7630000114440918,-0.023416054570975613
469.706897,,2.713597084405176e-05,469.651,0.7689999938011169,-0.010254073743994094
470.172414,,0.0012332298226015513,470.117,0.7739999890327454,0.0006983706406088644
470.63793100000004,,0.0032826509316993004,470.58,0.7620000243186951,-0.025419385211716855
471.10344799999996,,0.0035480704833401574,471.05,0.753000020980835,-0.045036447864687384
471.568966,,0.0014522322933506618,471.511,0.781000018119812,0.01592101197079994
472.034483,,0.0011973307313602253,471.974,0.7580000162124634,-0.03426684864485839
472.5,,0.00242054203613103,472.444,0.7229999899864197,-0.11063181374181145
472.965517,,0.0018608612901978225,472.906,0.7609999775886536,-0.0279865881729463
473.43103399999995,,0.0005190336093583119,473.371,0.777999997138977,0.008881067368404593
473.89655200000004,,0.0003353858861433657,473.836,0.7829999923706055,0.019585364869119205
474.362069,,0.00014355396380066147,474.301,0.777999997138977,0.008489813061522668
474.827586,,0.0017106370113779753,474.765,0.7820000052452087,0.016994913530800248
475.293103,,0.002680375930502944,475.231,0.7620000243186951,-0.026788577320923233
475.758621,,0.0012938308346939016,475.696,0.7699999809265137,-0.009564997087076336
476.22413800000004,,0.0020077380566389668,476.162,0.7789999842643738,0.009848968875686823
476.689655,,0.004590071598179815,476.625,0.7850000262260437,0.022745532670639786
477.155172,,0.004483707844687599,477.095,0.7749999761581421,0.0008078857973666084
477.62069,,0.002367411062897563,477.558,0.7829999923706055,0.018115329804813944
478.086207,,0.0001637751551237369,478.021,0.7730000019073486,-0.0037596209736919855
478.55172400000004,,0.0012358011445559962,478.484,0.781000018119812,0.013617473389333844
479.01724099999996,,0.00195892034334299,478.954,0.7459999918937683,-0.06264963595797984
479.482759,,0.001974186850673712,479.42,0.7829999923706055,0.017984248967954364
479.948276,,0.0012485156830584435,479.883,0.7639999985694885,-0.023347957308437688
480.413793,,0.0003878790647181827,480.348,0.7820000052452087,0.015966931921416717
480.87931000000003,,0.00018953625313005535,480.814,0.777999997138977,0.007386149123409288
481.344828,,0.0012257833145222106,481.279,0.7580000162124634,-0.03602229509845523
481.810345,,0.0034402826721817224,481.743,0.7699999809265137,-0.009688801686295462
482.275862,,0.005662166087658799,482.209,0.765999972820282,-0.01819397135732565
482.74137900000005,,0.005600715679573238,482.673,0.781000018119812,0.014709056458358431
483.206897,,0.0027938401078119635,483.139,0.7820000052452087,0.017118349833510453
483.672414,,0.00030984596307532364,483.603,0.7820000052452087,0.0173497339910832
484.13793100000004,,0.0010009144517345988,484.065,0.7860000133514404,0.026289330140643403
484.603448,,0.00033773453755382834,484.533,0.7760000228881836,0.0047142896663551715
485.068966,,0.0004044917352462522,484.995,0.7590000033378601,-0.03213231106212558
485.534483,,0.003087034131920927,485.466,0.7649999856948853,-0.018897843534198
486.0,,0.008225116242079895,485.928,0.7689999938011169,-0.010053889323024524
486.46551700000003,,0.010645909358041819,486.394,0.7739999890327454,0.0009313875051316597
486.931034,,0.008427980896985935,486.858,0.777999997138977,0.009697825676980356
487.396552,,0.0040766842811095945,487.323,0.7599999904632568,-0.029508396950117723
487.862069,,0.001338187035834479,487.788,0.8240000009536743,0.10989217328154118
488.327586,,0.0014044638947847772,488.254,0.7749999761581421,0.0030645257166122754
488.79310300000003,,0.002936966221201174,488.721,0.7599999904632568,-0.02972885792148727
489.258621,,0.004284518128278474,489.179,0.7609999775886536,-0.02770222425977262
489.724138,,0.004325729582558183,489.644,0.7910000085830688,0.03747162951571142
490.189655,,0.00229867227157956,490.11,0.7860000133514404,0.02636544786376697
490.655172,,0.001399411740672402,490.58,0.781000018119812,0.01523858796685496
491.12069,,0.004599793306795205,491.043,0.7620000243186951,-0.026403683309678554
491.586207,,0.005128364778499534,491.506,0.7789999842643738,0.010378014374662594
492.05172400000004,,0.003356467744751785,491.969,0.7620000243186951,-0.026913697620906313
492.517241,,0.0017827807994949614,492.435,0.7519999742507935,-0.048947159490224455
492.982759,,0.0017430593093265459,492.906,0.7789999842643738,0.00964503257210161
493.448276,,0.001830092479265782,493.364,0.7850000262260437,0.0225095163453555
493.913793,,0.000483354181284219,493.829,0.7789999842643738,0.009261262655477416
494.37931000000003,,0.0010753595007128882,494.294,0.7599999904632568,-0.03227270623149898
494.844828,,0.0002360609946195816,494.765,0.7580000162124634,-0.036729062680589106
495.310345,,0.003112772245434516,495.224,0.7630000114440918,-0.025891161240662874
495.775862,,0.005980216726580243,495.696,0.7860000133514404,0.02420908732936839
496.241379,,0.0058484967163512855,496.154,0.777999997138977,0.006819489104061152
496.70689699999997,,0.0034316624319757957,496.625,0.7599999904632568,-0.0323091076885875
497.172414,,0.0013961163003292068,497.087,0.7599999904632568,-0.03217748936756752
497.637931,,0.0013630240310899332,497.551,0.7919999957084656,0.03771215469465262
498.103448,,0.002742210849711753,498.021,0.781000018119812,0.013957287965026295
498.568966,,0.003927464528540093,498.484,0.7590000033378601,-0.03373176044675942
499.03448299999997,,0.0039774942815460025,498.947,0.7820000052452087,0.01664172678442746
499.5,,0.003069658335136518,499.412,0.7860000133514404,0.02563672893319348
499.96551700000003,,0.0016850028180165992,499.875,0.8679999709129333,0.20457563607499063
500.431034,,0.00016711569048471087,500.341,0.777999997138977,0.008788815760754607
500.89655200000004,,0.002727292884093629,500.807,0.7620000243186951,-0.025787604941380573
501.362069,,0.005734345658626675,501.272,0.7850000262260437,0.02458258670366016
501.827586,,0.008169439697495525,501.737,0.7910000085830688,0.03788711692417478
502.293103,,0.008801978292819179,502.202,0.7839999794960022,0.02283332384219685
502.758621,,0.007096329560449369,502.669,0.7839999794960022,0.02298736175087048
503.224138,,0.0038003919766771135,503.134,0.7829999923706055,0.020914350622964043
503.68965499999996,,0.0005819908140825471,503.595,0.781000018119812,0.016610183805320727
504.15517200000005,,0.0011719345874871647,504.065,0.8399999737739563,0.14514952992172309
504.62068999999997,,0.0011872920621094326,504.529,0.7549999952316284,-0.04009058254896371
505.08620699999994,,2.3524773728157092e-05,504.991,0.7620000243186951,-0.024950081164788983
505.55172400000004,,0.0018043851002109213,505.459,0.7820000052452087,0.018459374182564225
506.017241,,0.0034079447557971904,505.922,0.6579999923706055,-0.2519069809863998
506.48275899999993,,0.003993760021732174,506.387,0.7620000243186951,-0.025587627149638623
506.948276,,0.0031472270524255976,506.854,0.7599999904632568,-0.030242182444665672
507.413793,,0.0012509987704625095,507.32,0.8769999742507935,0.22433897132763284
507.87931,,0.0008337223233360454,507.784,0.7860000133514404,0.025750390096097378
508.344828,,0.002217752279667743,508.25,0.7789999842643738,0.010166537549664009
508.810345,,0.002243331312761232,508.714,0.777999997138977,0.007661637044467077
509.27586199999996,,0.0009904191042751434,509.18,0.7559999823570251,-0.040578083227728066
509.74137900000005,,0.0003124063422779716,509.64,0.7820000052452087,0.015784036098069224
510.20689699999997,,0.000141765808495172,510.105,0.7649999856948853,-0.021499662106501633
510.67241399999995,,0.001606708506042807,510.573,0.7580000162124634,-0.0369525313408481
511.13793100000004,,0.003363246076154156,511.036,0.777999997138977,0.006469056898323617
511.603448,,0.0038627867544578473,511.499,0.7599999904632568,-0.03284119794935916
512.0689659999999,,0.003723895304570321,511.969,0.777999997138977,0.006340532633203409
512.534483,,0.004219794396405254,512.435,0.777999997138977,0.006369344642948679
513.0,,0.005035367833207732,512.898,0.7699999809265137,-0.010968226634220654
513.465517,,0.004582583140931973,513.364,0.7639999985694885,-0.023888129327995663
513.931034,,0.0025968010915046955,513.829,0.7860000133514404,0.024250387878206537
514.396552,,0.0010031315283323078,514.295,0.824999988079071,0.10947761013630081
514.862069,,0.001421708698515398,514.754,0.7710000276565552,-0.007864482338250147
515.327586,,0.0027068417849450124,515.22,0.7990000247955322,0.053477451320574194
515.793103,,0.0020369825867602143,515.684,0.7789999842643738,0.01026814844789971
516.258621,,0.0016675880671700506,516.15,0.7390000224113464,-0.07650237683323752
516.724138,,0.0061487111867945966,516.618,0.7649999856948853,-0.019483945491885153
517.189655,,0.007994757421424763,517.08,0.847000002861023,0.15952701251824233
517.655172,,0.006238518471011022,517.551,0.7620000243186951,-0.025318157967418348
518.1206900000001,,0.003271441461457414,518.013,0.7760000228881836,0.005488581250501399
518.5862070000001,,0.0019504136770997866,518.477,0.6919999718666077,-0.1772596193774022
519.051724,,0.0023939932975927235,518.939,0.7820000052452087,0.01902012883377575
519.517241,,0.002375399444680537,519.405,0.7620000243186951,-0.024414328318368483
519.982759,,0.0004994699626008268,519.876,0.7599999904632568,-0.028700068759403508
520.448276,,0.002162669575071759,520.334,0.7609999775886536,-0.026519987417551523
520.9137929999999,,0.0037989061829291158,520.799,0.777999997138977,0.010448047466088115
521.37931,,0.0041375822338225125,521.265,0.7739999890327454,0.0015960684823855375
521.844828,,0.0042992391063165665,521.732,0.7829999923706055,0.021002366343602318
522.310345,,0.004964102035961976,522.198,0.8090000152587891,0.07738816168632728
522.7758620000001,,0.005544448202248187,522.662,0.7229999899864197,-0.11028520131069991
523.241379,,0.0051724537482470455,523.128,0.7689999938011169,-0.01041964641839596
523.7068969999999,,0.0038712766306574203,523.591,0.7429999709129333,-0.06744927362330506
524.172414,,0.002404992843306027,524.054,0.8019999861717224,0.06068698598722827
524.637931,,0.0013582430960769722,524.524,0.765999972820282,-0.018154087084235535
525.103448,,0.0008742337196192493,524.987,0.777999997138977,0.007587488670913779
525.568966,,0.0010167929771064967,525.451,0.7760000228881836,0.0028479939872907835
526.034483,,0.0015952659977797369,525.921,0.7630000114440918,-0.025824463632801397
526.5,,0.0016211739402902492,526.379,0.7620000243186951,-0.028309948543791378
526.9655170000001,,4.866118013817331e-05,526.846,0.7649999856948853,-0.022027898251489285
527.4310340000001,,0.0029423846183236507,527.312,0.7820000052452087,0.014817389784910887
527.8965519999999,,0.0046689470490526444,527.777,0.7749999761581421,-0.0005557633318564875
528.362069,,0.003440410066946916,528.243,0.7580000162124634,-0.037641765271997925
528.827586,,0.0005708159534091204,528.71,0.753000020980835,-0.04850921375068836
529.293103,,0.0006937187680689826,529.169,0.7609999775886536,-0.030979977382836244
529.7586210000001,,0.0010303350883834029,529.636,0.7549999952316284,-0.04387972404531248
530.224138,,0.0036033408518821946,530.102,0.9190000295639038,0.3136611398946137
530.689655,,0.0039022758266034152,530.569,0.800000011920929,0.0547110560679708
531.155172,,0.0013565779691460719,531.032,0.7789999842643738,0.009324253800548047
531.62069,,0.001579902159372433,531.495,0.8360000252723694,0.13391456552923478
532.086207,,0.0021801861723277343,531.965,0.7620000243186951,-0.026868490879664173
532.5517239999999,,0.00019763393263122128,532.432,0.7879999876022339,0.03022785274038631
533.017241,,0.0021178825937378733,532.889,0.7749999761581421,0.0023562447710532932
533.482759,,0.0024921546438146356,533.355,0.7509999871253967,-0.04949624878817555
533.9482760000001,,0.0010171747524571478,533.822,0.7789999842643738,0.011910352141360934
534.413793,,6.328163086323407e-05,534.287,0.7599999904632568,-0.029123230355372266
534.87931,,0.0016775301494458576,534.754,0.7739999890327454,0.0016830373434586405
535.344828,,0.005098815059051625,535.22,0.7730000019073486,-0.00025601439323792545
535.810345,,0.007318537288580071,535.68,0.7889999747276306,0.03476866022332375
536.275862,,0.006392059163230243,536.146,0.7639999985694885,-0.019610106547375716
536.7413789999999,,0.003596908009995358,536.614,0.7689999938011169,-0.008712250400543744
537.206897,,0.0015684277059685467,537.076,0.781000018119812,0.017352707728839425
537.672414,,0.0008193274584168156,537.539,0.7609999775886536,-0.02638054884604124
538.137931,,0.0005097383089207566,538.009,0.7570000290870667,-0.03533243346423337
538.6034480000001,,0.0032620805632776074,538.47,0.7770000100135803,0.007932960503407475
539.0689659999999,,0.00518143084731505,538.94,0.777999997138977,0.00974411714548311
539.5344829999999,,0.00344177491094873,539.405,0.7749999761581421,0.002792632339906609
540.0,,0.0013875353240896003,539.868,0.765999972820282,-0.01726585623990774
540.465517,,0.005260947518838096,540.334,0.7789999842643738,0.010585023658845866
540.931034,,0.0047591626809093636,540.799,0.7580000162124634,-0.03564403713836964
541.396552,,0.0005173899122515374,541.265,0.7820000052452087,0.016175412988248965
541.862069,,0.0037763404471363488,541.725,0.7720000147819519,-0.006054273294841408
542.327586,,0.005327155548658965,542.191,0.7720000147819519,-0.006458049258702303
542.7931030000001,,0.004639337577879055,542.655,0.7599999904632568,-0.03295336040929885
543.258621,,0.003992980202429823,543.12,0.7760000228881836,0.0016174698994288975
543.7241379999999,,0.004153401226059044,543.584,0.7630000114440918,-0.026918950631897393
544.189655,,0.003492748386497596,544.053,0.7749999761581421,-0.000908088451839542
544.655172,,0.0006109035548330633,544.514,0.7820000052452087,0.014295937327861788
545.12069,,0.003205830253280651,544.984,0.7590000033378601,-0.03577118118805063
545.5862070000001,,0.0052507744745248575,545.444,0.7839999794960022,0.018824187890736914
546.051724,,0.004663377045247831,545.914,0.7870000004768372,0.025573716648943243
546.517241,,0.003180826775150126,546.38,0.7580000162124634,-0.03731549972849147
546.982759,,0.0027114856842800393,546.839,0.7850000262260437,0.021868238891030505
547.448276,,0.0033693959572150046,547.305,0.7760000228881836,0.0026783094300757474
547.9137929999999,,0.004160115621024846,547.769,0.7789999842643738,0.009676939181294345
548.3793099999999,,0.004539615637841655,548.235,0.7609999775886536,-0.029046193827945977
548.844828,,0.0045771308478062675,548.7,0.7739999890327454,-0.00021743741522549983
549.310345,,0.004117704864022031,549.165,0.7559999823570251,-0.0389295454939317
549.775862,,0.002736188296035792,549.64,0.781000018119812,0.0160214589282498
550.241379,,0.000625661417080577,550.098,0.7839999794960022,0.023008057016690377
550.706897,,0.0013035967319029408,550.566,0.777999997138977,0.010338710272477642
551.172414,,0.002622454140180757,551.028,0.7609999775886536,-0.026357859807600848
551.637931,,0.0038882157269647865,551.491,0.7820000052452087,0.019660601029297647
552.103448,,0.005343098761569537,551.954,0.7480000257492065,-0.05422965720706737
552.568966,,0.00591421760081725,552.42,0.7839999794960022,0.024295720333832156
553.034483,,0.004434029855829973,552.89,0.7559999823570251,-0.036705434288578774
553.5,,0.0013823461788532718,553.355,0.781000018119812,0.017668265920582033
553.965517,,0.0014344121817593059,553.821,0.7519999742507935,-0.04569664537660064
554.4310340000001,,0.0026452857595306435,554.279,0.6190000176429749,-0.3357300244174661
554.896552,,0.0021664780343454413,554.744,0.7609999775886536,-0.0267187029308606
555.3620689999999,,0.0008028808207708664,555.21,0.7739999890327454,0.0011776258572337647
555.827586,,0.00029299732530953064,555.676,0.7620000243186951,-0.02544504762129495
556.293103,,0.00025523392791612604,556.142,0.7820000052452087,0.017611663949577756
556.758621,,0.0006111313778415821,556.61,0.7739999890327454,-0.0003540542554846416
557.224138,,0.0008431113186696864,557.073,0.7620000243186951,-0.027037320871847206
557.689655,,0.0006953356794924504,557.536,0.777999997138977,0.007295587380636696
558.155172,,0.0034988037761552737,558.006,0.8069999814033508,0.06998310528321447
558.6206900000001,,0.005929763435485366,558.466,0.7620000243186951,-0.028500514077996673
559.0862070000001,,0.0068643012180293755,558.935,0.7760000228881836,0.001618509112202471
559.5517239999999,,0.006597024165083276,559.394,0.7919999957084656,0.03616974140778144
560.017241,,0.0062453133981384785,559.865,0.7760000228881836,0.0010900041395202104
560.482759,,0.006448448807782202,560.331,0.7599999904632568,-0.03389736840159467
560.948276,,0.006738841920964284,560.795,0.753000020980835,-0.04918085502582621
561.413793,,0.006303426269512086,561.261,0.7839999794960022,0.01842147820138717
561.87931,,0.005242967960274776,561.725,0.7870000004768372,0.025118427408996714
562.344828,,0.004564636376463139,562.184,0.7820000052452087,0.014478543368234696
562.8103450000001,,0.004683251698937979,562.651,0.7820000052452087,0.014816280625973347
563.275862,,0.00450086779307328,563.117,0.7820000052452087,0.015227662111640219
563.7413789999999,,0.0026856177970301823,563.584,0.8309999704360962,0.12245426277328737
564.206897,,0.00032523402434532066,564.047,0.7639999985694885,-0.022995394656747964
564.672414,,0.0024973186791866883,564.51,0.7760000228881836,0.0036970204492409874
565.137931,,0.0026910887217206645,564.98,0.7820000052452087,0.01732778769313549
565.603448,,0.002202990114098737,565.443,0.7710000276565552,-0.006085958453008837
566.068966,,0.0030587883844508217,565.906,0.7820000052452087,0.01840486850693457
566.534483,,0.005175711686692667,566.371,0.7630000114440918,-0.02250665926108491
567.0,,0.006249336111776338,566.836,0.7580000162124634,-0.032976470446785096
567.465517,,0.0046525949344116725,567.302,0.7770000100135803,0.00876778542721825
567.931034,,0.0015698577308674553,567.769,0.7609999775886536,-0.025825481698614206
568.396552,,0.0003289915641101346,568.235,0.7820000052452087,0.020097968412379333
568.862069,,0.00024641623499271437,568.701,0.7620000243186951,-0.023402374315759842
569.327586,,0.0022899326246472885,569.16,0.7739999890327454,0.002712021797134298
569.793103,,0.0038745932381905753,569.628,0.7789999842643738,0.01347485727177189
570.2586210000001,,0.003645569287486714,570.091,0.7699999809265137,-0.006360288627169113
570.724138,,0.0014116245558283879,570.555,0.7760000228881836,0.006394464828010073
571.189655,,0.0017728548473849774,571.025,0.7789999842643738,0.01253328679629921
571.655172,,0.0041569291965385825,571.488,0.7590000033378601,-0.031504030057076735
572.12069,,0.004488127940000807,571.95,0.7950000166893005,0.04641048851607364
572.586207,,0.002723071563331639,572.416,0.7699999809265137,-0.008608124130149402
573.051724,,0.00031470022584653576,572.879,0.7609999775886536,-0.028786359988943515
573.517241,,0.0034265642545115945,573.344,0.7829999923706055,0.01857350367428304
573.982759,,0.005248781011448392,573.813,0.7609999775886536,-0.02990860967458882
574.4482760000001,,0.004831115454700118,574.278,0.765999972820282,-0.019530897226016985
574.913793,,0.0025177866844049625,574.743,0.7710000276565552,-0.009100074680073678
575.37931,,3.0089456383128828e-05,575.209,0.7850000262260437,0.021007184630399064
575.844828,,0.0007502352758981717,575.673,0.7829999923706055,0.016338304382042684
576.310345,,0.0006010610627141742,576.139,0.7609999775886536,-0.03181103332254183
576.775862,,0.0026621927843203212,576.599,0.7829999923706055,0.01599972416915852
577.241379,,0.0037526792460874955,577.069,0.7639999985694885,-0.025410395903104514
577.706897,,0.0038051297896288176,577.532,0.7620000243186951,-0.029679109753316626
578.172414,,0.003912332857710509,577.995,0.7149999737739563,-0.13188663879486792
578.6379310000001,,0.00412982113901574,578.462,0.7839999794960022,0.018723664830369798
579.1034480000001,,0.0031477029729462353,578.925,0.777999997138977,0.006022610264351733
579.5689659999999,,0.0006524374803078823,579.39,0.7599999904632568,-0.0327457686535011
580.034483,,0.0014728554098967788,579.854,0.781000018119812,0.013515330116162053
580.5,,0.00139558552359181,580.319,0.7620000243186951,-0.027323521715721007
580.965517,,0.00023487348413954982,580.785,0.777999997138977,0.008118651851019919
581.431034,,0.0012793325104606184,581.251,0.7839999794960022,0.02178441073676185
581.896552,,0.0009209016827348806,581.717,0.7820000052452087,0.01801251374006581
582.362069,,0.00036553858405774856,582.183,0.6069999933242798,-0.36269650658674185
582.827586,,0.0009837970022385399,582.647,0.7789999842643738,0.012533709662709377
583.2931030000001,,0.0027579480218492478,583.113,0.7609999775886536,-0.02624488876248761
583.758621,,0.0047157909062110655,583.58,0.7630000114440918,-0.021527429974066103
584.2241379999999,,0.006157873161862312,584.043,0.7789999842643738,0.013602280699271675
584.689655,,0.006948499228321581,584.506,0.7609999775886536,-0.025439394473740534
585.155172,,0.006844538200860685,584.969,0.781000018119812,0.01820444838179857
585.6206900000001,,0.0052353138306597095,585.435,0.7760000228881836,0.007276392930464417
586.0862070000001,,0.0020795544651008397,585.906,0.7599999904632568,-0.02772191160276314
586.551724,,0.0011829102102148615,586.364,0.7620000243186951,-0.02360606580972898
587.017241,,0.002618854160161433,586.829,0.7620000243186951,-0.02394224755859231
587.482759,,0.0020971485470933798,587.295,0.7820000052452087,0.01921056418833179
587.948276,,0.0017894514385053024,587.762,0.777999997138977,0.010005541640278438
588.4137929999999,,0.003586608698530486,588.228,1.0360000133514404,0.5715566946431645
588.87931,,0.006438785522045977,588.692,0.753000020980835,-0.04557037186919009
589.344828,,0.007175138882031833,589.158,0.7630000114440918,-0.024370323093431543
589.810345,,0.004096397727632858,589.621,0.7739999890327454,-0.0009954734856347579
590.2758620000001,,0.000805652797234411,590.091,0.7870000004768372,0.026751964291414777
590.741379,,0.0036626160252372464,590.554,0.7630000114440918,-0.0260773308090924
591.2068969999999,,0.0027601189463587095,591.017,0.7820000052452087,0.014825144315547805
591.672414,,0.00029702794025961854,591.485,0.7799999713897705,0.010041496982026466
592.137931,,0.00036102461660938296,591.947,0.7789999842643738,0.00751595129860428
592.603448,,0.0011563493680123956,592.412,0.7599999904632568,-0.0341352391741255
593.068966,,0.0018380665743822717,592.875,0.777999997138977,0.004921678281552553
593.534483,,0.0006632038695889119,593.341,0.7620000243186951,-0.029991873630487356
594.0,,0.004657292490672011,593.806,0.9240000247955322,0.32300270523348
594.4655170000001,,0.006074359877052238,594.272,0.777999997138977,0.005083798450630495
594.9310340000001,,0.0032100072886533126,594.736,0.777999997138977,0.005351176509276041
595.3965519999999,,0.0011183440162920322,595.201,0.7990000247955322,0.051463377038236606
595.862069,,0.002536316654617319,595.666,0.7630000114440918,-0.026525171092786314
596.327586,,0.00021189000546124537,596.132,0.5419999957084656,-0.5075000431107622
596.793103,,0.004150407979766227,596.595,0.7609999775886536,-0.02982565219258646
597.2586210000001,,0.005500429927287204,597.064,0.7839999794960022,0.020865140577761673
597.724138,,0.0033511742887938627,597.525,0.7639999985694885,-0.02210713260107559
598.189655,,0.0003591244868949384,597.995,0.7599999904632568,-0.030220673615940177
598.655172,,0.003293345803349142,598.458,0.7820000052452087,0.018292895268307248
599.12069,,0.004000901187267449,598.92,0.6499999761581421,-0.26874280229841296
599.586207,,0.001770373938972716,599.386,0.7649999856948853,-0.01770816534327918
600.0517239999999,,0.0028261914427650595,599.851,0.7609999775886536,-0.026001996217655667
600.517241,,0.007297619787642373,600.316,0.7820000052452087,0.020090970408395168
600.982759,,0.008998055092882512,600.78,0.7860000133514404,0.029057723357142067
601.448276,,0.008077403241277299,601.246,0.781000018119812,0.01832012412798357
601.913793,,0.007314653950339226,601.711,0.7649999856948853,-0.016484619756291567
602.37931,,0.008496614146131617,602.177,0.7799999713897705,0.01614445090196331
602.844828,,0.010316333365587686,602.644,0.781000018119812,0.018169563820590283
603.310345,,0.010564107278788155,603.11,0.7789999842643738,0.013559956321972783
603.775862,,0.009015746931148637,603.573,0.7739999890327454,0.0023227925040290335
604.2413789999999,,0.007024156274401909,604.036,0.7820000052452087,0.019326122866364995
604.706897,,0.005249392867331933,604.499,0.7919999957084656,0.04061738328263956
605.172414,,0.0030847551676111773,604.969,0.7599999904632568,-0.029649639590572444
605.637931,,6.915563292196318e-05,605.44,0.7620000243186951,-0.025882449829167653
606.1034480000001,,0.0028901874001244447,605.895,0.7630000114440918,-0.0243171350760051
606.5689659999999,,0.003947055673171226,606.361,0.7889999747276306,0.03170992249157911
607.0344829999999,,0.002277733167514255,606.828,0.7789999842643738,0.009320436017228173
607.5,,0.0002428902030413744,607.294,0.7300000190734863,-0.09800438719936809
607.965517,,0.00011348772578437694,607.758,0.7820000052452087,0.014762296291422403
608.431034,,0.004235107464068101,608.224,0.7620000243186951,-0.02926914385450733
608.896552,,0.010297559723925728,608.689,0.8299999833106995,0.11850049900972967
609.362069,,0.01372475902014835,609.155,0.7739999890327454,-0.003789361129959465
609.827586,,0.012729163558581972,609.617,0.765999972820282,-0.02140324212925103
610.293103,,0.009648337098782978,610.079,0.781000018119812,0.011197688182471018
610.758621,,0.007970866120306846,610.547,0.7839999794960022,0.017763685707809347
611.2241379999999,,0.008537578197519007,611.01,1.0479999780654907,0.5930711572491035
611.689655,,0.009306112467895956,611.48,0.777999997138977,0.005094805116552394
612.155172,,0.008282576387660867,611.943,0.7599999904632568,-0.033760395908223814
612.62069,,0.005487714042714438,612.408,0.7870000004768372,0.025509115374223103
613.0862070000001,,0.0020407261007776337,612.871,0.7630000114440918,-0.026260279247727038
613.551724,,0.0011811658750942873,613.337,0.8510000109672546,0.16603683753288265
614.017241,,0.003159130979822042,613.803,0.7739999890327454,-0.0011013825975914467
614.4827590000001,,0.002355280140122525,614.268,0.7630000114440918,-0.02442696096985522
614.948276,,0.0016617519136269878,614.735,0.7609999775886536,-0.028144372976751746
615.4137929999999,,0.00648031752394045,615.194,0.7620000243186951,-0.025344806080856007
615.8793099999999,,0.008028308756266693,615.659,0.7609999775886536,-0.026940596848215894
616.344828,,0.004100313307879037,616.124,0.7820000052452087,0.01933908213590314
616.810345,,0.0032711877887264063,616.595,0.7870000004768372,0.030690392731341387
617.275862,,0.00910984958373423,617.057,0.7770000100135803,0.009278805183326942
617.741379,,0.009761048461300537,617.521,0.777999997138977,0.011737689287481269
618.206897,,0.006332568609145171,617.984,0.7599999904632568,-0.027301172853524205
618.672414,,0.0033849471112596796,618.451,0.7440000176429749,-0.06209222908666957
619.137931,,0.0038560649991647832,618.921,0.7789999842643738,0.014115993881519052
619.603448,,0.006242137364180412,619.379,0.7860000133514404,0.029213162307346937
620.068966,,0.007415038585674716,619.844,0.7770000100135803,0.009348438553293566
620.534483,,0.006781628976485559,620.309,0.7620000243186951,-0.02368414404047191
621.0,,0.006029204133764787,620.777,0.7549999952316284,-0.039373700026679774
621.465517,,0.005643962040760677,621.243,0.7940000295639038,0.045082240715262074
621.9310340000001,,0.003955023196740333,621.707,0.7620000243186951,-0.02520222544599061
622.396552,,5.336102393602236e-05,622.173,0.7820000052452087,0.017763932535200453
622.862069,,0.003982145348840164,622.64,0.7850000262260437,0.023672593631573736
623.327586,,0.004844167323239362,623.105,0.7760000228881836,0.0034361095675172247
623.793103,,0.00154054917935323,623.566,0.7820000052452087,0.015896777853827267
624.258621,,0.003338558143173038,624.036,0.7649999856948853,-0.02171596514310093
624.724138,,0.00586376855163957,624.499,0.7590000033378601,-0.03531135875780744
625.189655,,0.004342856192987476,624.961,0.7620000243186951,-0.029231606980362826
625.655172,,0.0007925107906170519,625.428,0.7620000243186951,-0.02960692035308644
626.1206900000001,,0.0013121300776153069,625.891,0.7990000247955322,0.05072067008894868
626.5862070000001,,0.0006829396060818959,626.356,0.7820000052452087,0.01350350266926814
627.0517239999999,,0.0008604968909595664,626.822,0.7599999904632568,-0.034499629730455394
627.5172409999999,,0.0010181423976216048,627.287,0.7850000262260437,0.020002489130835143
627.982759,,0.00034207666175620487,627.754,0.7620000243186951,-0.02996315773048036
628.448276,,0.0015713477041450503,628.22,0.7789999842643738,0.0073200154809110116
628.913793,,0.0016017308377970795,628.684,0.7889999747276306,0.029448477055320006
629.37931,,0.001203170089442436,629.15,0.7820000052452087,0.014625876642895585
629.844828,,0.0018596364535655024,629.613,0.777999997138977,0.00641184493026555
630.3103450000001,,0.0037807496482036634,630.075,0.7870000004768372,0.026577648186636195
630.7758620000001,,0.0055327364045371155,630.544,0.7730000019073486,-0.003325059116032308
631.2413789999999,,0.00585887883077781,631.006,0.765999972820282,-0.01795549740932494
631.706897,,0.005335615977647047,631.469,0.7739999890327454,9.654197766407547e-05
632.172414,,0.005579305933940858,631.939,0.7789999842643738,0.011596675430882294
632.637931,,0.007076100193855526,632.405,0.7860000133514404,0.027420435880488623
633.103448,,0.008531910970766539,632.868,0.7839999794960022,0.023585526408098138
633.568966,,0.008423071533853398,633.334,0.7870000004768372,0.03057768049243287
634.034483,,0.006632455862579644,633.799,0.7609999775886536,-0.025691522727060392
634.5,,0.004373741718204741,634.264,0.7870000004768372,0.03123698986395663
634.9655170000001,,0.0029825423542497887,634.729,0.7850000262260437,0.027063155971429387
635.431034,,0.003099073756876329,635.195,0.7820000052452087,0.020605303877804636
635.8965519999999,,0.0045080687313609,635.654,0.7689999938011169,-0.0077469561494273205
636.362069,,0.006086342411828995,636.12,0.7820000052452087,0.020438461291945407
636.827586,,0.0061997487337124525,636.588,0.777999997138977,0.011483942209771515
637.293103,,0.004073592018148157,637.05,0.722000002861023,-0.11085678152731075
637.7586210000001,,0.0009193838352815203,637.518,0.7590000033378601,-0.03067081177580102
638.224138,,0.0009784297787859152,637.98,0.7860000133514404,0.027654840881815464
638.689655,,0.0005004869383370748,638.451,0.7879999876022339,0.03145733052115869
639.155172,,0.0014756460677438964,638.913,0.7820000052452087,0.017791284675249017
639.62069,,0.003457330569058911,639.379,0.7620000243186951,-0.026397742442792402
640.086207,,0.0047826009361182946,639.844,0.8510000109672546,0.1668835654458808
640.551724,,0.005453356386145031,640.31,0.777999997138977,0.007241665206340521
641.017241,,0.00522095557541565,640.769,0.7620000243186951,-0.028182435497032147
641.482759,,0.003443456603699604,641.235,0.7829999923706055,0.017053477796648783
641.9482760000001,,4.6467942890770175e-05,641.699,0.7760000228881836,0.0013532824019440613
642.413793,,0.004084791103405686,642.165,0.7739999890327454,-0.0033743303198392545
642.87931,,0.0067463918639827725,642.639,0.7480000257492065,-0.06029955054642981
643.344828,,0.007283742422857845,643.098,0.753000020980835,-0.049589496292561236
643.810345,,0.006979420822416295,643.566,0.7630000114440918,-0.027883640913712968
644.275862,,0.007363675454997059,644.028,0.7839999794960022,0.01789312172250946
644.7413789999999,,0.008276656980302912,644.492,0.7559999823570251,-0.042978369431348445
645.206897,,0.0086890611581215,644.954,0.7839999794960022,0.01825588398206439
645.672414,,0.00868638032897804,645.419,0.7820000052452087,0.0142256077309224
646.1379310000001,,0.00921416964655164,645.89,0.7850000262260437,0.02117409094489037
646.6034480000001,,0.010158197337702658,646.356,0.7599999904632568,-0.032807059927118576
647.0689659999999,,0.010109688553862154,646.814,0.7599999904632568,-0.03226477300859701
647.534483,,0.0082256946765623,647.28,0.7990000247955322,0.05328593307375424
648.0,,0.005254037131842083,647.744,0.7749999761581421,0.0016059958048240165
648.465517,,0.0024357493613250602,648.21,0.7620000243186951,-0.026102908747266812
648.931034,,0.0003511135941877163,648.677,0.7839999794960022,0.02242733737083046
649.396552,,0.0007235095309611041,649.142,0.7279999852180481,-0.09900889970940778
649.862069,,0.0003059600956419056,649.61,0.75,-0.0505608272168407
650.327586,,0.001521664171316833,650.072,0.7599999904632568,-0.02832253674260253
650.7931030000001,,0.003386920376739659,650.534,0.781000018119812,0.017802710989724368
651.258621,,0.0037951784498881213,651.004,0.7720000147819519,-0.0015201721915569211
651.7241379999999,,0.0029928116205083736,651.466,0.8510000109672546,0.1707825567471697
652.189655,,0.0026594348670415493,651.929,0.7789999842643738,0.014009471730477079
652.655172,,0.00350710031490259,652.394,0.7639999985694885,-0.018684485993015778
653.12069,,0.0042074299837629465,652.865,0.7699999809265137,-0.0057323129903842154
653.5862070000001,,0.003365278315726896,653.331,0.777999997138977,0.011475392300591143
654.051724,,0.001664954622253243,653.795,0.777999997138977,0.011159007293349859
654.517241,,0.0008960503933352077,654.26,0.7559999823570251,-0.037173397693156876
654.982759,,0.001278188935626772,654.725,0.7229999899864197,-0.10954603283825406
655.448276,,0.0011736476602568777,655.184,0.7559999823570251,-0.03818969597088385
655.9137929999999,,0.00032315965447533466,655.651,0.7829999923706055,0.020050326012621144
656.37931,,0.0018431628619703668,656.116,0.7580000162124634,-0.03502502545775537
656.844828,,0.0016089091753589437,656.584,0.7630000114440918,-0.02474849582989436
657.310345,,0.00012258257779602873,657.046,0.7850000262260437,0.022576404376762668
657.7758620000001,,0.0016037806307919772,657.514,0.7889999747276306,0.030716122128875898
658.241379,,0.0019067655302044647,657.977,0.7620000243186951,-0.028633935034212764
658.7068969999999,,0.0014778339823997197,658.44,0.6859999895095825,-0.19467625263602267
659.172414,,0.0009664085084718963,658.91,0.7609999775886536,-0.03166854620282406
659.637931,,0.0008036525034903028,659.376,0.7910000085830688,0.03338793570599544
660.103448,,0.0014706491928144726,659.84,0.781000018119812,0.01139803832566026
660.568966,,0.00285838853750848,660.299,0.7739999890327454,-0.0039499389348245754
661.034483,,0.0036489084164529084,660.765,0.7850000262260437,0.020026844725091586
661.5,,0.0024523641477789716,661.231,0.7739999890327454,-0.003818028271855817
661.965517,,0.0006425863803178922,661.696,0.75,-0.055880650869368845
662.4310340000001,,0.004357336584087064,662.161,0.7649999856948853,-0.022878983453138373
662.8965519999999,,0.007547502008909055,662.629,0.7710000276565552,-0.009397466492923121
663.362069,,0.009616220349674675,663.09,0.765999972820282,-0.019805661405243064
663.827586,,0.010357650122378088,663.558,0.765999972820282,-0.019259579297481823
664.293103,,0.010194136315758271,664.021,0.7820000052452087,0.016189554464253145
664.7586210000001,,0.010002236292237322,664.484,0.6790000200271606,-0.20759524485718517
665.224138,,0.010030012037262016,664.954,0.7599999904632568,-0.030504011967417248
