Trial: ,10
Threshold: ,0.0
Maximum EMG: ,0.07601294237742214
Success: ,True

EMG Time,Raw EMG,Filtered EMG,Force Time,Raw Force (V),Filtered Force (N)
0.0,samples,4.589718981832611e-06,0.467,0.7749999761581421,0.001951480872280459
0.46551699999999996,time,3.824480734961577e-06,0.931,0.777999997138977,0.008636152907112553
0.9310339999999999,value,3.012555883476924e-06,1.397,0.7620000243186951,-0.025973201297092456
1.396552,,2.1548216290379933e-06,1.863,0.781000018119812,0.015763012529782645
1.862069,,1.2523563153831514e-06,2.329,0.7570000290870667,-0.03609984531274052
2.327586,,3.0644427148271705e-07,2.793,0.7599999904632568,-0.02906961232227594
2.793103,,6.814198702813138e-07,3.259,0.7739999890327454,0.001980608225314163
3.258621,,1.7095274189669549e-06,3.719,0.7599999904632568,-0.027932819106113314
3.724138,,2.7759524706499885e-06,4.184,0.7940000295639038,0.04675009083849655
4.189654999999999,,3.878549391908829e-06,4.655,0.7799999713897705,0.016860924972974707
4.655172,,5.014950977729162e-06,5.118,0.7649999856948853,-0.015222352778382036
5.12069,,6.182567319513636e-06,5.581,0.7829999923706055,0.024555290018327854
5.586207,,7.378585417891502e-06,6.044,0.7820000052452087,0.022887079112594206
6.051723999999999,,8.599969573866302e-06,6.51,0.7789999842643738,0.016794271610378417
6.517241,,9.843462590513308e-06,6.981,0.7639999985694885,-0.01552385555840062
6.982759,,1.1105587815939944e-05,7.439,0.800000011920929,0.06317603398523464
7.448276,,1.238265205654966e-05,7.904,0.777999997138977,0.015413016827775591
7.913793000000001,,1.367074938780125e-05,8.369,0.7789999842643738,0.01765190301472
8.379309999999998,,1.4965765887630262e-05,8.834,0.7950000166893005,0.052461043054891854
8.844828000000001,,1.6263385315496615e-05,9.3,0.765999972820282,-0.010877845892907575
9.310345,,1.755909575764292e-05,9.766,0.5820000171661377,-0.41201584644733297
9.775862,,1.884819725659231e-05,10.232,0.7639999985694885,-0.015873378040729632
10.241379,,2.01258104401841e-05,10.7,0.7760000228881836,0.009808547094182562
10.706897,,2.1386886162542663e-05,11.162,0.7749999761581421,0.00709555088871531
11.172414,,2.262621616630227e-05,11.626,0.8510000109672546,0.17208440216726814
11.637931,,2.383844477217208e-05,12.096,0.7490000128746033,-0.05076170669058415
12.103447999999998,,2.501808159852525e-05,12.559,0.7870000004768372,0.03138519929025682
12.568966000000001,,2.615951531013947e-05,13.022,0.7630000114440918,-0.021543134706278274
13.034483,,2.7257028391509037e-05,13.488,0.7870000004768372,0.03012464801085738
13.5,,2.830481293629727e-05,13.95,0.753000020980835,-0.04452915222853286
13.965517,,2.929698744051072e-05,14.416,0.7950000166893005,0.046452321368213804
14.431034,,3.0227614582861064e-05,14.882,0.7799999713897705,0.013325628429960766
14.896552,,3.1090719971546095e-05,15.347,0.7609999775886536,-0.0284267351233237
15.362069,,3.1880311832337966e-05,15.814,0.7630000114440918,-0.024328232428322168
15.827586000000002,,3.259040160842516e-05,16.28,0.7990000247955322,0.0539521669144446
16.293103,,3.321502543792655e-05,16.744,0.7609999775886536,-0.028874061625578068
16.758621,,3.374826647039368e-05,17.21,0.7870000004768372,0.027848208872184595
17.224138,,3.418427797895384e-05,17.674,0.7639999985694885,-0.022070793502307538
17.689655,,3.451730722003646e-05,18.136,0.7789999842643738,0.01090583527951731
18.155172,,3.474171998788248e-05,18.603,0.7739999890327454,0.0004077170270497144
18.62069,,3.4852025806277076e-05,19.066,0.753000020980835,-0.044862715404905294
19.086207,,3.484290369518626e-05,19.529,0.777999997138977,0.01015563626905141
19.551724,,3.470922844523444e-05,19.999,0.800000011920929,0.058693337623673965
20.017241000000002,,3.4446097328250496e-05,20.465,0.7760000228881836,0.007050675805714595
20.482758999999998,,3.404885716745287e-05,20.929,0.777999997138977,0.012070084796477271
20.948276,,3.351313168625813e-05,21.395,0.7749999761581421,0.006192692069998502
21.413793000000002,,3.2834849050202023e-05,21.855,0.7820000052452087,0.022078021863446137
21.87931,,3.201026951207706e-05,22.32,0.6700000166893005,-0.22134141206990762
22.344828,,3.103601306613668e-05,22.785,0.7440000176429749,-0.05959855551176034
22.810344999999998,,2.990908701311356e-05,23.251,0.8209999799728394,0.10859963666621057
23.275862,,2.8626913333870102e-05,23.715,0.7699999809265137,-0.0021601126116635137
23.741379,,2.718735576576409e-05,24.18,0.777999997138977,0.015518257121769893
24.206897,,2.5588746472293313e-05,24.648,0.7760000228881836,0.01129934491907476
24.672414,,2.3829912193301795e-05,25.111,0.42399999499320984,-0.7555687460562001
25.137931,,2.1910199760008836e-05,25.574,0.7820000052452087,0.024275273768102023
25.603448,,1.9829500856382728e-05,26.044,0.7639999985694885,-0.015171615391922525
26.068966,,1.7588275905945353e-05,26.515,0.7590000033378601,-0.026401348523706562
26.534483,,1.5187576960983906e-05,26.97,0.7620000243186951,-0.02029687649685896
27.0,,1.262906946938325e-05,27.436,0.7820000052452087,0.02276356024310604
27.465517,,9.915052792898062e-06,27.903,0.7720000147819519,0.0004003015387091264
27.931034,,7.048479349679102e-06,28.369,0.7580000162124634,-0.030724124570459636
28.396552,,4.032972253272841e-06,28.833,0.781000018119812,0.01873398390259693
28.862069,,8.728413201482307e-07,29.298,0.7620000243186951,-0.023318295059431067
29.327586,,2.4269026819123043e-06,29.763,0.7950000166893005,0.047932616947445196
29.793103000000002,,5.860535671470077e-06,30.229,0.7979999780654907,0.0538581246596242
30.258620999999998,,9.421609902812844e-06,30.692,0.7620000243186951,-0.02513072728643629
30.724138,,1.3102945751003884e-05,31.155,0.7749999761581421,0.002702602431940601
31.189655000000002,,1.6896625754285277e-05,31.626,0.781000018119812,0.0153687465757679
31.655172000000004,,2.079399103273912e-05,32.088,0.7620000243186951,-0.026336095639041962
32.12069,,2.4785640198782324e-05,32.552,0.7860000133514404,0.02574518485124014
32.586207,,2.8861430871186756e-05,33.014,0.7590000033378601,-0.033174527067752896
33.051724,,3.3010483899866816e-05,33.48,0.7850000262260437,0.0234867216915426
33.517241000000006,,3.722119040365241e-05,33.951,0.7789999842643738,0.010542871091709666
33.982759,,4.148122171765964e-05,34.409,0.777999997138977,0.008600001750882777
34.448276,,4.57775423406792e-05,34.874,0.7739999890327454,0.00022079554194217406
34.913793,,5.009642596622031e-05,35.339,0.7580000162124634,-0.034213694304541346
35.37931,,5.4423474673474806e-05,35.804,0.7609999775886536,-0.027179589011183565
35.844828,,5.874364134650199e-05,36.269,0.7590000033378601,-0.03098001314635156
36.310345,,6.30412553813828e-05,36.737,0.7919999957084656,0.04151409461723378
36.775862,,6.73000517319577e-05,37.202,0.7839999794960022,0.02470800918943282
37.241378999999995,,7.150320333505292e-05,37.67,0.7789999842643738,0.014443420603210664
37.706897000000005,,7.563335694582378e-05,38.132,0.7990000247955322,0.0586314085256847
38.172414,,7.967267240301507e-05,38.6,0.9890000224113464,0.4731613417124337
38.637931,,8.360286533256976e-05,39.062,0.7609999775886536,-0.02302732216301943
39.103448,,8.740525328612795e-05,39.53,0.7620000243186951,-0.020370022425710704
39.568965999999996,,9.106080529856519e-05,39.992,0.7789999842643738,0.017061796180221574
40.034483,,9.455019483584792e-05,40.458,0.7789999842643738,0.01736144134522726
40.5,,9.78538560911566e-05,40.922,0.7720000147819519,0.002306387278526279
40.965517,,0.0001009520435734737,41.388,0.5770000219345093,-0.42244879313074213
41.431034,,0.00010382489491868343,41.855,0.7419999837875366,-0.06301089261048391
41.896552,,0.00010645249683871676,42.32,0.7689999938011169,-0.00434218663319985
42.362069000000005,,0.00010881495410943402,42.786,0.781000018119812,0.02154099776231789
42.827586000000004,,0.00011089246148280673,43.244,0.7770000100135803,0.012469671789043884
43.293103,,0.00011266537839358305,43.711,0.7770000100135803,0.012028817491932468
43.758621,,0.00011411430631503913,44.177,0.7820000052452087,0.022411462795117295
44.224138,,0.00011522016860267995,44.641,0.781000018119812,0.019669155825879216
44.689655,,0.00011596429264890572,45.11,0.765999972820282,-0.013609668020281865
45.155172,,0.0001163284941557562,45.574,0.7739999890327454,0.0032038475175096746
45.620689999999996,,0.00011629516331693856,46.036,0.7570000290870667,-0.0344464297760398
46.086206999999995,,0.00011584735268449099,46.502,0.7620000243186951,-0.02414529886004637
46.551724,,0.00011496886647969373,46.966,0.7739999890327454,0.0014460925908960994
47.017241,,0.00011364435109226981,47.432,0.7609999775886536,-0.027371490150968215
47.482759,,0.00011185938649658577,47.899,0.7820000052452087,0.017957654888933656
47.948276,,0.00010960057829852789,48.365,0.7609999775886536,-0.028131004791028386
48.413793,,0.0001068556501120623,48.83,0.7580000162124634,-0.034908598894646106
48.879310000000004,,0.00010361353595025286,49.295,0.7739999890327454,-0.0001899146696317847
49.344828,,9.986447230177894e-05,49.759,0.7979999780654907,0.052064894520391265
49.810345,,9.560008955083529e-05,50.225,0.777999997138977,0.008567341907160466
50.275862,,9.081350238578078e-05,50.685,0.7789999842643738,0.010926192682291535
50.741379,,8.549939883010218e-05,51.155,0.7609999775886536,-0.028011443487593136
51.206897,,7.965412751824704e-05,51.615,0.7789999842643738,0.011570455024643884
51.672414,,7.327578282872761e-05,52.084,0.7630000114440918,-0.02284560955289203
52.137931,,6.63642874776792e-05,52.548,0.7730000019073486,-0.0005553097345647202
52.603448,,5.8921472167843026e-05,53.01,0.574999988079071,-0.4313823908298356
53.068966,,5.095115188080831e-05,53.476,0.777999997138977,0.011449798505477957
53.534483,,4.245919839436147e-05,53.94,0.7850000262260437,0.027273941075702652
54.0,,3.3453608602022734e-05,54.406,0.7419999837875366,-0.06584188876410434
54.465517,,2.3944568208370126e-05,54.871,0.765999972820282,-0.013013973969670703
54.931034,,1.394451037162518e-05,55.337,0.7839999794960022,0.026700162325709924
55.396552,,3.4681688642693995e-06,55.803,0.7609999775886536,-0.022966703993582062
55.862069,,7.467374676762734e-06,56.269,0.7829999923706055,0.025335881854774044
56.327586,,1.884264983644864e-05,56.734,0.777999997138977,0.014734310352053007
56.793102999999995,,3.063576326681511e-05,57.199,0.6600000262260437,-0.24214572807007723
57.258621000000005,,4.282237170748946e-05,57.66,0.777999997138977,0.015036207069214724
57.724138,,5.537566259102767e-05,58.129,0.9150000214576721,0.31351576019365535
58.189655,,6.82663426333545e-05,58.592,0.7789999842643738,0.017132374993418988
58.655172,,8.146263479882981e-05,59.055,0.7609999775886536,-0.022261610368197828
59.120689999999996,,9.493028401680462e-05,59.519,0.7639999985694885,-0.015992487178508888
59.586207,,0.00010863257201201761,59.988,0.7699999809265137,-0.0032676500739195974
60.051724,,0.00012253034159478033,60.454,0.7559999823570251,-0.03418489899184073
60.517241,,0.00013658203073858656,60.919,0.7609999775886536,-0.023764205566002054
60.982758999999994,,0.00015074371675254198,61.385,0.7870000004768372,0.03236699352518841
61.448276,,0.00016496917083383544,61.844,0.7509999871253967,-0.04660294117546539
61.913793,,0.00017920992326136094,62.31,0.7590000033378601,-0.029721067932129343
62.379310000000004,,0.0001934153394655523,62.774,0.7620000243186951,-0.023724663117437685
62.84482800000001,,0.0002075327071815242,63.24,0.7820000052452087,0.01933371726536207
63.310345000000005,,0.000221507334862741,63.704,0.7789999842643738,0.012324723958648746
63.775862000000004,,0.00023528266150068614,64.173,0.7580000162124634,-0.03384397943174496
64.241379,,0.00024880037796241216,64.637,0.7749999761581421,0.0028438040615570963
64.706897,,0.00026200055992246145,65.099,0.7490000128746033,-0.05407194289469693
65.172414,,0.0002748218124285072,65.57,0.7609999775886536,-0.028113340221895898
65.637931,,0.00028720142610123465,66.032,0.7749999761581421,0.0022940822275609295
66.103448,,0.0002990755449285332,66.498,0.7760000228881836,0.004473943458559437
66.56896599999999,,0.000310379345572075,66.961,0.7559999823570251,-0.03900370008824151
67.03448300000001,,0.00032104722806090326,67.426,0.7860000133514404,0.026542130278324763
67.5,,0.0003310130177018383,67.892,0.7310000061988831,-0.09301281907425785
67.965517,,0.00034021017799043264,68.357,0.7590000033378601,-0.03166501862975166
68.431034,,0.0003485720342589883,68.822,0.7979999780654907,0.05371256718499237
68.896552,,0.00035603200774990434,69.288,0.7720000147819519,-0.0024685788554129487
69.362069,,0.0003625238597534828,69.752,0.7789999842643738,0.013284291458515906
69.827586,,0.00036798194539943124,70.217,0.7820000052452087,0.020345588964288737
70.293103,,0.00037234147664080695,70.685,0.7749999761581421,0.005626973638323188
70.75862099999999,,0.00037553879391820534,71.147,0.7599999904632568,-0.02653104870469194
71.22413800000001,,0.00037751164594077426,71.615,0.7609999775886536,-0.023857867604374607
71.689655,,0.00037819947696930657,72.077,0.800000011920929,0.061562206106324444
72.15517200000001,,0.00037754372093541313,72.541,0.753000020980835,-0.04043679022507821
72.62069,,0.00037548810167979094,73.01,0.7789999842643738,0.016537625467964872
73.086207,,0.0003719789385420765,73.469,0.777999997138977,0.014610789642882274
73.551724,,0.0003669654564849167,73.939,0.7789999842643738,0.016956249008774224
74.017241,,0.0003604000998859076,74.405,0.7590000033378601,-0.026540102000504908
74.482759,,0.00035223884908316527,74.87,0.7649999856948853,-0.013484652213701877
74.94827599999999,,0.00034244153871372085,75.335,0.7850000262260437,0.029980002926692496
75.41379300000001,,0.00033097217683889847,75.8,0.7820000052452087,0.02324800540770912
75.87931,,0.00031779926380757204,76.266,0.7599999904632568,-0.02495973792497407
76.344828,,0.0003028961097669403,76.726,0.777999997138977,0.013905377225376499
76.810345,,0.0002862411496914532,77.192,0.7490000128746033,-0.04968838341377119
77.275862,,0.0002678182547640042,77.655,0.7820000052452087,0.021744520420682662
77.741379,,0.00024761703890969263,78.125,0.7850000262260437,0.027783711808613193
78.206897,,0.00022563315925159803,78.589,0.7609999775886536,-0.025019281725113293
78.67241399999999,,0.0002018686092303582,79.051,0.7860000133514404,0.028928877948113687
79.137931,,0.00017633200310518434,79.515,0.765999972820282,-0.015148998554331525
79.603448,,0.00014903885053348023,79.984,0.781000018119812,0.01705499686810264
80.068966,,0.00012001181990959848,80.451,0.7910000085830688,0.038409633161832143
80.53448300000001,,8.928098913068053e-05,80.911,0.7419999837875366,-0.0687190697851555
81.0,,5.688408244939845e-05,81.377,0.7870000004768372,0.029012987972129128
81.465517,,2.2866692070140885e-05,81.841,0.7820000052452087,0.017890206878731465
81.931034,,1.2717516853271259e-05,82.307,0.7789999842643738,0.01120981630711549
82.396552,,4.980661915425e-05,82.773,0.7689999938011169,-0.010632070299029926
82.86206899999999,,8.833026184968655e-05,83.24,0.7599999904632568,-0.030205500940620054
83.327586,,0.00012820951690418957,83.704,0.7620000243186951,-0.025725686031622272
83.79310299999999,,0.000169356755846852,84.166,0.7599999904632568,-0.029876747933158344
84.258621,,0.0002116755474957529,84.633,0.7580000162124634,-0.03395046960757628
84.72413800000001,,0.000255060580013625,85.096,0.7850000262260437,0.025225277584739615
85.189655,,0.000299397608482618,85.559,0.7609999775886536,-0.02665203078682583
85.65517200000001,,0.0003445634291393609,86.029,0.781000018119812,0.017376796912396783
86.12069,,0.0003904258813499648,86.495,0.7580000162124634,-0.03224530574573234
86.586207,,0.00043684387834054083,86.958,0.7789999842643738,0.014008984689754764
87.051724,,0.0004836674676493301,87.424,0.7580000162124634,-0.03123954814874044
87.517241,,0.0005307379222197949,87.889,0.7739999890327454,0.004106502323664209
87.98275899999999,,0.0005778878629653409,88.354,0.7749999761581421,0.006742749022286868
88.448276,,0.0006249414134944476,88.819,0.7760000228881836,0.009335332213787684
88.913793,,0.0006717143875727555,89.285,0.7620000243186951,-0.020808603002524025
89.37931,,0.0007180145099054929,89.744,0.7789999842643738,0.016517716753922787
89.844828,,0.0007636416708505622,90.21,0.8069999814033508,0.07773357335048274
90.310345,,0.0008083882154571009,90.678,0.7649999856948853,-0.01363758244508368
90.775862,,0.0008520392667607253,91.14,0.7919999957084656,0.045231962724899245
91.241379,,0.000894373083090619,91.611,0.7630000114440918,-0.017990609790620508
91.706897,,0.0009351614496945338,92.074,0.7820000052452087,0.02327528833433197
92.17241399999999,,0.0009741701055151239,92.537,0.7630000114440918,-0.018330268547842428
92.63793100000001,,0.001011159204953244,93.0,0.7770000100135803,0.011883253555633943
93.103448,,0.001045883812276964,93.466,0.7990000247955322,0.05945918442143643
93.568966,,0.0010780944263435084,93.929,0.7599999904632568,-0.025918087206098207
94.03448300000001,,0.0011075375374681052,94.395,0.675000011920929,-0.21155856624444308
94.5,,0.0011339562212554293,94.86,0.7820000052452087,0.021068291217550945
94.965517,,0.0011570907676875769,95.326,0.7749999761581421,0.005313348248782077
95.431034,,0.0011766793320902743,95.793,0.777999997138977,0.011346819503220128
95.896552,,0.0011924585983543977,96.258,0.765999972820282,-0.015282297476413721
96.36206899999999,,0.001204164471438244,96.722,0.777999997138977,0.01040847629791763
96.827586,,0.0012115328293599403,97.188,0.7609999775886536,-0.02703545871799717
97.293103,,0.0012143003202576587,97.655,0.765999972820282,-0.01649052563554495
97.758621,,0.0012122051270308989,98.118,0.7820000052452087,0.018089181888762795
98.224138,,0.0012049876631933046,98.581,0.7630000114440918,-0.023505342599785907
98.689655,,0.001192391325694777,99.044,0.777999997138977,0.009058781689056078
99.155172,,0.001174163474907693,99.511,0.7799999713897705,0.013388860588762461
99.62069,,0.0011500565137083135,99.981,0.7580000162124634,-0.03447933463523159
100.086207,,0.0011198286079614715,100.439,0.7680000066757202,-0.012544312524372728
100.551724,,0.0010832439407686442,100.904,0.7820000052452087,0.018187424462774014
101.017241,,0.0010400733495565617,101.37,0.7739999890327454,0.0010642691351032709
101.482759,,0.000990096238162482,101.837,0.7760000228881836,0.005793541520169597
101.948276,,0.0009331027229123645,102.303,0.7599999904632568,-0.028639220199691902
102.413793,,0.0008688933407930299,102.771,0.7710000276565552,-0.004208187573146408
102.87931,,0.0007972763217054719,103.229,0.7990000247955322,0.057285979025346045
103.344828,,0.0007180679130434882,103.696,0.7480000257492065,-0.05332203426664244
103.810345,,0.0006311001228077709,104.159,0.7699999809265137,-0.004894357837192178
104.275862,,0.0005362280711514671,104.629,0.7549999952316284,-0.03709813151322803
104.741379,,0.00043332173440116024,105.092,0.7820000052452087,0.02216531337001964
105.206897,,0.0003222459955180851,105.56,0.7739999890327454,0.005126823721198812
105.672414,,0.0002028634029586532,106.022,0.8100000023841858,0.08388853044426726
106.13793100000001,,7.507902389765667e-05,106.488,0.6629999876022339,-0.23611491360893283
106.603448,,6.11278913006219e-05,106.95,0.7820000052452087,0.02331951755465821
107.068966,,0.0002057694024644856,107.416,0.7599999904632568,-0.02452260994175445
107.534483,,0.00035896484385944497,107.881,0.6990000009536743,-0.15742125965763157
108.0,,0.000520897363486261,108.347,0.7789999842643738,0.016779376802844817
108.46551699999999,,0.0006915396133117742,108.811,0.781000018119812,0.020960305770557932
108.931034,,0.000870523221969121,109.277,0.7620000243186951,-0.020688625632599267
109.396552,,0.0010575977623218753,109.744,0.7739999890327454,0.005130062704432772
109.862069,,0.0012532644233031111,110.209,0.7620000243186951,-0.02139886392053792
110.32758600000001,,0.0014583370204848593,110.67,0.7480000257492065,-0.05233363373367886
110.793103,,0.0016722882542326647,111.14,0.7870000004768372,0.032165144130392266
111.258621,,0.001892832773831196,111.604,0.7450000047683716,-0.05982625444267104
111.724138,,0.002118994809368787,112.066,0.7820000052452087,0.02029113458070689
112.189655,,0.002354412367846437,112.53,0.7829999923706055,0.02198864789276116
112.655172,,0.00260366513151414,112.999,0.7620000243186951,-0.02421718038548758
113.12069,,0.0028625511497435566,113.465,0.7820000052452087,0.018942025232654817
113.586207,,0.0031178817246579607,113.929,0.7630000114440918,-0.02281275439413875
114.051724,,0.0033673118152315043,114.395,0.7749999761581421,0.0030347108331060827
114.51724100000001,,0.003635580902329011,114.86,0.7789999842643738,0.011526450309995821
114.982759,,0.003946692603588105,115.325,0.7599999904632568,-0.03001068460684976
115.448276,,0.004268328377006939,115.786,0.7820000052452087,0.017860799020357254
115.913793,,0.004524714158702532,116.251,0.7620000243186951,-0.02568539232435424
116.37931,,0.004721184454974934,116.718,0.7630000114440918,-0.02339591933925239
116.84482799999999,,0.005017082656456506,117.184,0.7820000052452087,0.018189595989404936
117.310345,,0.005527745840646347,117.648,0.7580000162124634,-0.03383240849265233
117.77586199999999,,0.006016597580782848,118.111,0.7820000052452087,0.018786411066509447
118.241379,,0.006056918876501678,118.574,0.7620000243186951,-0.024400062301106213
118.70689700000001,,0.00579575472260155,119.044,0.753000020980835,-0.04357896016324464
119.172414,,0.0062357092378543715,119.511,0.7850000262260437,0.026595623279989822
119.63793100000001,,0.007888670992416861,119.973,0.7599999904632568,-0.027397848022972463
120.103448,,0.009050880295889916,120.439,0.7820000052452087,0.021005639216721415
120.568966,,0.0068655671355976906,120.903,0.7730000019073486,0.0018567372797795635
121.034483,,0.0011729623925751382,121.369,0.7730000019073486,0.002287277765922665
121.5,,0.004208523382278524,121.833,0.7739999890327454,0.004854545813516867
121.96551699999999,,0.005933590287567573,122.299,0.7689999938011169,-0.005703984684287011
122.431034,,0.005499920453521536,122.764,0.7620000243186951,-0.02068427184518856
122.896552,,0.0067306653066353875,123.229,0.7820000052452087,0.023086143166306947
123.362069,,0.009943558141113683,123.692,0.7620000243186951,-0.020367728867528394
123.827586,,0.011471190280261898,124.154,0.8009999990463257,0.06463709950155451
124.293103,,0.008876342819304535,124.622,0.7870000004768372,0.034091967873706386
124.758621,,0.004195079556901507,125.084,0.7770000100135803,0.012181451508282688
125.22413800000001,,0.0012480151733028234,125.555,0.7789999842643738,0.016338098003671107
125.68965500000002,,0.0012957830182713916,126.018,0.7599999904632568,-0.025327432776624983
126.15517200000001,,0.002449619902656606,126.484,0.7739999890327454,0.004840010071558514
126.62069000000001,,0.0025755784059556287,126.947,0.753000020980835,-0.04129732962559491
127.086207,,0.0015103888722434408,127.412,0.7649999856948853,-0.01557967472436065
127.55172400000001,,0.00034572448190657953,127.877,0.7839999794960022,0.025362117670340096
128.017241,,0.0004154462844189154,128.343,0.7789999842643738,0.01400493419890704
128.48275900000002,,0.0010640215183333732,128.808,0.7599999904632568,-0.02785041311415658
128.948276,,0.0013139808486354748,129.274,0.7870000004768372,0.03052913423639329
129.413793,,1.6927591338013897e-05,129.74,0.7549999952316284,-0.03960074218814524
129.87931,,0.0029243498936990264,130.206,0.765999972820282,-0.016005466188069216
130.344828,,0.00520372527133013,130.668,0.777999997138977,0.00982335024013787
130.81034499999998,,0.004176377341485497,131.13,0.7580000162124634,-0.033999793390056196
131.275862,,0.00027967422077504337,131.6,0.7820000052452087,0.018110033741615305
131.741379,,0.003053792080725195,132.062,0.7549999952316284,-0.04081331619437867
132.206897,,0.003384027556685453,132.53,0.7490000128746033,-0.05390470894140391
132.67241399999997,,0.001861899460141634,132.993,0.7820000052452087,0.0180518262655973
133.13793099999998,,0.001062183470734851,133.458,0.7839999794960022,0.022550029281743836
133.60344800000001,,0.001496429557525571,133.926,0.7839999794960022,0.022767025097300043
134.06896600000002,,0.001657347860672879,134.384,0.7789999842643738,0.012159873045258658
134.53448300000002,,0.000791042684895938,134.855,0.7829999923706055,0.02122047487966056
135.0,,0.00011080457054644924,135.321,0.7609999775886536,-0.02631526392751441
135.465517,,0.00022986478359337482,135.785,0.7549999952316284,-0.03895729133808541
135.931034,,0.00036706456137986323,136.251,0.7820000052452087,0.020317660542503477
136.396552,,0.001727359154287177,136.715,0.8610000014305115,0.19289209188164477
136.862069,,0.004157529226479617,137.18,0.7789999842643738,0.01470110887194098
137.327586,,0.006457387495653947,137.641,0.8980000019073486,0.2744019477930969
137.793103,,0.00793777904595984,138.111,0.7620000243186951,-0.02148324116401469
138.258621,,0.008768572416081043,138.574,0.7770000100135803,0.011561212639744705
138.724138,,0.008930898382927542,139.037,0.7609999775886536,-0.022992910443021836
139.189655,,0.007725987024245314,139.502,0.7739999890327454,0.0055635334134500735
139.655172,,0.004698527054795198,139.966,0.7639999985694885,-0.016066909513858398
140.12069,,0.0007091693870906565,140.431,0.781000018119812,0.021043364145653373
140.586207,,0.002183059490002761,140.896,0.7829999923706055,0.025389055143336697
141.05172399999998,,0.0020455769822582356,141.362,0.6660000085830688,-0.22961062846041447
141.51724099999998,,0.0012677944453192134,141.826,0.7820000052452087,0.022929701074009465
141.982759,,0.005490991881320321,142.291,0.7620000243186951,-0.020903654086855804
142.44827600000002,,0.00753353980590829,142.756,0.765999972820282,-0.012516967998565928
142.913793,,0.006348483682261132,143.222,0.7860000133514404,0.030671807370631122
143.37931,,0.0038945608512103154,143.685,0.902999997138977,0.28514849611427723
143.844828,,0.002623863364509789,144.155,0.7630000114440918,-0.020312630609062306
144.310345,,0.0024420407134768517,144.618,0.7590000033378601,-0.02949121345277271
144.77586200000002,,0.0011353504633846165,145.081,0.7639999985694885,-0.01906349665356024
145.241379,,0.0022678817351624685,145.544,0.7760000228881836,0.006628504251162621
145.706897,,0.005690244124309482,146.014,0.7609999775886536,-0.02647477058645582
146.172414,,0.0061744169727254595,146.48,0.7760000228881836,0.0058235457260199935
146.637931,,0.0033245815811171107,146.943,0.7599999904632568,-0.02936229956822481
147.103448,,0.00014522486246419935,147.408,0.7829999923706055,0.020484010907148048
147.568966,,0.0012424619240754557,147.874,0.7739999890327454,0.000687136412224589
148.034483,,0.0005096070381643986,148.339,0.7620000243186951,-0.025566040183323813
148.5,,0.003252001272454026,148.803,0.7590000033378601,-0.03212906349565313
148.965517,,0.005137156737183727,149.269,0.7680000066757202,-0.012465056192770644
149.43103399999998,,0.0058446810729216895,149.734,0.7990000247955322,0.055211591333064636
149.89655199999999,,0.0059549700340787255,150.199,0.7699999809265137,-0.007752103609789715
150.362069,,0.0057367794385915025,150.659,0.9020000100135803,0.2801206785291179
150.82758600000003,,0.005132444966263252,151.129,0.7649999856948853,-0.017997049165000667
151.293103,,0.004519753541013228,151.593,0.777999997138977,0.010734902150029878
151.758621,,0.004724646791475329,152.055,0.7580000162124634,-0.032392152496385766
152.224138,,0.006125219501087641,152.526,0.753000020980835,-0.0428182205849575
152.68965500000002,,0.00811232304785717,152.988,0.7850000262260437,0.027371876508663077
153.155172,,0.009607537562311782,153.454,0.781000018119812,0.01912240661883063
153.62069,,0.009854633437236554,153.914,0.800000011920929,0.06095944959620877
154.086207,,0.008519509159473842,154.38,0.7739999890327454,0.004720615500530744
154.551724,,0.005444114043497092,154.845,0.7739999890327454,0.005076284664064304
155.017241,,0.001019091046870093,155.311,0.777999997138977,0.014084173076065454
155.482759,,0.003200515159585267,155.778,0.7630000114440918,-0.018374317423166114
155.948276,,0.005184181231053543,156.244,0.7820000052452087,0.023161846961894793
156.413793,,0.004452079312760287,156.711,0.781000018119812,0.02104150113850649
156.87931,,0.0030209166893242273,157.169,0.7739999890327454,0.005763893357500913
157.34482799999998,,0.0035273842762067603,157.637,0.7789999842643738,0.016545531348324583
157.81034499999998,,0.006329033169343884,158.099,0.6150000095367432,-0.3409484803494771
158.275862,,0.008947835813260112,158.57,0.781000018119812,0.0204312147194378
158.741379,,0.008531906653774131,159.033,0.7620000243186951,-0.021307735948916814
159.20689700000003,,0.0045865294164539406,159.498,0.7820000052452087,0.021866307750273404
159.672414,,0.0007715097960644703,159.961,0.7580000162124634,-0.030861219206928324
160.137931,,0.004861774838821762,160.427,0.7739999890327454,0.0035304250762725467
160.60344800000001,,0.006481237940712457,160.892,0.7730000019073486,0.0008739679842468383
161.06896600000002,,0.006200062695536441,161.357,0.7580000162124634,-0.032278972941736074
161.534483,,0.005118647154697267,161.823,0.7630000114440918,-0.021839257256976316
162.0,,0.003627594556724098,162.288,0.781000018119812,0.0169578167208527
162.465517,,0.0015105920268555604,162.755,0.7730000019073486,-0.0008407557358176168
162.931034,,0.0009656824215895129,163.221,0.7820000052452087,0.018459364299086227
163.396552,,0.0027396368814772334,163.682,0.7860000133514404,0.026938187076170145
163.862069,,0.002969056165369718,164.144,0.7599999904632568,-0.02986310249195135
164.327586,,0.0016909183754014296,164.615,0.777999997138977,0.009280132590851684
164.793103,,0.0007469580268442717,165.077,0.7609999775886536,-0.027743395937136574
165.258621,,0.003906286634478899,165.541,0.7739999890327454,0.0006780054548318065
165.72413799999998,,0.006444583065718196,166.01,0.7860000133514404,0.02700318357597796
166.189655,,0.006324907679725028,166.469,0.7799999713897705,0.01418941489039934
166.655172,,0.0029890324813825605,166.94,0.7870000004768372,0.029766617857715453
167.12069,,0.001273582972091509,167.406,0.7630000114440918,-0.02213717102771137
167.58620699999997,,0.0032811417857444747,167.87,0.7559999823570251,-0.03696052270158173
168.051724,,0.0022850454991343912,168.329,0.7620000243186951,-0.0234325892807393
168.517241,,0.0006097921539347194,168.796,0.7620000243186951,-0.022962963463867364
168.98275900000002,,0.0008710222723855384,169.262,0.781000018119812,0.018899613446684504
169.44827600000002,,0.0031499567156029933,169.727,0.777999997138977,0.01281570924763304
169.913793,,0.00518673817226531,170.192,0.7590000033378601,-0.02815771273057071
170.37931,,0.004921904773292104,170.655,0.7820000052452087,0.022326718967929912
170.844828,,0.0024894003027988087,171.125,0.765999972820282,-0.01221381729173591
171.310345,,4.5197443732230967e-05,171.585,0.7720000147819519,0.0011079899247116074
171.775862,,0.0006709819901172629,172.055,0.7590000033378601,-0.02704129988895839
172.241379,,0.0006475785885722919,172.518,0.7630000114440918,-0.01823614455203923
172.706897,,0.001986561522330614,172.981,0.7950000166893005,0.051486100755116025
173.172414,,0.001674986980147366,173.447,0.7599999904632568,-0.024845835346659247
173.637931,,0.0003008022788284237,173.914,0.7739999890327454,0.005493657914747771
174.103448,,9.542670439499137e-05,174.38,0.765999972820282,-0.012174545385058364
174.568966,,0.0013234896609387794,174.845,0.7860000133514404,0.031090397559747126
175.034483,,0.003263694197076649,175.311,0.7739999890327454,0.004579804189647904
175.5,,0.0042120762445218285,175.77,0.7649999856948853,-0.015441575786659542
175.96551699999998,,0.004252531964688276,176.236,0.7820000052452087,0.021148570722760572
176.43103399999998,,0.004290598905352887,176.704,0.7820000052452087,0.020683424832680698
176.896552,,0.004287761863009779,177.165,0.7789999842643738,0.013679653363709425
177.36206900000002,,0.003430337798019787,177.63,0.777999997138977,0.01104588820842027
177.827586,,0.0018126290096522092,178.099,0.7620000243186951,-0.02424036390619321
178.293103,,0.0007629235422731823,178.56,0.7570000290870667,-0.03552091841277926
178.758621,,0.0012241841595771142,179.029,0.7820000052452087,0.018611317712122807
179.224138,,0.0026205973651943918,179.495,0.7570000290870667,-0.03612398763473389
179.68965500000002,,0.0036472330704001438,179.957,0.8009999990463257,0.0595415163612415
180.155172,,0.0035881683623857656,180.423,0.7770000100135803,0.007140349469134421
180.62069,,0.0025878257830793555,180.888,0.7599999904632568,-0.029925500064588415
181.086207,,0.0011036678036334732,181.354,0.7829999923706055,0.02023990259671639
181.551724,,0.0006031740591236864,181.818,0.7609999775886536,-0.02755032185358601
182.01724099999998,,0.0025876917688378532,182.284,0.781000018119812,0.016241961877750337
182.482759,,0.004868426181886581,182.748,0.781000018119812,0.0165335405681869
182.948276,,0.006886179108685979,183.214,0.7710000276565552,-0.004898278073476287
183.413793,,0.0075071675736671966,183.677,0.777999997138977,0.010758107419482476
183.87931,,0.005864580979943065,184.14,0.7440000176429749,-0.06287260338518916
184.34482799999998,,0.002372402921347272,184.608,0.765999972820282,-0.014476938062040897
184.81034499999998,,0.0011256822891803587,185.069,0.7590000033378601,-0.029254963685207722
185.27586200000002,,0.0026134800332571154,185.537,0.7649999856948853,-0.015718892432936275
185.74137900000002,,0.001779954192759765,186.0,0.7820000052452087,0.021759361625455286
186.206897,,0.0004936090426464055,186.465,0.7519999742507935,-0.043196342460197316
186.672414,,0.0008215254376802055,186.929,0.777999997138977,0.013801489554726553
187.137931,,0.0025748608233269335,187.395,0.7609999775886536,-0.022945174361792633
187.60344800000001,,0.003496823498682017,187.859,0.7630000114440918,-0.01836960240658086
188.06896600000002,,0.0021113029658713376,188.325,0.7889999747276306,0.038414152363592066
188.534483,,0.0003558633182917572,188.792,0.6069999933242798,-0.3580473443866332
189.0,,0.0015963654901176186,189.258,0.7789999842643738,0.01664168025345308
189.465517,,0.001294871201490446,189.724,0.7630000114440918,-0.018342494362084127
189.931034,,0.0013920039740429161,190.19,0.7820000052452087,0.02284594684586464
190.39655199999999,,0.0030702052264777223,190.652,0.7820000052452087,0.022567259187373078
190.862069,,0.00481068874890437,191.114,0.7580000162124634,-0.030062723084281553
191.327586,,0.004421657538622791,191.585,0.7609999775886536,-0.023922644896797685
191.793103,,0.002080082438345928,192.047,0.7839999794960022,0.025750190933367792
192.25862099999998,,6.145789513295699e-05,192.515,0.7799999713897705,0.01657426124612832
192.72413799999998,,0.00018650943913881425,192.977,0.7749999761581421,0.005209738938221165
193.189655,,0.000541107718297311,193.443,0.765999972820282,-0.014864448196839693
193.655172,,0.0007906132102355446,193.908,0.7620000243186951,-0.024025651203249152
194.12069000000002,,0.00037913277405346576,194.374,0.7799999713897705,0.014777372012381731
194.586207,,0.00016581550846322062,194.836,0.7590000033378601,-0.031338941789877964
195.051724,,0.0004788090164618335,195.302,0.7820000052452087,0.01846488971101901
195.517241,,0.0005704254210831809,195.766,0.7850000262260437,0.024765867563263405
195.98275900000002,,0.0002917162311851713,196.232,0.7620000243186951,-0.025500254769164343
196.448276,,0.0016019213851332093,196.7,0.7699999809265137,-0.008146083602650298
196.913793,,0.001690248606920972,197.163,0.781000018119812,0.01582895117100098
197.37931,,0.0008906015099539217,197.626,0.765999972820282,-0.016756399385818976
197.844828,,0.00576343530709832,198.089,0.7950000166893005,0.046600767518924
198.310345,,0.010403065941110626,198.559,0.8009999990463257,0.059925765049908514
198.775862,,0.011821853575018115,199.022,0.7850000262260437,0.02538963029975837
199.241379,,0.009069362897014599,199.488,0.765999972820282,-0.015625017170277776
199.706897,,0.004146733812443511,199.951,0.7879999876022339,0.032729617427066274
200.172414,,0.0002394287980158501,200.417,0.7570000290870667,-0.03435364536554317
200.63793099999998,,0.0010612851424055612,200.881,0.7599999904632568,-0.027348179904357086
201.103448,,0.0006982823619470289,201.347,0.777999997138977,0.012336429113596965
201.568966,,0.00047742183362083047,201.814,0.7820000052452087,0.021504721568802905
202.034483,,0.0011051836932728818,202.281,0.7620000243186951,-0.021644496747598038
202.5,,0.002249439216435807,202.741,0.7839999794960022,0.02666534499743995
202.965517,,0.003722149826704782,203.206,0.6539999842643738,-0.2562378421600658
203.431034,,0.005425969006955613,203.674,0.7590000033378601,-0.02722979602330497
203.896552,,0.00638873420686023,204.136,0.765999972820282,-0.011807204893067672
204.36206900000002,,0.005266516837767441,204.6,0.7570000290870667,-0.03132384246251178
204.827586,,0.002231054575371849,205.07,0.7839999794960022,0.027507228003004935
205.293103,,0.000588980895142594,205.53,0.7229999899864197,-0.10546641953115733
205.758621,,0.0010486100866092403,205.999,0.7870000004768372,0.033809538326064946
206.224138,,0.0010666914083799293,206.465,0.7620000243186951,-0.020889611427169018
206.689655,,0.004008522774501369,206.929,0.7620000243186951,-0.021189828466747104
207.155172,,0.0053874286324650505,207.395,0.777999997138977,0.013310873795956552
207.62069,,0.0037764705723403813,207.859,0.7559999823570251,-0.03502244931070585
208.086207,,2.787736657313413e-05,208.324,0.7789999842643738,0.01465128221561715
208.551724,,0.0027813032287667392,208.789,0.777999997138977,0.012019970819027507
209.01724099999998,,0.0016800439727695509,209.254,0.7580000162124634,-0.032008331859417614
209.482759,,0.003092630465001609,209.719,0.7609999775886536,-0.02591637715213862
209.948276,,0.007662752973006925,210.185,0.7879999876022339,0.03248938023638131
210.413793,,0.008096330709104758,210.648,0.7519999742507935,-0.0463197744949438
210.87930999999998,,0.004385126382207412,211.111,0.7900000214576721,0.03614334213702367
211.344828,,2.1332852064892457e-05,211.574,0.7620000243186951,-0.025121714780325783
211.810345,,0.002533521637758691,212.044,0.7710000276565552,-0.005705771448330772
212.27586200000002,,0.003687029671352896,212.515,0.7789999842643738,0.01160839698697269
212.741379,,0.0045851075577303235,212.97,0.7739999890327454,0.0006810915467649852
213.206897,,0.004095090491295974,213.436,0.7630000114440918,-0.023236593444740297
213.672414,,0.0005321622990273954,213.9,0.7739999890327454,0.0008552853012831689
214.137931,,0.004755014559357488,214.366,0.7789999842643738,0.011950607168245713
214.60344800000001,,0.007709355115864634,214.833,0.7820000052452087,0.018757613290086884
215.068966,,0.005883388531335873,215.299,0.7609999775886536,-0.02666339280579507
215.534483,,0.001129876097751021,215.764,0.7620000243186951,-0.02410598288834432
216.0,,0.00259683522504696,216.229,0.7549999952316284,-0.03894296723080052
216.465517,,0.0034014673867298856,216.692,0.7689999938011169,-0.00800687868155871
216.93103399999998,,0.0028233751769904713,217.154,0.7739999890327454,0.0033289783342190455
217.39655199999999,,0.003330984978399835,217.623,0.7269999980926514,-0.09863215444315496
217.862069,,0.005167005754421943,218.085,0.781000018119812,0.019428238635833185
218.327586,,0.006272651391636148,218.555,0.777999997138977,0.01327117640044735
218.793103,,0.005148125211014199,219.018,0.7789999842643738,0.01578306706000984
219.25862099999998,,0.0027613039515212495,219.483,0.7590000033378601,-0.027513385242674583
219.724138,,0.0010623411219705353,219.946,0.7860000133514404,0.03152078768074906
220.18965500000002,,0.0005092805327360663,220.412,0.7580000162124634,-0.0293432315403902
220.65517200000002,,0.00012224814958165567,220.88,0.8740000128746033,0.22344303033348248
221.12069,,0.0005783077611171205,221.339,0.7689999938011169,-0.005327523244260561
221.586207,,0.000996613283786429,221.811,0.777999997138977,0.014191497496550229
222.051724,,0.0007623319031704281,222.269,0.781000018119812,0.020563435291710085
222.517241,,0.0004912968669222143,222.734,0.7599999904632568,-0.025422387621792775
222.98275900000002,,0.0009068187999774556,223.2,0.8569999933242798,0.1856110145502832
223.448276,,0.001828924484488934,223.67,0.7620000243186951,-0.021706665383355788
223.913793,,0.0024685819901548137,224.132,0.7820000052452087,0.021479437819455216
224.37931,,0.0024950979065729703,224.6,0.7799999713897705,0.016705776210438693
224.844828,,0.0024057375816552737,225.063,0.6990000009536743,-0.16019834215062206
225.31034499999998,,0.0027965792499942744,225.526,0.7789999842643738,0.01365507060701813
225.775862,,0.0035884176137433244,225.995,0.7570000290870667,-0.034703194954451705
226.241379,,0.004185094163232909,226.461,0.765999972820282,-0.015498322062063884
226.706897,,0.004231903227709467,226.925,0.7900000214576721,0.036425341362659173
227.172414,,0.0039339213125076855,227.384,0.777999997138977,0.009969134127232694
227.63793099999998,,0.0035322667003388694,227.855,0.7820000052452087,0.018433454782983034
228.103448,,0.002676455070360241,228.314,0.781000018119812,0.016074841062151138
228.56896600000002,,0.0007925563252575555,228.781,0.777999997138977,0.009435184912619054
229.03448300000002,,0.0016759791569743857,229.247,0.7599999904632568,-0.029804746323216735
229.5,,0.002938281954161118,229.711,0.765999972820282,-0.016677305233723405
229.965517,,0.0015660518367308827,230.177,0.777999997138977,0.009600474694121723
230.431034,,0.00154031458886751,230.644,0.8140000104904175,0.0882412859849928
230.896552,,0.0036687132498650966,231.107,0.7739999890327454,0.0013743803291573287
231.362069,,0.003022485527790755,231.57,0.7699999809265137,-0.007001237627132083
231.827586,,0.0004791113329511025,232.04,0.7599999904632568,-0.028400815720733903
232.293103,,0.0015461963546886583,232.506,0.7860000133514404,0.028666462345966794
232.758621,,0.001615891385252905,232.964,0.7870000004768372,0.03129003537169921
233.224138,,0.00046471721285373823,233.43,0.7599999904632568,-0.0270803760339083
233.689655,,1.1277573553482453e-05,233.896,0.7960000038146973,0.051797285188166314
234.155172,,0.001520042320448216,234.362,0.7770000100135803,0.010828256706164573
234.62069,,0.004670560330208888,234.83,0.7720000147819519,0.0003252719954764064
235.086207,,0.007995647627039013,235.295,0.7360000014305115,-0.07776499093719542
235.55172399999998,,0.009827911008087508,235.76,0.7730000019073486,0.0031250376600060474
236.01724099999998,,0.009086248784534963,236.226,0.7799999713897705,0.018585952231598042
236.482759,,0.005994733781604405,236.689,0.7739999890327454,0.005648779188236174
236.94827600000002,,0.002287409495353444,237.151,0.7739999890327454,0.0057030299682389535
237.413793,,6.896539081315927e-05,237.615,0.765999972820282,-0.011754635348815642
237.87931,,0.0008271944308742082,238.085,0.7210000157356262,-0.10990532840754602
238.344828,,0.001533001756090511,238.548,0.777999997138977,0.014085593227971222
238.810345,,0.003213217658955497,239.011,0.7609999775886536,-0.02321693116607373
239.27586200000002,,0.0046861966051727575,239.476,0.9190000295639038,0.3206828194550199
239.741379,,0.0038637486943923155,239.94,0.7620000243186951,-0.02174044112569107
240.206897,,0.0002475562385221461,240.406,0.7749999761581421,0.006167453675621977
240.672414,,0.00460002364433617,240.87,0.7860000133514404,0.029690031837276438
241.137931,,0.008730979949813459,241.336,0.7829999923706055,0.022697894823743698
241.603448,,0.01116120845446529,241.8,0.777999997138977,0.011349593655047709
242.068966,,0.011647339585380681,242.265,0.7590000033378601,-0.030484730519746775
242.534483,,0.01002856609640453,242.731,0.7739999890327454,0.0017836723323745615
243.0,,0.006433803071428956,243.197,0.7620000243186951,-0.024729357938999372
243.465517,,0.0019420709257975445,243.659,0.765999972820282,-0.01633026027917206
243.93103399999998,,0.0016979490411878537,244.129,0.7210000157356262,-0.11462137945269343
244.39655199999999,,0.0034967004206479415,244.592,0.777999997138977,0.009380870291527038
244.862069,,0.004127036118757223,245.055,0.7699999809265137,-0.008150416002957649
245.327586,,0.004855160188103593,245.526,0.777999997138977,0.009260097731575174
245.793103,,0.005667283837728073,245.988,0.7630000114440918,-0.02335400874811394
246.258621,,0.005271171078187585,246.454,0.7789999842643738,0.01165252477684894
246.724138,,0.003230912820217253,246.918,0.7820000052452087,0.01841543686919006
247.18965500000002,,0.0011011850687988889,247.384,0.7789999842643738,0.012178603331310076
247.655172,,0.0005806300653159439,247.848,0.7749999761581421,0.0038260523412258266
248.12069,,0.0013075579183131367,248.313,0.7599999904632568,-0.028440468591803266
248.586207,,0.001670961727750471,248.778,0.765999972820282,-0.014917827960866083
249.051724,,0.0013229085286382174,249.244,0.7770000100135803,0.009521654091873888
249.517241,,0.001479581106714177,249.711,0.7839999794960022,0.025255424227977937
249.982759,,0.002777183280552067,250.169,0.7910000085830688,0.04098347184224012
250.44827600000002,,0.00421945391026863,250.638,0.7820000052452087,0.021832023012810592
250.913793,,0.004707571210434985,251.1,0.7599999904632568,-0.02567839926890038
251.37931000000003,,0.004568343279675727,251.57,0.7870000004768372,0.033514270075927034
251.844828,,0.004753861094625699,252.032,0.7599999904632568,-0.02500307362362124
252.31034499999998,,0.0050298928000392885,252.498,0.7850000262260437,0.029696216125331437
252.77586200000002,,0.0039400569513117715,252.961,0.6309999823570251,-0.30566653406224437
253.241379,,0.0008415124721728426,253.426,0.7609999775886536,-0.02238459008065542
253.706897,,0.0025855475384434466,253.893,0.8050000071525574,0.07344241944330918
254.172414,,0.0035665284369073287,254.359,0.7609999775886536,-0.022538978986963734
254.63793099999998,,0.001224180169715797,254.825,0.7070000171661377,-0.1403921414416218
255.10344800000001,,0.0020078219602934085,255.284,0.7590000033378601,-0.027389562673078193
255.56896600000002,,0.0026313335325673917,255.749,0.7639999985694885,-0.016854395073248388
256.03448299999997,,1.6972556123915378e-05,256.214,0.7820000052452087,0.021945180562893327
256.5,,0.0027755213538600415,256.685,0.7839999794960022,0.025842307897658484
256.965517,,0.00225516141812794,257.147,0.7590000033378601,-0.0291133403981349
257.431034,,0.0011084857362454246,257.615,0.777999997138977,0.011777270454728112
257.896552,,0.0037130135387999324,258.077,0.7620000243186951,-0.023582918623947083
258.362069,,0.003294042190887024,258.541,0.7820000052452087,0.019506276263226867
258.827586,,0.0012980332037318197,259.011,0.7870000004768372,0.029950005233339114
259.29310300000003,,0.00029663493655113487,259.469,0.7789999842643738,0.012120433189604693
259.758621,,0.00055541885922184,259.94,0.777999997138977,0.00960335348660031
260.224138,,0.000568465562820355,260.405,0.7820000052452087,0.01805225433840017
260.689655,,0.00012408258901509724,260.87,0.777999997138977,0.009153379752389912
261.155172,,0.0008413978099653227,261.335,0.7609999775886536,-0.027980847672299185
261.62068999999997,,0.003380002494745106,261.801,0.7870000004768372,0.028657096128331266
262.086207,,0.005801772531045737,262.259,0.7839999794960022,0.02220527526139463
262.551724,,0.005752728604345014,262.726,0.7860000133514404,0.026735862648613815
263.017241,,0.0033590688236651654,263.192,0.7829999923706055,0.020456686869993777
263.482759,,0.0008983055672247852,263.659,0.7820000052452087,0.018610283862471853
263.94827599999996,,6.79950273225935e-05,264.121,0.7720000147819519,-0.0027794020195939617
264.413793,,0.00048384923645256354,264.589,0.7739999890327454,0.0020261931022012777
264.87931,,0.0006541275280798464,265.052,0.7739999890327454,0.0025116856398851124
265.34482799999995,,0.00031019565349916416,265.515,0.7820000052452087,0.020448211953421357
265.810345,,0.0019717873554665655,265.985,0.777999997138977,0.01224667828079827
266.27586199999996,,0.003147434830050711,266.45,0.7120000123977661,-0.13104296585439507
266.741379,,0.003216371406895866,266.914,0.7789999842643738,0.015398371508653263
267.206897,,0.0029548944245857962,267.38,0.7599999904632568,-0.025567509684219142
267.672414,,0.0037956679911047815,267.844,0.7049999833106995,-0.14502243235762446
268.137931,,0.006067877621806385,268.309,0.7689999938011169,-0.005288735044842984
268.603448,,0.00825787268918991,268.774,0.7599999904632568,-0.024675452243134513
269.06896600000005,,0.00830124153373818,269.24,0.777999997138977,0.014676627343375616
269.53448299999997,,0.005525607325659544,269.7,0.7820000052452087,0.023439179925300403
270.0,,0.0012571421234438503,270.17,0.7599999904632568,-0.024533037134861473
270.465517,,0.0022390837629619673,270.633,0.7839999794960022,0.02762383932445017
270.931034,,0.003313750540741718,271.096,0.7620000243186951,-0.02052156859801529
271.396552,,0.0018818457306361705,271.559,0.777999997138977,0.01404375523978133
271.86206899999996,,0.0006120603794895807,272.029,0.765999972820282,-0.012461622723588238
272.327586,,0.002102184324231246,272.495,0.7839999794960022,0.026335656728995734
272.793103,,0.0012171821845493452,272.957,0.7609999775886536,-0.024235322386958035
273.258621,,0.0016944217986890496,273.423,0.7820000052452087,0.02102519716596406
273.724138,,0.004474052834539747,273.889,0.7509999871253967,-0.04701796151323864
274.18965499999996,,0.004331135111937516,274.354,0.765999972820282,-0.014841570602964975
274.655172,,9.47797300341943e-05,274.818,0.7620000243186951,-0.02404184293321105
275.12069,,0.007172535278687968,275.284,0.7870000004768372,0.02997208780228006
275.586207,,0.012850225254247668,275.744,0.7630000114440918,-0.022719411534093674
276.051724,,0.013513655686559396,276.21,0.7760000228881836,0.005260052952626354
276.517241,,0.00893937237666548,276.678,0.7839999794960022,0.022418168663897512
276.98275900000004,,0.0025426667169647027,277.14,0.7480000257492065,-0.05620359856707542
277.448276,,0.0014720667676832622,277.611,0.777999997138977,0.009051224856592642
277.913793,,0.0014532031586176057,278.073,0.7739999890327454,0.0003216405868625879
278.37931,,0.0008159988002915289,278.534,0.8600000143051147,0.18776270572497075
278.844828,,0.002202946756348839,279.004,0.777999997138977,0.009281889970718184
279.31034500000004,,0.0010431355645894292,279.47,0.7620000243186951,-0.025323908652348955
279.77586199999996,,0.0019507065439682903,279.934,0.7649999856948853,-0.018461685136034137
280.241379,,0.004993368988862877,280.399,0.7820000052452087,0.01896522252490139
280.706897,,0.00686205563096308,280.859,0.777999997138977,0.010692034317838148
281.172414,,0.007435722020692654,281.325,0.7609999775886536,-0.02586628604644005
281.637931,,0.007338944407865265,281.796,0.7620000243186951,-0.023187421073820238
282.10344799999996,,0.007327448784600324,282.254,0.6129999756813049,-0.34730378325522915
282.568966,,0.00766129270541203,282.726,0.7820000052452087,0.02137458270789469
283.034483,,0.007724460987541936,283.184,0.7889999747276306,0.03708421427839664
283.5,,0.006399359198361213,283.652,0.7820000052452087,0.02225450978460299
283.965517,,0.003261929656052371,284.114,0.7599999904632568,-0.02530699925776575
284.431034,,0.000539390684146093,284.585,0.7649999856948853,-0.014109204934888315
284.89655200000004,,0.0031529654623490737,285.047,0.7689999938011169,-0.00516382186653164
285.362069,,0.004105332255204965,285.515,0.765999972820282,-0.011549715036735414
285.827586,,0.004992012490027977,285.978,0.7820000052452087,0.023373904970331448
286.293103,,0.007463935851001526,286.443,0.7609999775886536,-0.022399295054414216
286.758621,,0.010724862042986333,286.908,0.7599999904632568,-0.024685772172683005
287.22413800000004,,0.011698203472774192,287.373,0.7760000228881836,0.00998186937323998
287.689655,,0.007949964677868973,287.84,0.7559999823570251,-0.03385866399946372
288.155172,,0.00027333275310686684,288.306,0.7760000228881836,0.009378728176174963
288.62069,,0.007705011485649979,288.764,0.8029999732971191,0.06780974184547231
289.086207,,0.012290060254833696,289.229,0.7820000052452087,0.02162237965487265
289.55172400000004,,0.012091888336847966,289.7,0.7639999985694885,-0.01805949305092489
290.01724099999996,,0.008242984433102427,290.162,0.7580000162124634,-0.03161454472542833
290.482759,,0.0029969887016107603,290.63,0.7649999856948853,-0.016849672496131056
290.948276,,0.0017580107426547512,291.092,0.7620000243186951,-0.023858346395460816
291.413793,,0.005084295634642058,291.555,0.781000018119812,0.017091045223897643
291.87931,,0.006680663476848326,292.025,0.7829999923706055,0.02104575616994109
292.344828,,0.006411139169610887,292.491,0.7699999809265137,-0.00762417954636641
292.81034500000004,,0.004428196186287378,292.953,0.765999972820282,-0.016621002267974628
293.275862,,0.0017212823538042738,293.419,0.777999997138977,0.009314402002892496
293.74137900000005,,1.4370351571389825e-05,293.885,0.7630000114440918,-0.023493515524786367
294.206897,,0.00026921436355221783,294.351,0.7870000004768372,0.028750034999383507
294.672414,,0.0017245602111186065,294.811,0.7580000162124634,-0.03438925599713356
295.13793100000004,,0.002328388554020864,295.276,0.7820000052452087,0.018023692534300133
295.603448,,0.0011127783222838498,295.741,0.7739999890327454,0.0007999044563170441
296.068966,,0.000806136864827367,296.207,0.7620000243186951,-0.02506492536290758
296.534483,,0.0017292127142342546,296.675,0.765999972820282,-0.016007446470244192
297.0,,0.0014727884669359706,297.137,0.7870000004768372,0.030140889443900355
297.46551700000003,,0.0015451474927737096,297.6,0.7699999809265137,-0.0064577892624160735
297.931034,,0.003311408488634888,298.069,0.7860000133514404,0.028867162549089078
298.396552,,0.00621683421136962,298.53,0.7590000033378601,-0.029476617634993655
298.862069,,0.008050378310090055,299.0,0.8180000185966492,0.09954217088242787
299.327586,,0.007162457909581083,299.466,0.7699999809265137,-0.0045700886390247775
299.79310300000003,,0.004321995982395025,299.929,0.7480000257492065,-0.05206833578780743
300.258621,,0.002058160383439714,300.395,0.8510000109672546,0.1727200978360009
300.724138,,0.0020416468528217176,300.86,0.7829999923706055,0.024905210953039728
301.189655,,0.0032647808213368606,301.325,0.7760000228881836,0.0099225210612333
301.65517200000005,,0.0030775393677379107,301.785,0.7620000243186951,-0.020386544980456767
302.12069,,0.0002084549734930055,302.25,0.7789999842643738,0.016760243488188744
302.586207,,0.0034836713380949702,302.715,0.7940000295639038,0.049464912449332155
303.05172400000004,,0.004759826861859746,303.18,0.7789999842643738,0.016724688141421144
303.517241,,0.002472145460760838,303.648,0.7889999747276306,0.03836731164348401
303.982759,,0.0012315053362475198,304.111,0.7609999775886536,-0.022858139449838645
304.448276,,0.0031705554590411426,304.574,0.6880000233650208,-0.18219740590140668
304.913793,,0.002006023469184572,305.044,0.7820000052452087,0.022230798740956334
305.37931000000003,,0.0011463111596477589,305.515,0.7820000052452087,0.021812931774678072
305.844828,,0.004160360848327668,305.97,0.7789999842643738,0.014820985626143557
306.310345,,0.005578166000015453,306.435,0.7599999904632568,-0.027053352062714073
306.775862,,0.005390551863289598,306.9,0.7039999961853027,-0.14954833748763938
307.241379,,0.004619225643114479,307.365,0.7630000114440918,-0.021494975375554358
307.70689699999997,,0.0040025685036390035,307.83,0.7620000243186951,-0.024140168699048167
308.172414,,0.0030758000372208398,308.295,0.7829999923706055,0.021181686517681403
308.637931,,0.0009161815278037821,308.76,0.7820000052452087,0.0186248018219342
309.103448,,0.0021764953063967713,309.226,0.7620000243186951,-0.02526279867826669
309.568966,,0.004320903579904726,309.696,0.7839999794960022,0.022426113182939356
310.034483,,0.0038802662937444366,310.158,0.753000020980835,-0.045272162865921006
310.5,,0.001544263717754824,310.626,0.7599999904632568,-0.03009631886326723
310.96551700000003,,3.065357469571848e-05,311.088,0.781000018119812,0.015668886444769426
311.431034,,0.0008978244819562839,311.552,0.7609999775886536,-0.02780233306587837
311.896552,,0.0030894256988671515,312.015,0.7820000052452087,0.018136418084240467
312.362069,,0.003890319280882897,312.481,0.7609999775886536,-0.02734891000735627
312.827586,,0.0025621959843831876,312.944,0.7789999842643738,0.012203946535277836
313.29310300000003,,0.0009782807177511521,313.409,0.777999997138977,0.010422788705328251
313.758621,,0.000918977220000288,313.874,0.7620000243186951,-0.023990465518103014
314.224138,,0.0018341777226461922,314.34,0.7789999842643738,0.013524625571544003
314.689655,,0.0019826772286493507,314.804,0.7799999713897705,0.016199487368633685
315.155172,,0.001012049520102635,315.27,0.6169999837875366,-0.3384245858803273
315.62068999999997,,0.0003042466763057575,315.737,0.8080000281333923,0.07817436390574445
316.086207,,0.0008085344950079684,316.202,0.7580000162124634,-0.030312138541694244
316.551724,,0.0014799052747468172,316.67,0.7919999957084656,0.04416521811761738
317.017241,,0.00042614259965768425,317.132,0.7689999938011169,-0.005595951866732335
317.482759,,0.002728421234070404,317.601,0.765999972820282,-0.01185110085035583
317.94827599999996,,0.006207795332813937,318.063,0.7820000052452087,0.023212052357331883
318.413793,,0.007835047568255399,318.526,0.7630000114440918,-0.018060124878233136
318.87931000000003,,0.006952346589085723,318.996,0.6700000166893005,-0.22064103004501415
319.344828,,0.004550970468356179,319.454,0.9340000152587891,0.35446711665651764
319.810345,,0.0021414520215021753,319.919,0.7599999904632568,-0.024755298643267202
320.275862,,0.0008040199065479716,320.384,0.7599999904632568,-0.024972224139603743
320.741379,,0.0007720204106720883,320.855,0.7850000262260437,0.029201477344407468
321.20689699999997,,0.001429284528187457,321.314,0.7870000004768372,0.033200443298743505
321.672414,,0.0018384393309688102,321.786,0.7039999961853027,-0.1480412839819605
322.137931,,0.0013816067498269395,322.244,0.7490000128746033,-0.05046072090619475
322.603448,,0.0001283172671241337,322.711,0.777999997138977,0.012231640679162568
323.068966,,0.0025017792469204307,323.177,0.7620000243186951,-0.023127764620993446
323.53448299999997,,0.004861895807559299,323.64,0.7649999856948853,-0.017089702034348873
324.0,,0.005701540804223512,324.11,0.7739999890327454,0.0020394640942696415
324.465517,,0.004041052628543438,324.571,0.7900000214576721,0.03645434051372025
324.931034,,0.0006511107030153704,325.041,0.753000020980835,-0.0445498853500738
325.396552,,0.002261809963302069,325.5,0.7829999923706055,0.02047683385311754
325.86206899999996,,0.002875771711162802,325.97,0.7590000033378601,-0.03207120477504162
326.327586,,0.0014688228451341051,326.436,0.7860000133514404,0.026572706133754734
326.793103,,0.00036037391929164415,326.901,0.7770000100135803,0.006872353490915188
327.258621,,0.0017175849627922484,327.359,0.7739999890327454,0.0003342448351085468
327.724138,,0.005122258735276611,327.825,0.765999972820282,-0.017006885565800923
328.189655,,0.007825540983961564,328.291,0.7829999923706055,0.020205856833668306
328.655172,,0.007819747748652616,328.756,0.7829999923706055,0.02046416637253909
329.12068999999997,,0.005940719819982928,329.222,0.7599999904632568,-0.02931198052677131
329.586207,,0.004246355034529611,329.685,0.7789999842643738,0.0124786581415439
330.051724,,0.0032035421133602905,330.154,0.8500000238418579,0.16761180047732552
330.517241,,0.0018481515995891536,330.615,0.7620000243186951,-0.02362059558631475
330.982759,,0.00033471585488335505,331.085,0.7860000133514404,0.029178358828460028
331.44827599999996,,0.0005766340379759384,331.548,0.8009999990463257,0.06237526671416421
331.913793,,0.0037532340993294633,332.01,0.777999997138977,0.012773287843710662
332.37931,,0.008206020901468046,332.476,0.7549999952316284,-0.03685630128597466
332.844828,,0.010551366109271024,332.94,0.7789999842643738,0.015866645713623596
333.310345,,0.008620795352057951,333.405,0.7580000162124634,-0.02950751914165871
333.77586199999996,,0.003174254908880198,333.87,0.7620000243186951,-0.020486007639255028
334.241379,,0.0029023357350718873,334.335,0.7739999890327454,0.005884096133444447
334.706897,,0.0069501503415798655,334.8,0.7820000052452087,0.023452484230363682
335.17241399999995,,0.008418040722032238,335.266,0.7599999904632568,-0.024430396204434268
335.637931,,0.008740283292620821,335.734,0.7599999904632568,-0.024477026310018527
336.103448,,0.009523698136870042,336.2,0.7860000133514404,0.032028646670133276
336.56896600000005,,0.01095644458136643,336.663,0.7630000114440918,-0.018307280380142392
337.034483,,0.011923396801643176,337.126,0.7820000052452087,0.022779472461085748
337.5,,0.011358022411581827,337.589,0.7620000243186951,-0.021171943371608458
337.965517,,0.00921240424463449,338.059,0.7680000066757202,-0.008537682326595594
338.431034,,0.006264315317942147,338.522,0.7889999747276306,0.03673139006433802
338.89655200000004,,0.003395579818474265,338.985,0.7649999856948853,-0.016067659029835018
339.36206899999996,,0.0011277689794458759,339.451,0.8040000200271606,0.06837586211356382
339.827586,,0.0004685157115221968,339.918,0.7630000114440918,-0.021467990608798473
340.293103,,0.0014931260079724695,340.384,0.777999997138977,0.010713290968897638
340.758621,,0.0016902022672489346,340.85,0.7580000162124634,-0.033321860312172914
341.224138,,0.0004950702852528692,341.315,0.7789999842643738,0.012018521642950463
341.68965499999996,,0.0019757035318747384,341.774,0.781000018119812,0.01602947022763762
342.155172,,0.0043376994358630735,342.24,0.7620000243186951,-0.025635171114438998
342.62069,,0.004946658096949183,342.715,0.8109999895095825,0.08093340488977223
343.086207,,0.003331584420072008,343.173,0.7820000052452087,0.017659630311661383
343.551724,,0.00030161314043676747,343.636,0.7620000243186951,-0.02591154455109299
344.01724099999996,,0.0029091997419091434,344.099,0.777999997138977,0.009042374619136751
344.48275900000004,,0.005133979648316311,344.567,0.7820000052452087,0.017943767417626353
344.948276,,0.005475689806488175,345.03,0.7609999775886536,-0.027535760328281627
345.413793,,0.003861996519232286,345.495,0.949999988079071,0.3845807404262195
345.87931,,0.0013980935134207107,345.965,0.7570000290870667,-0.035475280194443765
346.344828,,0.00029788405877792697,346.424,0.765999972820282,-0.015390166092448893
346.81034500000004,,0.0003004712598967317,346.896,0.7739999890327454,0.0025520131086547173
347.275862,,0.0009328303017696799,347.354,0.777999997138977,0.01179902246996304
347.741379,,0.0018210219138087385,347.825,0.7789999842643738,0.014512531922209257
348.206897,,0.0008130889396486228,348.284,0.7760000228881836,0.008496760478625208
348.672414,,0.002134449724230647,348.749,0.7599999904632568,-0.025873659544032312
349.13793100000004,,0.005166303682119608,349.215,0.7870000004768372,0.0333899095892885
349.60344799999996,,0.006109586904751237,349.685,0.7630000114440918,-0.01851963921851764
350.068966,,0.004638601854178987,350.148,0.7749999761581421,0.007927669717788723
350.534483,,0.0025991247290019885,350.615,0.777999997138977,0.014683079685428624
351.0,,0.0020713454288649427,351.077,0.7789999842643738,0.016990203021869748
351.465517,,0.003274831973508024,351.54,0.7839999794960022,0.02791705951313889
351.93103399999995,,0.0044472066375664514,352.01,0.7630000114440918,-0.01789704649653219
352.396552,,0.003689138271695736,352.476,0.777999997138977,0.014625558346426887
352.862069,,0.0008691061510232804,352.94,0.765999972820282,-0.011764926739039328
353.32758600000005,,0.0022685283701087753,353.405,0.7789999842643738,0.016229417551441007
353.793103,,0.003814129924840879,353.87,0.7820000052452087,0.022366756715609573
354.258621,,0.0034118800902979887,354.335,0.7580000162124634,-0.030377171168369282
354.72413800000004,,0.002225293744790425,354.8,0.7570000290870667,-0.03305595384969868
355.189655,,0.0014164594046220988,355.266,0.6809999942779541,-0.19916299752220473
355.655172,,0.0011768698412448616,355.729,0.7580000162124634,-0.03195019783164088
356.12069,,0.0013878249208360376,356.195,0.777999997138977,0.011085552125991495
356.586207,,0.002399398657802072,356.655,0.7599999904632568,-0.028641746600568316
357.05172400000004,,0.004312524453584988,357.125,0.7760000228881836,0.005747590221720357
357.517241,,0.006005969486426512,357.586,0.7910000085830688,0.03801669735488498
357.982759,,0.0060326892822809754,358.056,0.7889999747276306,0.033321651848170215
358.448276,,0.004443661037635732,358.519,0.7820000052452087,0.01781767118226271
358.913793,,0.002725041880141505,358.981,0.7580000162124634,-0.03463158272285211
359.37931000000003,,0.0018069084206986863,359.446,0.7599999904632568,-0.03033985437450989
359.844828,,0.001021749153961149,359.911,0.7870000004768372,0.02851672539617571
360.310345,,0.000672521207728053,360.377,0.7820000052452087,0.01775502463983536
360.775862,,0.003073243404758324,360.841,0.777999997138977,0.009266461349363729
361.241379,,0.00463898735409812,361.307,0.7620000243186951,-0.02527919768547482
361.706897,,0.0037435606678373127,361.774,0.7639999985694885,-0.020533511995288068
362.172414,,0.00020007678659881924,362.239,0.7580000162124634,-0.03315418045908182
362.63793100000004,,0.004005629270100534,362.7,0.7820000052452087,0.01963283016261512
363.103448,,0.005975573883098095,363.17,0.7799999713897705,0.01580759333448518
363.568966,,0.004764182057390914,363.633,0.7820000052452087,0.020712766311567037
364.034483,,0.0025043450566398333,364.096,0.7630000114440918,-0.02013639110897268
364.5,,0.0015832751339905887,364.559,0.7820000052452087,0.0217822074806
364.96551700000003,,0.0013844141068996877,365.029,0.7609999775886536,-0.023483414452621438
365.431034,,0.0004408658265586759,365.494,0.7820000052452087,0.022700056064801032
365.896552,,0.0037636550308278688,365.957,0.5339999794960022,-0.5172460628702341
366.362069,,0.005128734014896926,366.423,0.7630000114440918,-0.018065599930522674
366.827586,,0.0018090632200757372,366.889,0.7760000228881836,0.010432846973488327
367.29310300000003,,0.004602235100633756,367.355,0.7710000276565552,-0.00037897055897508574
367.758621,,0.009533953441913098,367.815,0.777999997138977,0.014856120513299763
368.224138,,0.00978050554911461,368.28,0.7620000243186951,-0.020113838587532053
368.689655,,0.006033508965260601,368.744,0.7480000257492065,-0.05081973267307409
369.155172,,0.0017217951092505675,369.21,0.777999997138977,0.014248246679559002
369.62068999999997,,2.4461422852079843e-05,369.678,0.8100000023841858,0.08359804432181521
370.086207,,0.0014211399416841444,370.14,0.7789999842643738,0.01563053296310732
370.55172400000004,,0.004266466103145045,370.604,0.7689999938011169,-0.006634422864845995
371.017241,,0.0061514264650897,371.074,0.7609999775886536,-0.024576878532156163
371.482759,,0.005837243040314991,371.537,0.7879999876022339,0.03371531981300893
371.948276,,0.003458054613252506,372.0,0.765999972820282,-0.014746865587322897
372.413793,,8.960048854116656e-05,372.465,0.7789999842643738,0.013060284680582897
372.87931000000003,,0.0036362264821031853,372.929,0.781000018119812,0.016935594620753423
373.344828,,0.006103008584304603,373.395,0.777999997138977,0.009966537241520922
373.810345,,0.006892690923299709,373.859,0.7820000052452087,0.018310958664524445
374.275862,,0.00604274357950675,374.324,0.9850000143051147,0.4602851454629485
374.741379,,0.004154638285962606,374.789,0.7599999904632568,-0.030111452533523396
375.20689699999997,,0.0021481730568306445,375.255,0.7699999809265137,-0.008432727615448284
375.672414,,0.0005868623917172095,375.722,0.7630000114440918,-0.02369927994601763
376.137931,,0.000797002762725282,376.188,0.7820000052452087,0.017770914889584762
376.603448,,0.0022461225749755664,376.655,0.7820000052452087,0.01793639696628655
377.068966,,0.0027775454335455807,377.118,0.7570000290870667,-0.036280556694683254
377.53448299999997,,0.0010535200583514895,377.581,0.7820000052452087,0.018509736236168695
378.0,,0.002198392756616177,378.044,0.7480000257492065,-0.05517617293917476
378.465517,,0.003945037694917697,378.511,0.6660000085830688,-0.23338832959199046
378.931034,,0.0020878941920783414,378.981,0.7850000262260437,0.026341525329656546
379.396552,,0.0016887124183632837,379.439,0.7860000133514404,0.029012117909349617
379.862069,,0.0033987400346959617,379.904,0.7950000166893005,0.04912025473113229
380.327586,,0.0009818077350983304,380.37,0.7570000290870667,-0.033175895517444966
380.79310300000003,,0.0037843613232385904,380.837,0.7820000052452087,0.021758734236943817
381.258621,,0.007663483108835959,381.302,0.7620000243186951,-0.02138459856858928
381.724138,,0.009310071582757068,381.767,0.7639999985694885,-0.016650191009371464
382.189655,,0.00961279550376545,382.233,0.7760000228881836,0.00980665146828544
382.655172,,0.009497187496160098,382.696,0.7680000066757202,-0.007382977302026716
383.12068999999997,,0.008796577733081849,383.166,0.7839999794960022,0.027634561076627335
383.586207,,0.007441754531748229,383.626,0.7789999842643738,0.01681583675436308
384.051724,,0.006429084641108504,384.096,0.7490000128746033,-0.048556205559226046
384.517241,,0.00659309803926154,384.559,0.7889999747276306,0.03849020311815141
384.982759,,0.006893873239550241,385.022,0.765999972820282,-0.01180106092179958
385.44827599999996,,0.005066339943330801,385.487,0.777999997138977,0.014083805312231055
385.913793,,0.00034024638407248746,385.95,0.7599999904632568,-0.025459370601302017
386.37931,,0.005179985174462105,386.415,0.7630000114440918,-0.019309145984401564
386.84482799999995,,0.008415757795719719,386.882,0.7599999904632568,-0.026277078140607833
387.310345,,0.008171483198968885,387.349,0.777999997138977,0.012474624773564005
387.775862,,0.005708337652428199,387.815,0.7919999957084656,0.04249533006058161
388.241379,,0.0031538306256477674,388.274,0.781000018119812,0.018049369915163954
388.70689699999997,,0.001962858408492654,388.741,0.7649999856948853,-0.01727572429346306
389.172414,,0.0022497801940717832,389.206,0.7760000228881836,0.006251134414913394
389.637931,,0.002709076209612746,389.675,0.777999997138977,0.010212120153341149
390.103448,,0.0015784626593123676,390.137,0.777999997138977,0.009870550436701974
390.56896600000005,,0.001399000306437204,390.599,0.7839999794960022,0.022666188915038996
391.03448299999997,,0.0041796677016441505,391.069,0.7609999775886536,-0.0276454222608621
391.5,,0.004462492912494699,391.53,0.6470000147819519,-0.2761373176870102
391.965517,,0.002368350852684693,392.0,0.7789999842643738,0.011396519686778963
392.431034,,0.00016203683220193007,392.465,0.8790000081062317,0.22929786977885602
392.896552,,0.0005847812597919757,392.929,0.7820000052452087,0.018092497158978184
393.36206899999996,,0.0004972900144951295,393.395,0.7620000243186951,-0.025275921320283317
393.827586,,0.00085180346414069,393.859,0.7549999952316284,-0.040250577130832244
394.293103,,0.0014918020946395692,394.325,0.7870000004768372,0.029804530653947517
394.75862099999995,,0.001157129174503894,394.785,0.7590000033378601,-0.03080735621269765
395.224138,,0.00023652453931271179,395.251,0.7870000004768372,0.030624593665515024
395.68965499999996,,0.0007352808704889732,395.715,0.7739999890327454,0.002757924701648721
396.155172,,0.0012646590107444117,396.18,0.7820000052452087,0.020654618303501363
396.62069,,0.004364130103322442,396.648,0.7789999842643738,0.014582888212583139
397.086207,,0.0054762430797484375,397.111,0.7599999904632568,-0.026365418565191003
397.551724,,0.003894849143287809,397.574,0.7770000100135803,0.011084875730375008
398.017241,,0.0024246532283973814,398.044,0.7839999794960022,0.026703170848188046
398.48275900000004,,0.003760095569461183,398.51,0.7599999904632568,-0.025273363153611426
398.94827599999996,,0.007015109202699202,398.973,0.7870000004768372,0.033794465849496184
399.413793,,0.008879817375696084,399.44,0.7749999761581421,0.007820949061352046
399.87931,,0.007442498512417446,399.899,0.777999997138977,0.01444825392473068
400.344828,,0.003818404149362253,400.365,0.777999997138977,0.014457774998311492
400.810345,,0.0004690737841196988,400.83,0.7609999775886536,-0.0226518998052162
401.27586199999996,,0.0009581539939429279,401.295,0.7919999957084656,0.04473404283731575
401.741379,,0.00018892765808303528,401.76,0.7829999923706055,0.024900081220007066
402.206897,,0.0020425685240793526,402.226,0.7480000257492065,-0.05164559386060629
402.672414,,0.004140207492897592,402.689,0.7699999809265137,-0.004066922756747754
403.137931,,0.004061178970085615,403.159,0.7580000162124634,-0.030609350897766473
403.60344799999996,,0.0008080346950566103,403.622,0.7789999842643738,0.014709498776698601
404.068966,,0.0042532902250598924,404.084,0.7599999904632568,-0.027137423936586594
404.534483,,0.008359971866486416,404.555,0.7620000243186951,-0.023238302389627978
405.0,,0.009872833452425945,405.018,0.7680000066757202,-0.01061583909938492
405.465517,,0.009214463309098407,405.483,0.7870000004768372,0.0303529368642916
405.931034,,0.0074713041411713305,405.946,0.8090000152587891,0.077896364059433
406.39655200000004,,0.00524700599163566,406.412,0.7789999842643738,0.012201480430875818
406.862069,,0.003111452482078679,406.877,0.7630000114440918,-0.022931098297082102
407.327586,,0.0019183931544654318,407.344,0.7860000133514404,0.02697249685924576
407.793103,,0.001855957457767167,407.804,0.7599999904632568,-0.029802465243662566
408.258621,,0.0017590102378204143,408.269,0.781000018119812,0.015898263364017104
408.72413800000004,,0.0001497149031652924,408.737,0.8320000171661377,0.1270401003812834
409.18965499999996,,0.0030260395821275843,409.202,0.7739999890327454,0.0007907536109577279
409.655172,,0.006054464356164347,409.666,0.7839999794960022,0.022766282446725503
410.12069,,0.006934986297633155,410.136,0.765999972820282,-0.01619111700962091
410.586207,,0.0051457495091648256,410.6,0.7429999709129333,-0.06598201064344045
411.05172400000004,,0.0020793339138260873,411.063,0.777999997138977,0.010637574325564197
411.51724099999996,,9.759350209852802e-05,411.526,0.7720000147819519,-0.0020298680773115745
411.982759,,0.0001442323511707709,411.996,0.777999997138977,0.011471500685874256
412.448276,,0.0014114382788152871,412.454,0.7820000052452087,0.02062710621443929
412.913793,,0.0029761491101957453,412.919,0.777999997138977,0.0123510235236627
413.37931,,0.0033772480984057053,413.384,0.7630000114440918,-0.019906970071137266
413.844828,,0.002681421725142579,413.849,0.7620000243186951,-0.021694765440764693
414.31034500000004,,0.0017817772649815129,414.314,0.777999997138977,0.013511118457534478
414.775862,,0.0014304480289666639,414.781,0.8550000190734863,0.18156253682012238
415.241379,,0.001613860136960386,415.247,0.7789999842643738,0.01622081960311244
415.706897,,0.0016074437526888733,415.712,0.777999997138977,0.014209394621798417
416.172414,,0.0005806329948346947,416.178,0.7620000243186951,-0.020557238224771724
416.63793100000004,,0.001620949955077771,416.641,0.777999997138977,0.01431416223555252
417.103448,,0.004103631111568839,417.111,0.7839999794960022,0.027320613335776685
417.568966,,0.00541972093312863,417.571,0.7590000033378601,-0.027287136242251354
418.034483,,0.0046654718670407335,418.04,0.777999997138977,0.013893682425580903
418.5,,0.0022587319290916616,418.499,0.7680000066757202,-0.008171156776187712
418.96551700000003,,0.00039002541385967126,418.969,0.7850000262260437,0.02853208383073989
419.43103399999995,,0.0021788415976811727,419.435,0.7480000257492065,-0.052456629267972364
419.896552,,0.00334469359190407,419.899,0.7590000033378601,-0.028903642176751815
420.362069,,0.004884205485363399,420.365,0.7770000100135803,0.009879972781066306
420.827586,,0.0067721315900375455,420.83,0.7839999794960022,0.02469342079380802
421.293103,,0.007285695252905141,421.295,0.7699999809265137,-0.006235140769634407
421.758621,,0.0048484516142589295,421.755,0.765999972820282,-0.015354321974909083
422.22413800000004,,0.00043833865955397966,422.221,0.7789999842643738,0.01259937726885026
422.689655,,0.0028240114183164123,422.689,0.7839999794960022,0.023172041248549113
423.15517200000005,,0.002976920753520918,423.151,0.7609999775886536,-0.027198966448969672
423.62069,,0.0013855037990576705,423.619,0.7570000290870667,-0.03610946703971684
424.086207,,0.0009606471070257208,424.081,0.7409999966621399,-0.0710924988275245
424.55172400000004,,0.002803836591407523,424.549,0.7559999823570251,-0.03846232614505822
425.017241,,0.005441995256331058,425.011,0.781000018119812,0.01603182221205001
425.482759,,0.007003244689622592,425.476,0.7950000166893005,0.04663872766978061
425.948276,,0.007130962471442006,425.94,0.781000018119812,0.016318761113871247
426.413793,,0.006682532586162679,426.406,0.7609999775886536,-0.027004406608260877
426.87931000000003,,0.006429454271267735,426.87,0.7649999856948853,-0.017980159394384927
427.344828,,0.00640562605082166,427.336,0.7919999957084656,0.041202980011269506
427.810345,,0.0059326467248835505,427.801,0.7839999794960022,0.02417255813817905
428.275862,,0.00404348619215356,428.266,0.7870000004768372,0.031133873336888003
428.741379,,0.0005655039953890549,428.733,0.777999997138977,0.011963794902167143
429.20689699999997,,0.0028879102088805904,429.199,0.7570000290870667,-0.033352508774243464
429.672414,,0.0038114760427028164,429.661,0.7620000243186951,-0.0220415970095928
430.137931,,0.0014645597975064975,430.13,0.7789999842643738,0.015381929142159636
430.603448,,0.0017367273870351888,430.593,0.7609999775886536,-0.0234905051141109
431.068966,,0.002318853344602547,431.055,0.7739999890327454,0.0051206130551906676
431.534483,,0.0006424921683303386,431.523,0.777999997138977,0.014060079483806118
432.0,,0.004510966189325986,431.985,0.781000018119812,0.02075023108992609
432.46551700000003,,0.0057934136302358556,432.45,0.7699999809265137,-0.0031366024016277897
432.931034,,0.0034496523363304827,432.915,0.7639999985694885,-0.016208912939072055
433.396552,,0.0004553284389850017,433.38,0.7570000290870667,-0.03153929034578111
433.862069,,0.0027726166465814003,433.845,0.7080000042915344,-0.1384512305601649
434.327586,,0.0018735574613434067,434.311,0.7910000085830688,0.04214516383018869
434.79310300000003,,0.0010640440691566924,434.778,0.7789999842643738,0.015705960354886195
435.258621,,0.0030891289264755252,435.243,0.7649999856948853,-0.015143804611858488
435.724138,,0.0022361133171625107,435.715,0.7599999904632568,-0.026428458379120678
436.189655,,0.000428419764751343,436.173,0.7620000243186951,-0.02249283647770241
436.655172,,0.001618031879937704,436.64,0.7620000243186951,-0.02293111514241912
437.12068999999997,,0.0010502665872217226,437.103,0.7879999876022339,0.03327377874825153
437.586207,,0.006492959086714939,437.566,0.7649999856948853,-0.017261717768409207
438.051724,,0.010757353237995202,438.029,0.7599999904632568,-0.028554649391937137
438.517241,,0.010542059694226997,438.495,0.7599999904632568,-0.02891498979728253
438.982759,,0.006296106163973926,438.965,0.7730000019073486,-0.0009015211607954223
439.448276,,0.0016449567495019773,439.424,0.8759999871253967,0.22325424680571251
439.913793,,0.0002771210655489851,439.889,0.7760000228881836,0.005218505290457931
440.37931000000003,,0.000282688476266324,440.354,0.7879999876022339,0.031269404466459795
440.844828,,0.00038931827319225564,440.822,0.7839999794960022,0.0225414335763066
441.310345,,0.0023003804527870824,441.288,0.7739999890327454,0.0008212034908221455
441.775862,,0.0070298605878722316,441.753,0.6990000009536743,-0.16243583223374758
442.241379,,0.010672153212824022,442.218,0.7879999876022339,0.031674837431258235
442.70689699999997,,0.010994074859513437,442.682,0.7940000295639038,0.04502210110605138
443.172414,,0.008970602364862247,443.144,0.7609999775886536,-0.026541562832844902
443.637931,,0.007452468642207288,443.614,0.7680000066757202,-0.010914358323380072
444.103448,,0.007720979392173344,444.077,0.7820000052452087,0.019995626148277542
444.568966,,0.00810336239639207,444.541,0.7680000066757202,-0.010077228974795047
445.03448299999997,,0.006236033879278173,445.011,0.7599999904632568,-0.02707328744941123
445.5,,0.0020756094979912988,445.469,0.7639999985694885,-0.017935173051790914
445.965517,,0.001963247175629829,445.94,0.7599999904632568,-0.02624981383259093
446.431034,,0.0037447737057755893,446.406,0.7829999923706055,0.024222941046332443
446.896552,,0.0035891659004331725,446.871,0.7820000052452087,0.022360957761225507
447.36206899999996,,0.0032672181501345707,447.329,0.777999997138977,0.013905856854133265
447.827586,,0.0033092237710722473,447.796,0.7820000052452087,0.022814347155891024
448.29310300000003,,0.002340210075286858,448.262,0.7580000162124634,-0.029351648366099884
448.758621,,0.0006102757923455355,448.729,0.781000018119812,0.020802188083493545
449.224138,,0.003999541123265447,449.195,0.7609999775886536,-0.022804070539118905
449.689655,,0.004881897364939698,449.656,0.746999979019165,-0.05341592350550868
450.155172,,0.0020178214551704573,450.125,0.7889999747276306,0.03790250012917247
450.62068999999997,,0.002793207183341178,450.589,0.7620000243186951,-0.021172966545058645
451.086207,,0.00646163735413766,451.051,0.7839999794960022,0.026446390970429865
451.551724,,0.006992346469873849,451.515,0.7940000295639038,0.04787403125943839
452.017241,,0.004291277229239573,451.984,0.7680000066757202,-0.009166003928105034
452.482759,,8.361457531946977e-06,452.45,0.7039999961853027,-0.1490199651768346
452.94827599999996,,0.002824108829091821,452.914,0.7649999856948853,-0.016556096534058873
453.413793,,0.0014913722897489207,453.38,0.7739999890327454,0.002620172483935054
453.87931,,0.003540340058437463,453.845,0.777999997138977,0.010921065654168127
454.344828,,0.00810143722021,454.31,0.7620000243186951,-0.024319506590384586
454.810345,,0.008152275464796284,454.77,0.7789999842643738,0.012379042734112989
455.27586199999996,,0.004134074511851996,455.236,0.7620000243186951,-0.024941302428263545
455.741379,,0.000539141718559954,455.704,0.7850000262260437,0.024948705573389417
456.206897,,0.0010999939736022184,456.166,0.7829999923706055,0.02044461777945059
456.672414,,0.005065868046463943,456.629,0.7850000262260437,0.02473274596244469
457.137931,,0.008349992872071768,457.099,0.777999997138977,0.009492578730820121
457.603448,,0.00792815606408667,457.56,0.7450000047683716,-0.06231386714743529
458.06896600000005,,0.004755617494456715,458.03,0.7599999904632568,-0.029470650942825954
458.53448299999997,,0.0021868954489750888,458.495,0.8169999718666077,0.09494607390337295
459.0,,0.0018509288473890003,458.958,0.765999972820282,-0.015867175082307318
459.465517,,0.002059990629054968,459.424,0.7730000019073486,-0.0002650597864602708
459.931034,,0.0006669789812085759,459.889,0.7820000052452087,0.019735895587147487
460.39655200000004,,0.0017517799781301972,460.354,0.7839999794960022,0.024515442680293785
460.86206899999996,,0.0028357967479642797,460.818,0.7799999713897705,0.016238615644382094
461.327586,,0.0018664836090479925,461.284,0.7609999775886536,-0.02471732626520105
461.793103,,0.0007168391342167587,461.749,0.7599999904632568,-0.02647223912225217
462.258621,,0.0013373043597328818,462.215,0.7820000052452087,0.02185315404000236
462.724138,,0.003443638596296335,462.677,0.7699999809265137,-0.003936699713057283
463.18965499999996,,0.005110733817767019,463.14,0.7889999747276306,0.03775914130155588
463.655172,,0.005016962313224754,463.604,0.753000020980835,-0.04043326970815823
464.12069,,0.003568920248160518,464.074,0.6539999842643738,-0.25595421537641416
464.58620699999994,,0.0020052550880857102,464.537,0.7820000052452087,0.02299743144035483
465.051724,,0.0009549441283336962,464.999,0.7730000019073486,0.0033932263066382903
465.517241,,0.00010981388953364694,465.465,0.7639999985694885,-0.016289955084359407
465.98275900000004,,0.0010121338544468528,465.929,0.7590000033378601,-0.027335522366154493
466.448276,,0.0022737195896602004,466.395,0.777999997138977,0.013834567636448329
466.913793,,0.0028318494098956977,466.86,0.7749999761581421,0.007010459194182209
467.37931,,0.0019988160830400462,467.325,0.746999979019165,-0.054334455072524254
467.844828,,0.00041243774467023616,467.792,0.7879999876022339,0.034603795008267685
468.31034500000004,,0.00020866888119675162,468.258,0.7620000243186951,-0.022457768995648032
468.77586199999996,,0.0009134088792317637,468.723,0.7620000243186951,-0.02289138724742858
469.241379,,0.0025283560589961307,469.189,0.777999997138977,0.011530552323438692
469.706897,,0.0031160878318711623,469.652,0.7609999775886536,-0.025931049998634468
470.172414,,0.0027964928870962565,470.114,0.7990000247955322,0.0564593981841602
470.63793100000004,,0.002264545033490848,470.582,0.7820000052452087,0.019064051685322242
471.10344799999996,,0.0009289603228387695,471.044,0.7889999747276306,0.03400825144698111
471.568966,,0.0019099167281277074,471.51,0.7820000052452087,0.01851327272798758
472.034483,,0.004647744491177318,471.981,0.7630000114440918,-0.02305634163955148
472.5,,0.004554296326082054,472.439,0.7680000066757202,-0.012264307050810438
472.965517,,0.0015892228722906598,472.904,0.7950000166893005,0.046535677526274036
473.43103399999995,,0.0011253292525848077,473.37,0.7570000290870667,-0.036197842104920386
473.89655200000004,,0.0012727870600132767,473.837,0.7760000228881836,0.005327815570025726
474.362069,,0.00018377657616222912,474.303,0.7609999775886536,-0.02714916009395237
474.827586,,0.0013636776980484478,474.766,0.7860000133514404,0.027585070044000685
475.293103,,0.0023526013520846043,475.232,0.7599999904632568,-0.02873555429062171
475.758621,,0.004294726724703706,475.7,0.7839999794960022,0.023921958689572347
476.22413800000004,,0.006991040655470692,476.163,0.43799999356269836,-0.7294932439348438
476.689655,,0.008956636894433902,476.626,0.7620000243186951,-0.023205262158768933
477.155172,,0.009134338389268783,477.095,0.7739999890327454,0.003345245271549852
477.62069,,0.007406343236293208,477.559,0.777999997138977,0.012461803904262037
478.086207,,0.0040911529543774285,478.022,0.7609999775886536,-0.024190640818053877
478.55172400000004,,0.00013954635839816176,478.487,0.5419999957084656,-0.5009641028312672
479.01724099999996,,0.002536921288161088,478.95,0.777999997138977,0.0134989356416477
479.482759,,0.0022586403187138454,479.416,0.7580000162124634,-0.029825788182989015
479.948276,,0.00048026943265902153,479.881,0.7850000262260437,0.02918923292671258
480.413793,,0.0030003636454689047,480.347,0.7580000162124634,-0.029505056084940515
480.87931000000003,,0.0030195672067429655,480.815,0.7599999904632568,-0.025084937432812687
481.344828,,0.0010202683304730861,481.28,0.7590000033378601,-0.027269216896646662
481.810345,,0.0004859959581513425,481.745,0.7870000004768372,0.0336596670738597
482.275862,,7.84287738534207e-05,482.211,0.7889999747276306,0.03787946924797263
482.74137900000005,,0.0017742948210554325,482.674,0.7620000243186951,-0.021141146052811612
483.206897,,0.0026107800424802056,483.136,0.7870000004768372,0.03307363539806956
483.672414,,0.0018360505584747717,483.6,0.7630000114440918,-0.01951189485549908
484.13793100000004,,0.00031007453044601136,484.069,0.7739999890327454,0.0041174369346339236
484.603448,,0.0007881964331787023,484.533,0.7739999890327454,0.00375396454458171
485.068966,,0.0010024932823958093,484.996,0.75,-0.04891410250331626
485.534483,,0.0007504856433935839,485.461,0.7630000114440918,-0.020978429166514947
486.0,,0.0008960542539968716,485.925,0.843999981880188,0.155112163364176
486.46551700000003,,0.001772035696524452,486.391,0.7879999876022339,0.03274830821584921
486.931034,,0.002378595501695453,486.855,0.7789999842643738,0.012811237530326357
487.396552,,0.0011880924442537143,487.321,0.765999972820282,-0.015802159062586342
487.862069,,0.0018341468091333272,487.786,0.7609999775886536,-0.026940337606920488
488.327586,,0.004561440929797024,488.252,0.7990000247955322,0.055656834800267695
488.79310300000003,,0.004657140282517592,488.719,0.781000018119812,0.016309341347670477
489.258621,,0.002025419515571089,489.185,0.7820000052452087,0.01841970457233213
489.724138,,0.0011294769637982321,489.648,0.7739999890327454,0.0009870605378356626
490.189655,,0.0026364832384889905,490.111,0.7789999842643738,0.011941364175961373
490.655172,,0.0023813690839784305,490.578,0.777999997138977,0.009886233444607586
491.12069,,0.001992018862643399,491.04,0.7620000243186951,-0.024790338810690767
491.586207,,0.0028594265424545483,491.506,0.7630000114440918,-0.022377903373277604
492.05172400000004,,0.004762363453309126,491.971,0.7820000052452087,0.019295285259404202
492.517241,,0.006538046087091082,492.437,0.7789999842643738,0.013075505382153022
492.982759,,0.007769270471812192,492.904,0.7739999890327454,0.0025265348012197364
493.448276,,0.009045325398513743,493.369,0.7609999775886536,-0.02543433784868137
493.913793,,0.010445880548919099,493.834,0.7599999904632568,-0.027245337681224203
494.37931000000003,,0.010851817185297964,494.3,0.7799999713897705,0.016690538170421713
494.844828,,0.009418224742934448,494.759,0.7940000295639038,0.04754037724395818
495.310345,,0.006833415416890113,495.224,0.7609999775886536,-0.02403072660214522
495.775862,,0.00439564484332691,495.692,0.7649999856948853,-0.015026192276682015
496.241379,,0.0026691245462062124,496.155,0.7760000228881836,0.009185799377658536
496.70689699999997,,0.001688128514839236,496.622,0.781000018119812,0.02027616859673443
497.172414,,0.0015111302309610704,497.084,0.781000018119812,0.020418472873131605
497.637931,,0.0016779363529566558,497.555,0.7570000290870667,-0.031785938399284556
498.103448,,0.0008573505212448873,498.018,0.7699999809265137,-0.003442499186310535
498.568966,,0.0019055074222364883,498.484,0.777999997138977,0.013945586541951405
499.03448299999997,,0.005798402167303338,498.946,0.7599999904632568,-0.025371858255908354
499.5,,0.008896097730859465,499.412,0.8500000238418579,0.17054867031531992
499.96551700000003,,0.01019006780474908,499.877,0.7789999842643738,0.015656789606486587
500.431034,,0.010273481966167135,500.343,0.7239999771118164,-0.10442219006954834
500.89655200000004,,0.009883283136282988,500.807,0.7580000162124634,-0.030642135693490027
501.362069,,0.008585710211759797,501.273,0.7960000038146973,0.05182119261585701
501.827586,,0.0055984488176052515,501.738,0.7820000052452087,0.020974980929762303
502.293103,,0.0014955102580479175,502.203,0.8080000281333923,0.07726578930378668
502.758621,,0.0018961216780340898,502.666,0.9330000281333923,0.349247199933522
503.224138,,0.0035291994938198945,503.129,0.7839999794960022,0.024295399499292287
503.68965499999996,,0.004268676401922021,503.597,0.777999997138977,0.010913348155155909
504.15517200000005,,0.005407338948475704,504.059,0.7580000162124634,-0.032941864246230315
504.62068999999997,,0.006690443510398685,504.53,0.7599999904632568,-0.02883205382528305
505.08620699999994,,0.00677634235552473,504.992,0.800000011920929,0.058108586173542795
505.55172400000004,,0.005305889637514175,505.458,0.777999997138977,0.010021668734171853
506.017241,,0.003307371501054505,505.923,0.777999997138977,0.009917976658925425
506.48275899999993,,0.001540825251599632,506.388,0.7630000114440918,-0.022810488287356982
506.948276,,0.00033813712112685786,506.855,0.765999972820282,-0.0162677591285183
507.413793,,0.00269211171585254,507.314,0.7599999904632568,-0.029277733711809525
507.87931,,0.005075496378823208,507.779,0.7630000114440918,-0.02262676753092428
508.344828,,0.006901938984185488,508.244,0.777999997138977,0.010218040000082725
508.810345,,0.007959628169275087,508.711,0.7609999775886536,-0.02660811101924502
509.27586199999996,,0.007758398395895826,509.177,0.7749999761581421,0.004143795503117517
509.74137900000005,,0.005435399854334823,509.644,0.777999997138977,0.010963837457095497
510.20689699999997,,0.0013556144991148523,510.107,0.7609999775886536,-0.025763742407930394
510.67241399999995,,0.0019283318558097752,510.57,0.7770000100135803,0.00942085554340083
511.13793100000004,,0.0018028139199550838,511.04,0.7639999985694885,-0.018567774768019442
511.603448,,0.001289828582380549,511.506,0.7789999842643738,0.014444365407787596
512.0689659999999,,0.003987235448906779,511.964,0.781000018119812,0.01912396740320456
512.534483,,0.0035061071344358106,512.43,0.7630000114440918,-0.01978858154990612
513.0,,0.00035529165036268844,512.896,0.777999997138977,0.013166454733119889
513.465517,,0.002495749591553682,513.362,0.7599999904632568,-0.02580948938435313
513.931034,,0.0026942170360017173,513.825,0.7789999842643738,0.01578231204195803
514.396552,,0.000714104299251474,514.291,0.7609999775886536,-0.023283662158447214
514.862069,,0.0008731326878428845,514.755,0.7630000114440918,-0.018828803665585547
515.327586,,0.00036639519473557737,515.221,0.7739999890327454,0.005178710293793183
515.793103,,0.0011772251716566408,515.689,0.7990000247955322,0.05963204046019033
516.258621,,0.0015635986152853444,516.151,0.781000018119812,0.02034901557622033
516.724138,,0.0004957717440772665,516.614,0.7850000262260437,0.02894353172843695
517.189655,,0.0002615748195050087,517.084,0.7440000176429749,-0.06055181214117166
517.655172,,0.0003061641406429313,517.545,0.6290000081062317,-0.3113168943516179
518.1206900000001,,0.001137932022876172,518.015,0.7689999938011169,-0.0065725521015966735
518.5862070000001,,0.0010980645747335298,518.48,0.7699999809265137,-0.004695973296553812
519.051724,,0.0006104234057571823,518.943,0.7820000052452087,0.021121770357920282
519.517241,,0.0002951476739984603,519.409,0.7749999761581421,0.005530605170864192
519.982759,,0.0004756410315867252,519.874,0.7620000243186951,-0.02313736895471431
520.448276,,0.00208802505838177,520.34,0.7820000052452087,0.02009440115292584
520.9137929999999,,0.0027638368138202356,520.8,0.7590000033378601,-0.030341502940505888
521.37931,,0.0002270694548226844,521.265,0.6959999799728394,-0.16790161256934608
521.844828,,0.004615132485266066,521.73,0.7739999890327454,0.0017570829194343796
522.310345,,0.007614874757835437,522.196,0.781000018119812,0.016770762548005875
522.7758620000001,,0.006030535777309599,522.659,0.7990000247955322,0.055797533414068026
523.241379,,0.0018923005635046208,523.129,0.7609999775886536,-0.027126562707828126
523.7068969999999,,0.0005880188412968511,523.592,0.777999997138977,0.009831992505136774
524.172414,,2.055024902072731e-05,524.055,0.7599999904632568,-0.029403520353198535
524.637931,,0.0012628337359137812,524.526,0.7549999952316284,-0.040257651788067825
525.103448,,0.0008331508017911573,524.988,0.777999997138977,0.009948196750959154
525.568966,,0.0009207394887547648,525.453,0.7749999761581421,0.0035649796757561392
526.034483,,0.0018449563953835551,525.918,0.7820000052452087,0.019020416341312046
526.5,,0.0009030350480354716,526.384,0.7609999775886536,-0.026480361058025512
526.9655170000001,,0.000865013270830022,526.848,0.7580000162124634,-0.03272705080965428
527.4310340000001,,0.0019021195797957276,527.314,0.781000018119812,0.017701018069887383
527.8965519999999,,0.001665209998090753,527.774,0.7599999904632568,-0.02771026372596523
528.362069,,0.00046253931089482576,528.24,0.7699999809265137,-0.005571988369198999
528.827586,,0.0012203966862316664,528.712,1.0369999408721924,0.5764853567028769
529.293103,,0.002616541518952525,529.17,0.7599999904632568,-0.026641461482680102
529.7586210000001,,0.0026978516886003194,529.64,0.781000018119812,0.0194542123522118
530.224138,,0.0012545819982445628,530.103,0.7590000033378601,-0.02816238721194544
530.689655,,0.0003756581722277239,530.567,0.42100000381469727,-0.7642787679510206
531.155172,,0.0005229013895872015,531.029,0.7689999938011169,-0.005903048205437869
531.62069,,0.0009600167981818891,531.495,0.777999997138977,0.013850356283389459
532.086207,,0.002704682904659982,531.965,0.777999997138977,0.013938616710415682
532.5517239999999,,0.0035750043290485554,532.424,0.7870000004768372,0.03357556375312073
533.017241,,0.003785108294775893,532.889,0.7490000128746033,-0.04924403643788839
533.482759,,0.004218689666265617,533.355,0.7960000038146973,0.053062276618261524
533.9482760000001,,0.005058831386281188,533.822,0.7570000290870667,-0.032051182743576684
534.413793,,0.005351800761705047,534.287,0.7710000276565552,-0.0017481420347206082
534.87931,,0.003985963173167312,534.754,0.7490000128746033,-0.04992302581032829
535.344828,,0.001057753264612956,535.219,0.7739999890327454,0.004259237455685407
535.810345,,0.0019574457037876245,535.682,0.7789999842643738,0.014838209192948315
536.275862,,0.0035824058640950484,536.144,0.7570000290870667,-0.03342713202134262
536.7413789999999,,0.003683164402875531,536.614,0.7820000052452087,0.020692499590152846
537.206897,,0.003079450930248152,537.077,0.7559999823570251,-0.03630029209926277
537.672414,,0.0020946715034958928,537.545,0.7630000114440918,-0.021389205033355365
538.137931,,0.00040153863896647023,538.007,0.7820000052452087,0.019683817981259122
538.6034480000001,,0.0015838242278674124,538.473,0.753000020980835,-0.04379056691254295
539.0689659999999,,0.002397493188742008,538.939,0.777999997138977,0.01041781237089066
539.5344829999999,,0.0013479138865918705,539.405,0.7599999904632568,-0.029012557719208958
540.0,,0.0003425083932048487,539.87,0.7570000290870667,-0.035714207444020846
540.465517,,0.0010808302997231155,540.335,0.7789999842643738,0.012103631517866937
540.931034,,0.0007849151440638838,540.8,0.777999997138977,0.009869899391620997
541.396552,,0.00037581712091437955,541.259,0.7829999923706055,0.020767106069356642
541.862069,,0.00012175915681263559,541.726,0.777999997138977,0.009936645930200555
542.327586,,0.0005569401156688575,542.191,0.7739999890327454,0.0013413739398225103
542.7931030000001,,0.001992947372265812,542.659,0.7739999890327454,0.001513330867516877
543.258621,,0.003702089719211567,543.122,0.7519999742507935,-0.04619811849398667
543.7241379999999,,0.0047407723066696505,543.585,0.7739999890327454,0.0019910194252950653
544.189655,,0.00425109402421544,544.055,0.7739999890327454,0.0022825641309594156
544.655172,,0.0019619214247854223,544.518,0.7559999823570251,-0.0366173412849037
545.12069,,0.0014199575076104284,544.981,0.7570000290870667,-0.03410839938122527
545.5862070000001,,0.0045053880359907225,545.446,0.7789999842643738,0.014156932021420786
546.051724,,0.006222050462673776,545.911,0.7770000100135803,0.01013095824933111
546.517241,,0.006354508270012335,546.377,0.8479999899864197,0.1651345717678263
546.982759,,0.005027578509807616,546.841,0.7789999842643738,0.015107763020828311
547.448276,,0.0023849028519210445,547.307,0.7940000295639038,0.048058388787603365
547.9137929999999,,0.0005566407775031755,547.774,0.8019999861717224,0.06572060613162364
548.3793099999999,,0.001553398456939929,548.24,0.8029999732971191,0.06808845806378683
548.844828,,0.0008460367652532515,548.7,0.7630000114440918,-0.018918228755694957
549.310345,,0.005016874497945245,549.171,0.7820000052452087,0.022559985710653863
549.775862,,0.007481393751037089,549.633,0.9150000214576721,0.3123488594494118
550.241379,,0.006701598430318856,550.096,0.765999972820282,-0.012295351459468647
550.706897,,0.004460993332068936,550.559,0.6959999799728394,-0.16488395647753448
551.172414,,0.0031997631589199757,551.029,0.7820000052452087,0.022337294282164105
551.637931,,0.003204155635469974,551.495,0.7590000033378601,-0.0279682766012199
552.103448,,0.0031369551219892953,551.957,0.7789999842643738,0.01536082213158763
552.568966,,0.0024832588731681393,552.423,0.7760000228881836,0.008541270977820637
553.034483,,0.0023171645917173253,552.888,0.7590000033378601,-0.028811072229142146
553.5,,0.0035212506221465488,553.354,0.7739999890327454,0.003530685599948489
553.965517,,0.004922014730843243,553.819,0.777999997138977,0.01189501035172668
554.4310340000001,,0.0039191640341665595,554.285,0.7540000081062317,-0.040744755135463454
554.896552,,0.0005905341234843778,554.744,0.7839999794960022,0.024270817173363705
555.3620689999999,,0.006140909738498687,555.21,0.777999997138977,0.010874389997982691
555.827586,,0.008493000422371631,555.678,0.7940000295639038,0.045437990782086886
556.293103,,0.006020699924575744,556.14,0.7620000243186951,-0.024535123027616908
556.758621,,0.0015257517363065289,556.607,0.7599999904632568,-0.029103432519993082
557.224138,,0.0010416705584986,557.07,0.7829999923706055,0.02084618604082657
557.689655,,0.0008392262392258082,557.541,0.8019999861717224,0.062138953451413924
558.155172,,4.556732846373815e-05,558.003,0.7820000052452087,0.018526224123846004
558.6206900000001,,0.00031344204914618526,558.469,0.7590000033378601,-0.03156018893929962
559.0862070000001,,0.001054755935469884,558.933,0.7860000133514404,0.027346955039787246
559.5517239999999,,0.0012553731059491233,559.399,0.847000002861023,0.1603885791883962
560.017241,,0.0010897190710465318,559.863,0.765999972820282,-0.015880506970098657
560.482759,,0.0008220241907588746,560.328,0.781000018119812,0.017050807084863822
560.948276,,0.00032477478843709415,560.789,0.7570000290870667,-0.034944314091383134
561.413793,,0.0026403290503393337,561.254,0.777999997138977,0.011131644186160567
561.87931,,0.004284645630952941,561.719,0.7839999794960022,0.024550570161653344
562.344828,,0.0031268240383260744,562.184,0.7609999775886536,-0.025198852393426518
562.8103450000001,,7.236379300927306e-06,562.652,0.7699999809265137,-0.005230423396388434
563.275862,,0.0017095927944391122,563.114,0.7620000243186951,-0.02230895130684714
563.7413789999999,,9.036562352791812e-05,563.585,0.7680000066757202,-0.008907065042730995
564.206897,,0.003889529342522276,564.048,0.777999997138977,0.013179267229796138
564.672414,,0.006631344738122078,564.518,0.777999997138977,0.01344046522864682
565.137931,,0.006835018210738504,564.981,0.9660000205039978,0.42324496764386665
565.603448,,0.005237526635254828,565.439,0.7720000147819519,0.0007593110879992879
566.068966,,0.003299883147100535,565.904,0.7599999904632568,-0.025267789739827438
566.534483,,0.0019327131662920788,566.37,0.777999997138977,0.01400140463144248
567.0,,0.0013816967212869672,566.837,0.7870000004768372,0.03359808982784738
567.465517,,0.0016386879643159632,567.303,0.7749999761581421,0.007378812635308757
567.931034,,0.002621673163300265,567.767,0.777999997138977,0.013776778323120737
568.396552,,0.0038778757960763683,568.233,0.7599999904632568,-0.02563617185760554
568.862069,,0.004329731641061929,568.696,0.777999997138977,0.013328444322253306
569.327586,,0.003030177522403676,569.159,0.7580000162124634,-0.03054208886575277
569.793103,,0.0006000481929237927,569.629,0.7609999775886536,-0.02434181955054423
570.2586210000001,,0.0007820894429201566,570.092,0.7879999876022339,0.03411847771339014
570.724138,,0.0003440703177873504,570.555,0.7580000162124634,-0.03162031683018055
571.189655,,0.00286295959052787,571.025,0.7820000052452087,0.020283161219833163
571.655172,,0.004309135367903898,571.484,0.6079999804496765,-0.3591817350527076
572.12069,,0.0035871245242690714,571.954,0.7889999747276306,0.03478727657441523
572.586207,,0.0016326740887777154,572.42,0.765999972820282,-0.01566000731671714
573.051724,,0.0002152122534111877,572.884,0.7310000061988831,-0.09221005310571306
573.517241,,0.0013317235783868319,573.35,0.777999997138977,0.009938890152094986
573.982759,,0.0014783346482928144,573.815,0.777999997138977,0.009750569168040069
574.4482760000001,,0.0008696663350736543,574.28,0.7599999904632568,-0.02958720150050599
574.913793,,0.0009030767108021034,574.744,0.7789999842643738,0.011755405864768044
575.37931,,0.003223329844047318,575.21,0.7599999904632568,-0.029618032130967288
575.844828,,0.007191799639897803,575.67,0.781000018119812,0.016227121717344174
576.310345,,0.009617251588834487,576.14,0.7870000004768372,0.029463190736288104
576.775862,,0.00810260113969194,576.6,0.7609999775886536,-0.026951287832165487
577.241379,,0.0037712182933306864,577.07,0.7760000228881836,0.006017861418493158
577.706897,,0.0002043048308037145,577.533,0.781000018119812,0.01725071457996245
578.172414,,0.001972282827376193,577.996,0.7739999890327454,0.0023799722824410546
578.6379310000001,,0.0020571379967909303,578.461,0.7609999775886536,-0.02553455384471951
579.1034480000001,,0.0017851766584610605,578.925,0.7689999938011169,-0.0076825271173324074
579.5689659999999,,0.0017803626334999994,579.392,0.7789999842643738,0.014528537515566485
580.034483,,0.0019405251343146955,579.859,0.777999997138977,0.012763349016409757
580.5,,0.0021027831543560544,580.325,0.7509999871253967,-0.045671502162760884
580.965517,,0.002383862407367315,580.789,0.7609999775886536,-0.023534435772774486
581.431034,,0.002936396056480602,581.255,0.7649999856948853,-0.014518782581996613
581.896552,,0.0034487151791499303,581.715,0.7739999890327454,0.0053311695005005405
582.362069,,0.003154178069012278,582.181,0.7620000243186951,-0.0206372743621923
582.827586,,0.001689063957089697,582.644,0.7580000162124634,-0.02924982643132701
583.2931030000001,,0.00021936109880240943,583.114,0.7850000262260437,0.029598973825692473
583.758621,,0.0014079409280823823,583.577,0.7609999775886536,-0.02274111957716148
584.2241379999999,,0.0016537348741978825,584.04,0.7739999890327454,0.005452248186194251
584.689655,,0.0020336085541503035,584.506,0.7680000066757202,-0.007821931115684872
585.155172,,0.0037163272737005377,584.971,0.7639999985694885,-0.016806270386244142
585.6206900000001,,0.0063689973711265,585.437,0.7799999713897705,0.017723018114805627
586.0862070000001,,0.00785347660702272,585.905,0.7749999761581421,0.006451834166567238
586.551724,,0.005972033338691521,586.37,0.7590000033378601,-0.02882195804437051
587.017241,,0.0010161726906042308,586.829,0.7860000133514404,0.029561264180358628
587.482759,,0.0036404337768832723,587.295,0.7440000176429749,-0.06239355407438128
587.948276,,0.004197986236685085,587.763,0.7770000100135803,0.009052776886379472
588.4137929999999,,5.26785542597071e-05,588.229,0.7609999775886536,-0.02623793172267206
588.87931,,0.006020820793481991,588.689,0.7829999923706055,0.021291163082117398
589.344828,,0.009488186644634822,589.158,0.7990000247955322,0.05579313829313929
589.810345,,0.008331056346611116,589.626,0.7889999747276306,0.03370714965210692
590.2758620000001,,0.003689848515118279,590.088,0.781000018119812,0.016045302179217548
590.741379,,0.0011682007194362832,590.552,0.781000018119812,0.01588640004346237
591.2068969999999,,0.0032236286250401235,591.014,0.777999997138977,0.00927053893036518
591.672414,,0.0019312009060496258,591.479,0.7620000243186951,-0.025586106185547505
592.137931,,0.00037387731481732157,591.95,0.7599999904632568,-0.029860552569152623
592.603448,,0.0007191232961837331,592.409,0.7549999952316284,-0.04059223370670823
593.068966,,0.0013635724950322725,592.874,0.7620000243186951,-0.02510612920108132
593.534483,,0.0031555929885544154,593.34,0.7789999842643738,0.012233838832444518
594.0,,0.0017136134981579271,593.804,0.7829999923706055,0.02131078872119248
594.4655170000001,,0.002564660102365794,594.269,0.7760000228881836,0.006471333658900033
594.9310340000001,,0.006054685225379866,594.734,0.7609999775886536,-0.025761833760147446
595.3965519999999,,0.00594114491064632,595.199,0.765999972820282,-0.014400650433103833
595.862069,,0.0034189667092951264,595.67,0.7599999904632568,-0.02699799635371812
596.327586,,0.002020821910168588,596.132,0.7870000004768372,0.03229221854395681
596.793103,,0.003248839705289418,596.6,0.7760000228881836,0.008772010445423587
597.2586210000001,,0.005208884864362242,597.062,0.7620000243186951,-0.021320181639903506
597.724138,,0.005687672713529868,597.526,0.7990000247955322,0.059649694009355034
598.189655,,0.004971541942209801,597.996,0.7609999775886536,-0.02283942579887649
598.655172,,0.004534278809183971,598.454,0.7590000033378601,-0.026967753350563686
599.12069,,0.0041384396709422365,598.919,0.8510000109672546,0.17361948050225806
599.586207,,0.0020394246498654546,599.384,0.781000018119812,0.021184927528552354
600.0517239999999,,0.0021560086218277478,599.852,0.7820000052452087,0.023350074520804745
600.517241,,0.006401526262809305,600.318,0.7630000114440918,-0.018143996637248277
600.982759,,0.008361160519074096,600.785,0.8889999985694885,0.25618381008854707
601.448276,,0.007829254657310613,601.25,0.7620000243186951,-0.020761862397433634
601.913793,,0.006744115819590573,601.715,0.7630000114440918,-0.018910963684357983
602.37931,,0.007178353706716978,602.181,0.7689999938011169,-0.006230034405197005
602.844828,,0.009361386348414956,602.644,0.765999972820282,-0.013208416111647678
603.310345,,0.011559678083478651,603.107,0.781000018119812,0.018991155948036742
603.775862,,0.011993646554612577,603.574,0.7789999842643738,0.014130740865119108
604.2413789999999,,0.01064826324522175,604.036,0.753000020980835,-0.0430246710136821
604.706897,,0.008780045948782757,604.502,0.7770000100135803,0.008760031467718844
605.172414,,0.007133515019050707,604.966,0.7620000243186951,-0.024398823063594283
605.637931,,0.005625341323859921,605.432,0.7990000247955322,0.05577159189800548
606.1034480000001,,0.004397024928415539,605.897,0.781000018119812,0.016170751898305788
606.5689659999999,,0.0037310887954391725,606.363,0.8330000042915344,0.12914337474281168
607.0344829999999,,0.0028889573743226373,606.829,0.781000018119812,0.015615718479664687
607.5,,0.0005382311829364096,607.296,0.8149999976158142,0.08953873854341328
607.965517,,0.003206401737575984,607.755,0.777999997138977,0.008869607257023966
608.431034,,0.0063469096586975535,608.221,0.7649999856948853,-0.019418536519171175
608.896552,,0.00715093647124437,608.689,0.7590000033378601,-0.03236430890896677
609.362069,,0.005840637170641589,609.151,0.7829999923706055,0.02013787115803975
609.827586,,0.003666626563683965,609.615,0.7570000290870667,-0.03620942576762312
610.293103,,0.0012275693167883644,610.085,0.7609999775886536,-0.027123562185814288
610.758621,,0.001461992494760434,610.545,0.7829999923706055,0.021241193328783554
611.2241379999999,,0.0037572829672491326,611.014,0.7599999904632568,-0.028382682063694802
611.689655,,0.004264834777506631,611.48,0.781000018119812,0.01789006908339438
612.155172,,0.002260982492134182,611.943,0.7590000033378601,-0.029499042263344787
612.62069,,0.0010692414975454086,612.409,0.7829999923706055,0.023333351275347483
613.0862070000001,,0.0032286544631316577,612.874,0.777999997138977,0.012972201990164214
613.551724,,0.0026477445683104743,613.339,0.7360000014305115,-0.07802876011939672
614.017241,,0.0004298075706496365,613.803,0.7450000047683716,-0.05796561553579049
614.4827590000001,,0.0005752594932882864,614.269,0.7609999775886536,-0.022713484524479716
614.948276,,0.0012388290663742322,614.734,0.7739999890327454,0.005929798356594567
615.4137929999999,,0.004574786695473107,615.199,0.7829999923706055,0.02577610821047306
615.8793099999999,,0.006905533832706818,615.663,0.7620000243186951,-0.019827045566773515
616.344828,,0.007189715514646965,616.125,0.7739999890327454,0.006369456800035889
616.810345,,0.006242270511463718,616.593,0.7829999923706055,0.025932412316953042
617.275862,,0.005011476791836215,617.055,0.4309999942779541,-0.7411000068060625
617.741379,,0.00365980811314682,617.519,0.777999997138977,0.01463794073661263
618.206897,,0.0023271168813170516,617.988,0.7559999823570251,-0.033637541170381285
618.672414,,0.0016849124908310292,618.455,0.7789999842643738,0.01605118352564883
619.137931,,0.0021850861963459457,618.914,0.7590000033378601,-0.028003912155499876
619.603448,,0.0032823135015836347,619.38,0.7720000147819519,-0.00021066204624576516
620.068966,,0.003924416556254156,619.844,0.781000018119812,0.01883760716236179
620.534483,,0.003620217655172281,620.31,0.753000020980835,-0.04273710232551075
621.0,,0.0025926497773935213,620.774,0.781000018119812,0.01769697441525706
621.465517,,0.0010223425245986333,621.24,0.7730000019073486,-0.0002779158088768445
621.9310340000001,,0.0011063433655814196,621.704,0.7609999775886536,-0.026928065323919965
622.396552,,0.0031008883252416296,622.173,0.7739999890327454,0.0009427919127584526
622.862069,,0.0033802404198709102,622.634,0.7699999809265137,-0.008154537581229493
623.327586,,0.001161569699913833,623.103,0.7599999904632568,-0.030243049449139133
623.793103,,0.0020513351817927883,623.567,0.781000018119812,0.015296602177048901
624.258621,,0.0036834668420461622,624.029,0.7590000033378601,-0.03274897623166088
624.724138,,0.0028332899088596274,624.495,0.7739999890327454,-8.430550523111213e-05
625.189655,,0.0010993330033982342,624.965,0.7599999904632568,-0.030499820739174018
625.655172,,0.0005825293945601292,625.43,0.7950000166893005,0.0459369297809512
626.1206900000001,,0.0016403747333620057,625.889,0.7820000052452087,0.017891959869263497
626.5862070000001,,0.002825745064440436,626.355,0.7570000290870667,-0.03621210421289932
627.0517239999999,,0.002676052744432813,626.819,0.7689999938011169,-0.009633859569610733
627.5172409999999,,0.0012672174371150566,627.285,0.7789999842643738,0.012646234230964563
627.982759,,2.1647619504953424e-05,627.751,0.7590000033378601,-0.030389094089845154
628.448276,,0.00024260090816540555,628.217,0.7870000004768372,0.031177956783198197
628.913793,,0.0001293073403744112,628.685,0.7860000133514404,0.029574588956056146
629.37931,,0.0011509281451375954,629.148,0.7900000214576721,0.03885750458976284
629.844828,,0.0033835518476748325,629.611,0.7820000052452087,0.02197189468206362
630.3103450000001,,0.005242505836823915,630.081,0.7590000033378601,-0.027635739382335073
630.7758620000001,,0.005829734726203396,630.541,0.7609999775886536,-0.022836165151184508
631.2413789999999,,0.006474008722565579,631.011,0.7820000052452087,0.023285090554478267
631.706897,,0.008635282239880524,631.469,0.777999997138977,0.014856453256614482
632.172414,,0.010892277020011814,631.94,0.7829999923706055,0.025943451145836557
632.637931,,0.009862236344202241,632.405,0.7739999890327454,0.006430977984842161
633.103448,,0.004591071254415638,632.87,0.7710000276565552,-0.00011125621204015134
633.568966,,0.0013122430977240331,633.335,0.7620000243186951,-0.019827571877174426
634.034483,,0.003065241969914141,633.8,0.7689999938011169,-0.004784621172889884
634.5,,1.5120492597940226e-05,634.259,0.8109999895095825,0.08641932620540779
634.9655170000001,,0.0035448881456133017,634.73,0.7770000100135803,0.011964524430561542
635.431034,,0.002801452923715319,635.189,0.777999997138977,0.013692212528468197
635.8965519999999,,0.0020659570066419728,635.659,0.777999997138977,0.013184460441121499
636.362069,,0.006288419295548406,636.122,0.7549999952316284,-0.03747374102044329
636.827586,,0.005814803028613878,636.585,0.7820000052452087,0.02077571215581221
637.293103,,0.0014716530856619136,637.055,0.7649999856948853,-0.01684219249711012
637.7586210000001,,0.002480185725309405,637.518,0.7620000243186951,-0.023947707756046002
638.224138,,0.0029569690278355653,637.981,0.7870000004768372,0.029977807282670826
638.689655,,0.0004688508457318933,638.447,0.7620000243186951,-0.024982726596289334
639.155172,,0.0022780965495400197,638.914,0.7820000052452087,0.018157569470133618
639.62069,,0.003009162074478095,639.38,0.7609999775886536,-0.027951582459664035
640.086207,,0.0013786478814886668,639.845,0.871999979019165,0.2136091524853711
640.551724,,0.0009938478988121978,640.311,0.781000018119812,0.015181499014534694
641.017241,,0.001849462605951246,640.771,0.7620000243186951,-0.02628115119024058
641.482759,,0.00043167071911889555,641.236,0.777999997138977,0.008611172690098806
641.9482760000001,,0.0016339621945097153,641.708,0.7590000033378601,-0.03264800929719807
642.413793,,0.0021421866843764495,642.166,0.7630000114440918,-0.023701639181759146
642.87931,,0.0007601824343221524,642.629,0.7850000262260437,0.024550082431408785
643.344828,,0.0010114969323360907,643.1,0.7630000114440918,-0.022978628525186184
643.810345,,0.0020830805766119715,643.563,0.7789999842643738,0.012348963799173879
644.275862,,0.0030137856753373322,644.025,0.7609999775886536,-0.026344489441221867
644.7413789999999,,0.004672703634049993,644.491,0.7739999890327454,0.0025369093937206767
645.206897,,0.006273111379475186,644.954,0.765999972820282,-0.014313999780579812
645.672414,,0.005580113385440882,645.419,0.7820000052452087,0.021124509229903148
646.1379310000001,,0.0014640155777600689,645.885,0.781000018119812,0.0195101401877378
646.6034480000001,,0.004125563746200589,646.351,0.7599999904632568,-0.025710719199213354
647.0689659999999,,0.00747728083082342,646.815,0.7620000243186951,-0.020873163353719783
647.534483,,0.0066324208755058275,647.281,0.7789999842643738,0.016578425200573784
648.0,,0.003179201868573534,647.748,0.777999997138977,0.014736694288152382
648.465517,,0.00037529302193211277,648.214,0.7699999809265137,-0.002443723278882177
648.931034,,0.00015721825370493104,648.675,0.7789999842643738,0.017316962350119924
649.396552,,0.0003664928480233104,649.145,0.7680000066757202,-0.0065960768749358184
649.862069,,0.0001783686387730576,649.607,0.7839999794960022,0.028211905886158458
650.327586,,0.002042096486375075,650.07,0.7609999775886536,-0.022048323725795814
650.7931030000001,,0.003177058076143159,650.541,0.7620000243186951,-0.020117742471345144
651.258621,,0.0017032599084486034,651.003,0.7860000133514404,0.03183244997793966
651.7241379999999,,0.0017924850701494506,651.469,0.7699999809265137,-0.0034415520542804222
652.189655,,0.004873171607003051,651.932,0.7789999842643738,0.015685416020198663
652.655172,,0.005671547765381339,652.398,0.7490000128746033,-0.05020589854352327
653.12069,,0.004154486502407958,652.862,0.9559999704360962,0.40021083215452136
653.5862070000001,,0.0014886476435776624,653.328,0.753000020980835,-0.04262936623965698
654.051724,,0.0010174440092739951,653.792,0.765999972820282,-0.014878435397417532
654.517241,,0.002499635069479547,654.258,0.7789999842643738,0.012890046810074949
654.982759,,0.0028529637494289144,654.722,0.7760000228881836,0.005835172304974995
655.448276,,0.00261218807718302,655.189,0.7609999775886536,-0.027313019275515875
655.9137929999999,,0.0021961681773926887,655.652,0.7900000214576721,0.03546444705603432
656.37931,,0.001416534071641167,656.114,0.7590000033378601,-0.03239969105381359
656.844828,,1.4939129987415851e-05,656.585,0.7519999742507935,-0.04788951160122487
657.310345,,0.001916065764780311,657.047,0.8510000109672546,0.16765281205759885
657.7758620000001,,0.003931407237545439,657.515,0.902999997138977,0.280902741581763
658.241379,,0.005825499845942572,657.977,0.777999997138977,0.008638672484468233
658.7068969999999,,0.0069855618202258616,658.443,0.7580000162124634,-0.034766602649155515
659.172414,,0.006380422729982434,658.907,0.7820000052452087,0.01778121909363269
659.637931,,0.00395241165389596,659.373,0.7599999904632568,-0.02980426877720989
660.103448,,0.001600593569764488,659.838,0.7689999938011169,-0.009777914718771586
660.568966,,0.0016248440157966755,660.303,0.7820000052452087,0.01902402012089534
661.034483,,0.004093465850639712,660.77,0.7860000133514404,0.028265110343127366
661.5,,0.006574587703570075,661.236,0.8040000200271606,0.06803892723781405
661.965517,,0.006614234561501257,661.696,0.7749999761581421,0.005430914745134112
662.4310340000001,,0.003831811822315145,662.159,0.7409999966621399,-0.06807428947246469
662.8965519999999,,0.00034085071253962216,662.629,0.7620000243186951,-0.0217766056202845
663.362069,,0.00400717731545044,663.092,0.8519999980926514,0.17481019923031663
663.827586,,0.005712705535974461,663.555,0.7369999885559082,-0.07527738781228438
664.293103,,0.0050748458670692095,664.025,0.7870000004768372,0.034045342617519986
664.7586210000001,,0.0032378576713275485,664.491,0.7889999747276306,0.03871394985629341
665.224138,,0.002235345267303643,664.953,0.7870000004768372,0.034580811364879685
