Trial: ,5
Threshold: ,0.0
Maximum EMG: ,0.009087390447676551
Success: ,True

EMG Time,Raw EMG,Filtered EMG,Force Time,Raw Force (V),Filtered Force (N)
0.0,samples,6.119673940764887e-08,0.466,0.75,-0.05930168247276419
0.46551699999999996,time,5.6737578916220636e-08,0.936,0.8130000233650208,0.07770875770751234
0.9310339999999999,value,5.188361471944662e-08,1.399,0.796999990940094,0.042687152694163774
1.396552,,4.6635096633774084e-08,1.859,0.7620000243186951,-0.03364215314408669
1.862069,,4.099369152835517e-08,2.329,0.7689999938011169,-0.018380884811822495
2.327586,,3.496253858309644e-08,2.796,0.7739999890327454,-0.007390044188053839
2.793103,,2.8546301685579623e-08,3.26,0.7850000262260437,0.01675705675664655
3.258621,,2.1751218656536e-08,3.726,0.7620000243186951,-0.03309138343340539
3.724138,,1.4585146991458462e-08,4.184,0.7720000147819519,-0.010974484371059212
4.189654999999999,,7.057605804860095e-09,4.65,0.7850000262260437,0.017738101001745783
4.655172,,8.201863363164432e-10,5.118,0.7829999923706055,0.013818864594892207
5.12069,,9.03527800252171e-09,5.583,0.7699999809265137,-0.014031372688459956
5.586207,,1.7572956224763227e-08,6.047,0.7820000052452087,0.012603547275596205
6.051723999999999,,2.641672285774132e-08,6.513,0.7710000276565552,-0.010867172075535633
6.517241,,3.554827628486747e-08,6.98,0.7630000114440918,-0.027814731555504724
6.982759,,4.494749876107484e-08,7.443,0.7860000133514404,0.022747832759454113
7.448276,,5.459244968201626e-08,7.906,0.765999972820282,-0.020413693898339223
7.913793000000001,,6.445936505958579e-08,8.369,0.781000018119812,0.01262251932938835
8.379309999999998,,7.452266347366918e-08,8.837,0.7749999761581421,-0.00015950088495453926
8.844828000000001,,8.4754958758603e-08,9.299,0.6869999766349792,-0.19166788132228307
9.310345,,9.512707966998084e-08,9.764,0.7609999775886536,-0.030321052001773048
9.775862,,1.0560809676317516e-07,10.236,0.7860000133514404,0.024183736848671387
10.241379,,1.161653566992312e-07,10.694,0.7820000052452087,0.015420457665361237
10.706897,,1.2676452417663046e-07,11.159,0.7870000004768372,0.02617995158405299
11.172414,,1.373696316688135e-07,11.625,0.7720000147819519,-0.0067144315988877275
11.637931,,1.479431371273009e-07,12.091,0.7839999794960022,0.019140267328259776
12.103447999999998,,1.5844598978876208e-07,12.557,0.7689999938011169,-0.013893745782401932
12.568966000000001,,1.688377042014734e-07,13.022,0.7860000133514404,0.02273491983205965
13.034483,,1.7907644256229694e-07,13.488,0.7860000133514404,0.02228564097660551
13.5,,1.891191054296264e-07,13.951,0.7820000052452087,0.01309527473738704
13.965517,,1.9892143085072062e-07,14.42,0.7760000228881836,-0.0004641172270655053
14.431034,,2.084381019135129e-07,14.881,0.7839999794960022,0.0164808127231047
14.896552,,2.176228627033944e-07,15.351,0.7839999794960022,0.016015370834441163
15.362069,,2.264286426146699e-07,15.814,0.777999997138977,0.002511403408139874
15.827586000000002,,2.3480768893443584e-07,16.276,0.7570000290870667,-0.043626054925643906
16.293103,,2.427117075835918e-07,16.742,0.7860000133514404,0.019226757385478035
16.758621,,2.5009201186564573e-07,17.207,0.7599999904632568,-0.03767778976602354
17.224138,,2.568996790389807e-07,17.673,0.7990000247955322,0.04710676093420869
17.689655,,2.63085714492407e-07,18.14,0.765999972820282,-0.024888791743932513
18.155172,,2.686012232672149e-07,18.605,0.7839999794960022,0.014312652373045775
18.62069,,2.7339758863166925e-07,19.07,0.7839999794960022,0.014384613124838505
19.086207,,2.7742665737605014e-07,19.536,0.7620000243186951,-0.0333897722489404
19.551724,,2.806409314580582e-07,20.002,0.7860000133514404,0.01913211997457355
20.017241000000002,,2.8299376558978133e-07,20.461,0.7730000019073486,-0.008884616665262236
20.482758999999998,,2.8443957031858725e-07,20.929,0.765999972820282,-0.02376788562993934
20.948276,,2.849340201153931e-07,21.391,0.6990000009536743,-0.1693216619701191
21.413793000000002,,2.8443426594490287e-07,21.855,0.7599999904632568,-0.035974576664939036
21.87931,,2.828991517537378e-07,22.324,0.7889999747276306,0.027677188944682244
22.344828,,2.802894342740604e-07,22.79,0.7850000262260437,0.019442726616726046
22.810344999999998,,2.7656800550245815e-07,23.254,0.7630000114440918,-0.028013396057734688
23.275862,,2.717001171766687e-07,23.72,0.7870000004768372,0.0247273759585474
23.741379,,2.656536065363519e-07,24.18,0.7699999809265137,-0.011891358996265991
24.206897,,2.5839912261870937e-07,24.646,0.7739999890327454,-0.002806371869039913
24.672414,,2.4991035230549085e-07,25.111,0.7950000166893005,0.04325643343242952
25.137931,,2.4016424530497595e-07,25.577,0.7609999775886536,-0.0305753440429579
25.603448,,2.291412372210573e-07,26.043,0.777999997138977,0.0066272465844508365
26.068966,,2.1682546983175204e-07,26.509,0.7739999890327454,-0.002004004185364778
26.534483,,2.0320500767150996e-07,26.969,0.7480000257492065,-0.05865055812421317
27.0,,1.882720499857475e-07,27.439,0.7829999923706055,0.017514828106830263
27.465517,,1.7202313710230009e-07,27.903,0.8600000143051147,0.18510302411989327
27.931034,,1.544593502431259e-07,28.365,0.7860000133514404,0.02364183404292592
28.396552,,1.3558650378079553e-07,28.829,0.7839999794960022,0.01897595750223289
28.862069,,1.1541532892823718e-07,29.299,0.7630000114440918,-0.02714398273816916
29.327586,,9.396164783705612e-08,29.765,0.7839999794960022,0.01819010219117215
29.793103000000002,,7.124653706967893e-08,30.228,0.7990000247955322,0.050416773493775525
30.258620999999998,,4.729647940375769e-08,30.693,0.7839999794960022,0.017262620264927146
30.724138,,2.2143502923873566e-08,31.158,0.7839999794960022,0.01678139441689757
31.189655000000002,,4.174693644240303e-09,31.623,0.7519999742507935,-0.053409657118287227
31.655172000000004,,3.161463039782376e-08,32.088,0.7689999938011169,-0.016826179475093947
32.12069,,6.012695155263785e-08,32.554,0.7860000133514404,0.01979232843476775
32.586207,,8.96563475912017e-08,33.014,0.7649999856948853,-0.026329352441622444
33.051724,,1.2014149526902366e-07,33.48,0.777999997138977,0.0016830275704220908
33.517241000000006,,1.5151501646389974e-07,33.947,0.7860000133514404,0.01887205493164845
33.982759,,1.8370345682873494e-07,34.41,0.7599999904632568,-0.03793552007757238
34.448276,,2.166272851792386e-07,34.88,0.7490000128746033,-0.06198147431255001
34.913793,,2.502009145141659e-07,35.343,0.8429999947547913,0.14281607410460614
35.37931,,2.843327455274433e-07,35.806,0.7570000290870667,-0.044455847554315475
35.844828,,3.1892523342846265e-07,36.269,0.7559999823570251,-0.04645953132526015
36.310345,,3.538749788390081e-07,36.734,0.7860000133514404,0.019152076901975436
36.775862,,3.890728434826537e-07,37.199,0.9900000095367432,0.46392296602402233
37.241378999999995,,4.244040913250202e-07,37.665,0.765999972820282,-0.023699656795302823
37.706897000000005,,4.5974855576100126e-07,38.133,0.7689999938011169,-0.01671715969663356
38.172414,,4.949808333779793e-07,38.599,0.7850000262260437,0.0186216125973853
38.637931,,5.299705047521759e-07,39.066,0.7850000262260437,0.01912130160059034
39.103448,,5.64582382658673e-07,39.524,0.7850000262260437,0.019624963686433135
39.568965999999996,,5.986767879943683e-07,39.992,0.8989999890327454,0.2684848170717696
40.034483,,6.321098536272778e-07,40.454,0.7409999966621399,-0.07527187113691859
40.5,,6.647338562952826e-07,40.921,0.7699999809265137,-0.01166344484974549
40.965517,,6.963975765827587e-07,41.385,0.7870000004768372,0.025743822244237508
41.431034,,7.2694668690468e-07,41.855,0.777999997138977,0.006437909188196931
41.896552,,7.562241673249251e-07,42.317,0.7860000133514404,0.02409130314306571
42.362069000000005,,7.840707489288211e-07,42.783,0.7570000290870667,-0.038950703125838836
42.827586000000004,,8.103253843596664e-07,43.246,0.7889999747276306,0.030814547541800824
43.293103,,8.348257450152967e-07,43.711,0.7739999890327454,-0.0019079896871213474
43.758621,,8.574087442839789e-07,44.176,0.7580000162124634,-0.03689952654582453
44.224138,,8.779110860792933e-07,44.642,0.7490000128746033,-0.05672781727136177
44.689655,,8.961698378115269e-07,45.106,0.7760000228881836,0.0017949384081803483
45.155172,,9.120230268087553e-07,45.572,0.7699999809265137,-0.011647862166596953
45.620689999999996,,9.253102590745918e-07,46.039,0.7620000243186951,-0.029505801100835966
46.086206999999995,,9.358733591418994e-07,46.505,0.7850000262260437,0.020130015958794142
46.551724,,9.435570296529925e-07,46.966,0.7649999856948853,-0.023944967895502833
47.017241,,9.482095291673995e-07,47.436,0.7820000052452087,0.012577484243851385
47.482759,,9.496833665685558e-07,47.899,0.7860000133514404,0.02078157272516697
47.948276,,9.478360103112977e-07,48.361,0.7699999809265137,-0.014566799337992285
48.413793,,9.425306106232058e-07,48.829,0.8019999861717224,0.05469643328501162
48.879310000000004,,9.33636732645182e-07,49.291,0.7590000033378601,-0.039388052197708696
49.344828,,9.210310983706442e-07,49.757,0.7850000262260437,0.016917551548522883
49.810345,,9.045983351189208e-07,50.221,0.8149999976158142,0.08201247813191269
50.275862,,8.842317281573401e-07,50.687,0.7850000262260437,0.016472878346298823
50.741379,,8.598339749686995e-07,51.151,0.781000018119812,0.007667427233161026
51.206897,,8.313179385468195e-07,51.616,0.7699999809265137,-0.016297399644082913
51.672414,,7.986073969933218e-07,52.081,0.7699999809265137,-0.016206370887839928
52.137931,,7.616377865841815e-07,52.547,0.7839999794960022,0.014473443013797433
52.603448,,7.203569353756007e-07,53.014,0.7950000166893005,0.03870004821752492
53.068966,,6.747257843259071e-07,53.479,0.7839999794960022,0.015070917892394113
53.534483,,6.247190928241057e-07,53.94,0.7990000247955322,0.048150821788273915
54.0,,5.703261254370092e-07,54.409,0.7609999775886536,-0.03418713211179549
54.465517,,5.115513166161182e-07,54.869,0.7789999842643738,0.005514851115661523
54.931034,,4.4841491004324564e-07,55.339,0.7990000247955322,0.0495944062882294
55.396552,,3.809535692408378e-07,55.807,0.777999997138977,0.004353854679019736
55.862069,,3.092209560296522e-07,56.269,0.7850000262260437,0.020103602847229046
56.327586,,2.3328827338345735e-07,56.735,0.7609999775886536,-0.031713522050662385
56.793102999999995,,1.5324476920830626e-07,57.195,0.7870000004768372,0.025358049937734405
57.258621000000005,,6.919819756323882e-08,57.661,0.7620000243186951,-0.02873898454863921
57.724138,,1.872476615947303e-08,58.126,0.7990000247955322,0.052171157466499855
58.189655,,1.1037815956270251e-07,58.591,0.7820000052452087,0.015356219867880931
58.655172,,2.055964205229568e-07,59.059,0.777999997138977,0.0067786914268123345
59.120689999999996,,3.0419413082037277e-07,59.524,0.7580000162124634,-0.03674740704793156
59.586207,,4.0596581946766706e-07,59.984,0.7919999957084656,0.037281594911752
60.051724,,5.10685829017278e-07,60.454,0.7839999794960022,0.019717725794363893
60.517241,,6.181082480430939e-07,60.917,0.7749999761581421,-0.00010983307666576243
60.982758999999994,,7.279669128953506e-07,61.38,0.7860000133514404,0.023557419133853015
61.448276,,8.399754817141982e-07,61.851,0.7919999957084656,0.036262983610449
61.913793,,9.538275835588326e-07,62.313,0.7919999957084656,0.03584055378773901
62.379310000000004,,1.0691970453647445e-06,62.779,0.7590000033378601,-0.03652040112330856
62.84482800000001,,1.1857381992813925e-06,63.241,0.7919999957084656,0.0348806189888701
63.310345000000005,,1.303086272766349e-06,63.707,0.7689999938011169,-0.01573554045589754
63.775862000000004,,1.4208578636196228e-06,64.174,0.7820000052452087,0.012083100549509498
64.241379,,1.5386515019334321e-06,64.64,0.7630000114440918,-0.029795816281373642
64.706897,,1.6560483007082241e-06,65.099,0.7820000052452087,0.011148555375209385
65.172414,,1.7726126966453255e-06,65.565,0.765999972820282,-0.0241107166707012
65.637931,,1.8878932823704458e-06,66.03,0.7699999809265137,-0.015735066422678166
66.103448,,2.001423731070539e-06,66.495,0.7860000133514404,0.018857347853607195
66.56896599999999,,2.1127238142395823e-06,66.965,0.7730000019073486,-0.009649208945529595
67.03448300000001,,2.2213005129270153e-06,67.428,0.7860000133514404,0.01857715407841145
67.5,,2.3266492225663338e-06,67.891,0.7979999780654907,0.04471638438891911
67.965517,,2.428255051131144e-06,68.354,0.9660000205039978,0.41082071636956186
68.431034,,2.5255942100224286e-06,68.825,0.7749999761581421,-0.005114622067342166
68.896552,,2.6181354967345258e-06,69.287,0.7680000066757202,-0.02009312286975181
69.362069,,2.7053418679790575e-06,69.753,0.7770000100135803,-0.0001408102276720469
69.827586,,2.7866721015666175e-06,70.217,0.7870000004768372,0.022051632838679554
70.293103,,2.86158254495624e-06,70.683,0.7519999742507935,-0.05374708784498617
70.75862099999999,,2.929528947983514e-06,71.148,0.7630000114440918,-0.029295440648466085
71.22413800000001,,2.9899683768706764e-06,71.613,0.7919999957084656,0.03438866654886887
71.689655,,3.0423612062072435e-06,72.08,0.7630000114440918,-0.02828742545873004
72.15517200000001,,3.086173185168798e-06,72.546,0.7950000166893005,0.04191926457378294
72.62069,,3.120877573815776e-06,73.01,0.7870000004768372,0.02494992242063578
73.086207,,3.14595734488474e-06,73.476,0.8230000138282776,0.1037974378369925
73.551724,,3.1609074460530728e-06,73.936,0.7870000004768372,0.025725576672777046
74.017241,,3.1652371172257373e-06,74.399,0.7739999890327454,-0.002306358569651385
74.482759,,3.158472256961209e-06,74.869,0.753000020980835,-0.04784725260196462
74.94827599999999,,3.14015783172448e-06,75.332,0.7829999923706055,0.01763582009110976
75.41379300000001,,3.109860321229799e-06,75.798,0.7639999985694885,-0.02372531569438566
75.87931,,3.0671701927161993e-06,76.261,0.7860000133514404,0.024147093835647886
76.344828,,3.0117043965866844e-06,76.727,0.7739999890327454,-0.002143429683404823
76.810345,,2.9431088754388706e-06,77.195,0.7559999823570251,-0.0415900111246031
77.275862,,2.861061078122895e-06,77.66,0.777999997138977,0.006032411070475032
77.741379,,2.7652724700832433e-06,78.125,0.7829999923706055,0.016551495722487965
78.206897,,2.6554910308768e-06,78.584,0.781000018119812,0.01176671429321836
78.67241399999999,,2.53150372941179e-06,79.051,0.7820000052452087,0.013478453297796377
79.137931,,2.393138967123345e-06,79.517,0.7630000114440918,-0.02840720295372933
79.603448,,2.2402689789931485e-06,79.98,0.7850000262260437,0.019023055775233656
80.068966,,2.072812182035005e-06,80.45,0.847000002861023,0.15360837124652574
80.53448300000001,,1.8907354606072187e-06,80.911,0.765999972820282,-0.023326880825547295
81.0,,1.694056377678348e-06,81.381,0.8199999928474426,0.09389600661742506
81.465517,,1.482845300967233e-06,81.843,0.7979999780654907,0.04559552563617454
81.931034,,1.2572274327031216e-06,82.306,0.7680000066757202,-0.02006862410809713
82.396552,,1.017384731609204e-06,82.772,0.7870000004768372,0.021094804653556523
82.86206899999999,,7.635577156048089e-07,83.235,0.7829999923706055,0.012230401258532093
83.327586,,4.960471336497961e-07,83.7,0.7680000066757202,-0.02051350226449391
83.79310299999999,,2.1521549512113755e-07,84.165,0.7689999938011169,-0.018312296622504116
84.258621,,7.851155488195178e-08,84.631,0.7860000133514404,0.01883325368418397
84.72413800000001,,3.8464402585995107e-07,85.099,0.7839999794960022,0.014667146184082689
85.189655,,7.026265493263904e-07,85.564,0.7630000114440918,-0.03081686678618451
85.65517200000001,,1.0318375346409e-06,86.029,0.7699999809265137,-0.01523203031321167
86.12069,,1.3715885244078993e-06,86.495,0.7870000004768372,0.022195508689824395
86.586207,,1.7211237603569438e-06,86.958,0.7720000147819519,-0.010049806110172022
87.051724,,2.0796199703419868e-06,87.42,0.7870000004768372,0.023094230243311538
87.517241,,2.4461863867680915e-06,87.888,0.7820000052452087,0.012680479974163054
87.98275899999999,,2.8198650063744773e-06,88.35,0.7459999918937683,-0.0652722863396285
88.448276,,3.1996311008713428e-06,88.814,0.7860000133514404,0.02233546413929762
88.913793,,3.5843939874439984e-06,89.284,0.7699999809265137,-0.012092398663084956
89.37931,,3.972998067600883e-06,89.749,0.781000018119812,0.012258915953804975
89.844828,,4.364224142251695e-06,90.213,0.7839999794960022,0.019124270871021608
90.310345,,4.756791010257918e-06,90.679,0.7739999890327454,-0.0023996112315370767
90.775862,,5.149357357000458e-06,91.143,0.8029999732971191,0.060968816596555876
91.241379,,5.540523938758068e-06,91.609,0.7710000276565552,-0.008640739133129252
91.706897,,5.928836067886143e-06,92.074,0.7879999876022339,0.028419134714719223
92.17241399999999,,6.312786402928842e-06,92.54,0.7699999809265137,-0.010858737212391044
92.63793100000001,,6.690818046889178e-06,92.999,0.7879999876022339,0.028211783325159383
93.103448,,7.0613279559226056e-06,93.465,0.7760000228881836,0.001844751185109811
93.568966,,7.422670659711107e-06,93.936,0.7839999794960022,0.018979683880256244
94.03448300000001,,7.773162293718173e-06,94.398,0.753000020980835,-0.04891436270119343
94.5,,8.111084942422173e-06,94.859,0.7390000224113464,-0.07982308270794787
94.965517,,8.43469129147824e-06,95.328,0.7910000085830688,0.0330204372294841
95.431034,,8.742209585569183e-06,95.794,0.781000018119812,0.010765119775875721
95.896552,,9.031848887476541e-06,96.26,0.800000011920929,0.051684075247101245
96.36206899999999,,9.301804632636308e-06,96.725,0.7839999794960022,0.016359284936164845
96.827586,,9.550264472143013e-06,97.185,0.7710000276565552,-0.012405839573619798
97.293103,,9.77541439583392e-06,97.651,0.7870000004768372,0.022046960146064498
97.758621,,9.975445125725472e-06,98.117,0.7699999809265137,-0.015345362331536674
98.224138,,1.0148558768690394e-05,98.583,0.7739999890327454,-0.0069246088216116455
98.689655,,1.0292975715860112e-05,99.047,0.7870000004768372,0.021174830489122533
99.155172,,1.0406941774817252e-05,99.513,0.7699999809265137,-0.016007098866615128
99.62069,,1.0488735519211524e-05,99.976,0.777999997138977,0.001359791406072871
100.086207,,1.0536675838993776e-05,100.446,0.8759999871253967,0.21489130146851154
100.551724,,1.0549129673022227e-05,100.906,0.7620000243186951,-0.03336369524702069
101.017241,,1.052451990435693e-05,101.369,0.7870000004768372,0.021294704044190448
101.482759,,1.0461333397128663e-05,101.836,0.7900000214576721,0.02809663546382427
101.948276,,1.0358129152452069e-05,102.306,0.7580000162124634,-0.0412893051078551
102.413793,,1.0213546559455662e-05,102.764,0.7620000243186951,-0.03219085925472787
102.87931,,1.0026313716128994e-05,103.235,0.765999972820282,-0.023052442921250114
103.344828,,9.795255793345932e-06,103.701,0.7870000004768372,0.02315016523939021
103.810345,,9.519303414118667e-06,104.165,0.7820000052452087,0.012721040731918046
104.275862,,9.197501018876027e-06,104.624,0.7860000133514404,0.021898299195132694
104.741379,,8.829015186348222e-06,105.089,0.7789999842643738,0.0070939159347985295
105.206897,,8.413142878484935e-06,105.554,0.7580000162124634,-0.03824274884004491
105.672414,,7.949319576740967e-06,106.022,0.753000020980835,-0.04876670192969745
106.13793100000001,,7.437127276040277e-06,106.488,0.7850000262260437,0.02126201363243582
106.603448,,6.876302301781755e-06,106.951,0.7630000114440918,-0.026422892196730746
107.068966,,6.266742914385114e-06,107.42,0.6949999928474426,-0.17440136622509278
107.534483,,5.608516665099541e-06,107.881,0.7839999794960022,0.01958593721002354
108.0,,4.901867466117794e-06,108.35,0.765999972820282,-0.01962510665290486
108.46551699999999,,4.1472223374608705e-06,108.814,0.7720000147819519,-0.006629999718019575
108.931034,,3.345197792629687e-06,109.276,0.7689999938011169,-0.013321707763336924
109.396552,,2.496605824666712e-06,109.742,0.7870000004768372,0.025665169033946097
109.862069,,1.6024594540384847e-06,110.207,0.7829999923706055,0.016656866589765396
110.32758600000001,,6.639777996455141e-07,110.672,0.7710000276565552,-0.009835706515727771
110.793103,,3.174093657050057e-07,111.137,0.7630000114440918,-0.027658200674353813
111.258621,,1.3400576138601666e-06,111.602,0.7820000052452087,0.013311094356401782
111.724138,,2.402104452099965e-06,112.069,0.7649999856948853,-0.024168750730334677
112.189655,,3.5014665438553624e-06,112.534,0.7839999794960022,0.01677943276402187
112.655172,,4.63583759647098e-06,113.0,0.777999997138977,0.0032726800489351173
113.12069,,5.8026869523420984e-06,113.465,0.7649999856948853,-0.025459644670953494
113.586207,,6.999258918817074e-06,113.928,0.7789999842643738,0.004669319713026863
114.051724,,8.222572871151058e-06,114.391,0.7639999985694885,-0.028332995107366865
114.51724100000001,,9.469424161521689e-06,114.858,0.7649999856948853,-0.02641760289266607
114.982759,,1.0736385865669398e-05,115.321,0.7850000262260437,0.016959959694791523
115.448276,,1.2019811397101936e-05,115.786,0.722000002861023,-0.12041718350504318
115.913793,,1.3315838017002761e-05,116.249,0.7910000085830688,0.029863720847496028
116.37931,,1.4620391266004993e-05,116.715,0.7839999794960022,0.014645990207975497
116.84482799999999,,1.5929190341835825e-05,117.18,0.7630000114440918,-0.030994583753160138
117.310345,,1.7237754444500848e-05,117.646,0.7829999923706055,0.012763094603547721
117.77586199999999,,1.8541410108164074e-05,118.111,0.7879999876022339,0.02390906952460208
118.241379,,1.9835299536188966e-05,118.576,0.5419999957084656,-0.5117302792452115
118.70689700000001,,2.111438995294028e-05,119.043,0.777999997138977,0.0027801876799901106
119.172414,,2.237348398290872e-05,119.509,0.7630000114440918,-0.02951652206983741
119.63793100000001,,2.3607231064513714e-05,119.969,0.7820000052452087,0.012286730356029403
120.103448,,2.481013990256822e-05,120.439,0.7839999794960022,0.01706646707370593
120.568966,,2.5976591959858125e-05,120.899,0.7699999809265137,-0.013011673791331186
121.034483,,2.7100855984603302e-05,121.369,0.7839999794960022,0.01789926506202556
121.5,,2.8177103566734048e-05,121.829,0.8130000233650208,0.0814648232884091
121.96551699999999,,2.9199425711942816e-05,122.298,0.7649999856948853,-0.022762733677826212
122.431034,,3.016185041836524e-05,122.764,0.7749999761581421,-0.0006776499982059968
122.896552,,3.105836123651486e-05,123.228,0.7680000066757202,-0.015688787596776162
123.362069,,3.1882916788752855e-05,123.694,0.7820000052452087,0.01498488067261313
123.827586,,3.2629471220127536e-05,124.158,0.777999997138977,0.006370836166999443
124.293103,,3.329199554788041e-05,124.624,0.7710000276565552,-0.008854410049672723
124.758621,,3.386449987229789e-05,125.084,0.7850000262260437,0.021595559997892515
125.22413800000001,,3.434105640690359e-05,125.549,0.7620000243186951,-0.028639403238597747
125.68965500000002,,3.471582328124933e-05,126.014,0.7599999904632568,-0.033194501115267436
126.15517200000001,,3.498306906478803e-05,126.48,0.7789999842643738,0.00793638439047598
126.62069000000001,,3.5137197955513986e-05,126.951,0.7829999923706055,0.016330845542769843
127.086207,,3.517277557225167e-05,127.412,0.7910000085830688,0.03339391230071628
127.55172400000001,,3.50845552846802e-05,127.875,0.7519999742507935,-0.05197450107198233
128.017241,,3.486750501041419e-05,128.345,0.7820000052452087,0.012961043630638495
128.48275900000002,,3.451683440374143e-05,128.807,0.7620000243186951,-0.031045480780458327
128.948276,,3.402802235596231e-05,129.269,0.8610000014305115,0.18421296132187026
129.413793,,3.339684472270403e-05,129.735,0.7789999842643738,0.005157016864649592
129.87931,,3.26194021891155e-05,130.2,0.7570000290870667,-0.04314755532791965
130.344828,,3.1692148179505586e-05,130.666,0.7919999957084656,0.03277305208432731
130.81034499999998,,3.061191671378976e-05,131.132,0.7599999904632568,-0.03722267895540257
131.275862,,2.9375950109079095e-05,131.598,0.7839999794960022,0.014847751724801093
131.741379,,2.798192642090232e-05,132.062,0.7699999809265137,-0.015801715110591218
132.206897,,2.6427986514918742e-05,132.527,0.7829999923706055,0.01244603666314691
132.67241399999997,,2.4712760656578547e-05,132.991,0.7739999890327454,-0.007160351941813757
133.13793099999998,,2.2835394503039944e-05,133.461,0.765999972820282,-0.024512119750366494
133.60344800000001,,2.0795574378781743e-05,133.921,0.7839999794960022,0.014854603047023409
134.06896600000002,,1.8593551713777728e-05,134.384,0.765999972820282,-0.024140936138246097
134.53448300000002,,1.6230166520847183e-05,134.852,0.765999972820282,-0.02385874756095419
135.0,,1.370686978688651e-05,135.321,0.7839999794960022,0.015692450782171546
135.465517,,1.1025744651141288e-05,135.779,0.7820000052452087,0.011714258893282002
135.931034,,8.189526242517845e-06,136.249,0.7820000052452087,0.012125344178303318
136.396552,,5.20162004717907e-06,136.715,0.7639999985694885,-0.026660428322090465
136.862069,,2.066118677341101e-06,137.176,0.7480000257492065,-0.06108439152444049
137.327586,,1.2121830876948495e-06,137.642,0.7739999890327454,-0.004014811678193987
137.793103,,4.6277751166589085e-06,138.106,0.7870000004768372,0.0247104977380405
138.258621,,8.174420724895637e-06,138.572,0.7689999938011169,-0.014136253276589508
138.724138,,1.1845147582167523e-05,139.04,0.7739999890327454,-0.0029198669078617555
139.189655,,1.5632240853352194e-05,139.506,0.7739999890327454,-0.0026528269104226093
139.655172,,1.95272386930956e-05,139.969,0.7630000114440918,-0.026415529220935135
140.12069,,2.352093021232813e-05,140.432,0.7850000262260437,0.021646107502495477
140.586207,,2.7603356030838786e-05,140.895,0.7630000114440918,-0.026227959765799835
141.05172399999998,,3.1763811525823416e-05,141.365,0.7860000133514404,0.023860294092919752
141.51724099999998,,3.599085288146712e-05,141.828,0.7870000004768372,0.025942284799390272
141.982759,,4.027230603918078e-05,142.291,0.7739999890327454,-0.0025496648470274695
142.44827600000002,,4.4595278642081457e-05,142.757,0.722000002861023,-0.11607804541923952
142.913793,,4.8946175060681685e-05,143.221,0.7699999809265137,-0.011804720910596232
143.37931,,5.331071457953232e-05,143.686,0.7900000214576721,0.031413967279228926
143.844828,,5.767395281674603e-05,144.151,0.777999997138977,0.0048755953402477275
144.310345,,6.202030643991723e-05,144.617,0.765999972820282,-0.0216909346485316
144.77586200000002,,6.633358123295264e-05,145.084,0.7509999871253967,-0.05480926744106282
145.241379,,7.059700355874161e-05,145.549,0.7680000066757202,-0.01821351428143595
145.706897,,7.479325525243552e-05,146.014,0.7680000066757202,-0.018643347721462186
146.172414,,7.890451196938243e-05,146.479,0.7770000100135803,0.0005601674602208539
146.637931,,8.291248500049077e-05,146.94,0.7739999890327454,-0.00634163663664704
147.103448,,8.679846655598977e-05,147.409,0.7739999890327454,-0.006657312222578759
147.568966,,9.054337850623435e-05,147.87,0.7760000228881836,-0.0025555043582860242
148.034483,,9.412782455538946e-05,148.34,0.7850000262260437,0.016865255478959725
148.5,,9.753214581054775e-05,148.803,0.753000020980835,-0.05296439864942315
148.965517,,0.00010073647969511183,149.265,0.7820000052452087,0.010180916640864703
149.43103399999998,,0.00010372082214113852,149.731,0.7839999794960022,0.014581830234845387
149.89655199999999,,0.00010646509298082824,150.195,0.7799999713897705,0.005989329891278494
150.362069,,0.00010894920444248595,150.661,0.7630000114440918,-0.03085122211601933
150.82758600000003,,0.00011115313264111573,151.128,0.7630000114440918,-0.03058732354689848
151.293103,,0.00011305699193838191,151.594,0.7870000004768372,0.022023577451105267
151.758621,,0.00011464111203101801,152.054,0.765999972820282,-0.023354879030456938
152.224138,,0.00011588611761093761,152.52,0.7900000214576721,0.029344414003005005
152.68965500000002,,0.00011677301042434497,152.988,0.7630000114440918,-0.029042032879055688
153.155172,,0.00011728325354111147,153.451,0.7689999938011169,-0.015521716664113068
153.62069,,0.00011739885762962899,153.914,0.7789999842643738,0.006710407119002383
154.086207,,0.00011710246901632903,154.384,0.7889999747276306,0.028926400633672165
154.551724,,0.00011637745929312522,154.847,0.7630000114440918,-0.027318455714676147
155.017241,,0.00011520801622025741,155.309,0.7860000133514404,0.023147862455205188
155.482759,,0.00011357923565644964,155.776,0.7599999904632568,-0.033193677915485394
155.948276,,0.00011147721423300699,156.246,0.7820000052452087,0.014976263890916344
156.413793,,0.0001088891424735333,156.704,0.4129999876022339,-0.7887836736790417
156.87931,,0.00010580339804642078,157.17,0.765999972820282,-0.019648593693757724
157.34482799999998,,0.00010220963882321232,157.635,0.7820000052452087,0.015196831124208967
157.81034499999998,,9.809889540243939e-05,158.103,0.7870000004768372,0.02600037712690155
158.275862,,9.346366274566264e-05,158.568,0.6320000290870667,-0.3118555565802498
158.741379,,8.829799056026243e-05,159.033,0.7590000033378601,-0.035405757570108616
159.20689700000003,,8.259757205211429e-05,159.499,0.7870000004768372,0.025295087827059946
159.672414,,7.635983066071304e-05,159.962,0.7620000243186951,-0.029522105799231275
160.137931,,6.958400437965361e-05,160.424,0.8069999814033508,0.06812828100352628
160.60344800000001,,6.227122725670746e-05,160.895,0.7879999876022339,0.0263209370158551
161.06896600000002,,5.442460766012569e-05,161.358,0.7839999794960022,0.01718222684417493
161.534483,,4.6049302891324746e-05,161.825,0.7860000133514404,0.02111727984629544
162.0,,3.7152589718839366e-05,162.288,0.7689999938011169,-0.016327573617066223
162.465517,,2.774393040442984e-05,162.754,0.7820000052452087,0.011613779235203668
162.931034,,1.78350337895752e-05,163.217,0.8450000286102295,0.14852711955257095
163.396552,,7.439911009337145e-06,163.683,0.7820000052452087,0.010981562902403475
163.862069,,3.4250745991945375e-06,164.148,0.7820000052452087,0.01074909809754132
164.327586,,1.4741163824903713e-05,164.613,0.7710000276565552,-0.01338534665996719
164.793103,,2.6487164574771822e-05,165.081,0.7699999809265137,-0.01566644959924032
165.258621,,3.863942195279611e-05,165.539,0.7699999809265137,-0.01569984395483591
165.72413799999998,,5.117179584167031e-05,166.004,0.7879999876022339,0.02355179695635336
166.189655,,6.405564639474274e-05,166.469,0.7889999747276306,0.025834311005974882
166.655172,,7.725982783552005e-05,166.939,0.7799999713897705,0.006394359368259033
167.12069,,9.075069094990575e-05,167.402,0.7820000052452087,0.01097726856911304
167.58620699999997,,0.00010449209464241604,167.87,0.7549999952316284,-0.04757149571588155
168.051724,,0.00011844542691177169,168.333,0.7870000004768372,0.022459762369289617
168.517241,,0.00013256963558350092,168.803,0.765999972820282,-0.022947744709562776
168.98275900000002,,0.00014682126911748667,169.265,0.7770000100135803,0.0013803756378108106
169.44827600000002,,0.00016115452778674022,169.724,0.7839999794960022,0.017001180061164807
169.913793,,0.0001755213255000759,170.195,0.7440000176429749,-0.06977871891083612
170.37931,,0.0001898713625158016,170.661,0.7689999938011169,-0.014962957388770903
170.844828,,0.00020415220926603612,171.121,0.7649999856948853,-0.02335474173512762
171.310345,,0.00021830940148183218,171.587,0.7889999747276306,0.029220216670337883
171.775862,,0.00023228654677794722,172.052,0.7789999842643738,0.007678153807387462
172.241379,,0.0002460254428228961,172.517,0.7739999890327454,-0.003020440961876158
172.706897,,0.00025946620718487925,172.98,0.7870000004768372,0.025441633930330682
173.172414,,0.0002725474189073544,173.45,0.7620000243186951,-0.028943410122028307
173.637931,,0.0002852062718294691,173.91,0.7699999809265137,-0.011493717102571948
174.103448,,0.0002973787396263585,174.38,0.7870000004768372,0.02550393206074364
174.568966,,0.0003089997525025111,174.84,0.7699999809265137,-0.01162992551347447
175.034483,,0.0003200033854281051,175.31,0.7839999794960022,0.018720905365314854
175.5,,0.0003303230577634983,175.775,0.7699999809265137,-0.01197847437731276
175.96551699999998,,0.00033989174407103557,176.238,0.7839999794960022,0.018283152078036737
176.43103399999998,,0.0003486421958661121,176.704,0.7580000162124634,-0.03863448375974877
176.896552,,0.0003565071740111299,177.17,0.7879999876022339,0.026427473989341962
177.36206900000002,,0.000363419691406732,177.636,0.7599999904632568,-0.03488715182976687
177.827586,,0.00036931326558463726,178.095,0.7850000262260437,0.019261501003181938
178.293103,,0.00037412218075566934,178.561,0.7789999842643738,0.005876758856208746
178.758621,,0.00037778175881533624,179.025,0.7839999794960022,0.01647195272985575
179.224138,,0.00038022863875773234,179.49,0.7620000243186951,-0.031733055184725245
179.68965500000002,,0.0003814010638967826,179.958,0.7639999985694885,-0.027620139971670475
180.155172,,0.00038123917624210236,180.42,0.7549999952316284,-0.047435424169152744
180.62069,,0.0003796853173251971,180.888,0.7680000066757202,-0.01927788008716509
181.086207,,0.00037668433472057186,181.35,0.7749999761581421,-0.00414506262344838
181.551724,,0.0003721838934557631,181.814,0.7870000004768372,0.02193189642330352
182.01724099999998,,0.0003661347914545522,182.283,0.765999972820282,-0.023834547729482552
182.482759,,0.00035849127810889193,182.749,0.7739999890327454,-0.006368807601972281
182.948276,,0.0003492113750275968,183.213,0.7950000166893005,0.03946892382906436
183.413793,,0.00033825719796383403,183.679,0.7870000004768372,0.022172511426691806
183.87931,,0.0003255952788791383,184.144,0.7699999809265137,-0.014690134400103668
184.34482799999998,,0.0003111968870592962,184.61,0.7730000019073486,-0.007944973810363732
184.81034499999998,,0.00029503834815725597,185.069,0.777999997138977,0.003184934514774997
185.27586200000002,,0.0002771013600004497,185.535,0.765999972820282,-0.022702542050304697
185.74137900000002,,0.00025737330396479347,185.999,0.765999972820282,-0.02243512033006296
186.206897,,0.00023584755068538292,186.465,0.7860000133514404,0.021408123736565015
186.672414,,0.00021252375884480478,186.936,0.7820000052452087,0.012958735658520177
187.137931,,0.00018740816575433874,187.398,0.7559999823570251,-0.04343423129909811
187.60344800000001,,0.00016051386842133114,187.866,0.7490000128746033,-0.05845467482574857
188.06896600000002,,0.00013186109377779796,188.328,0.7699999809265137,-0.012501987240676998
188.534483,,0.00010147745673103886,188.794,0.7870000004768372,0.024702718135656207
189.0,,6.939820468717716e-05,189.259,0.7940000295639038,0.040084220105164214
189.465517,,3.5666447193586e-05,189.724,0.777999997138977,0.005317018918159264
189.931034,,3.333693460839851e-07,190.184,0.7820000052452087,0.014080938608264822
190.39655199999999,,3.6541572388988076e-05,190.65,0.7689999938011169,-0.014235172461751492
190.862069,,7.489047327907919e-05,191.115,0.7689999938011169,-0.01427145589037366
191.327586,,0.00011463682368268932,191.581,0.7850000262260437,0.020510167618582934
191.793103,,0.0001556953739637331,192.047,0.7870000004768372,0.024753899551370168
192.25862099999998,,0.00019797202223886356,192.513,0.7760000228881836,0.0006430774797564574
192.72413799999998,,0.0002413637262038032,192.976,0.7789999842643738,0.00700584506498129
193.189655,,0.00028575844025283093,193.439,0.7480000257492065,-0.060727435894640976
193.655172,,0.000331035079061826,193.907,0.7990000247955322,0.05017258151616655
194.12069000000002,,0.00037706350874279905,194.369,0.7680000066757202,-0.017584965488427456
194.586207,,0.00042370456661099636,194.837,0.7870000004768372,0.023588741469484916
195.051724,,0.00047081011055984595,195.299,0.7860000133514404,0.021195158594468466
195.517241,,0.000518223099004831,195.766,0.7850000262260437,0.018813956889632933
195.98275900000002,,0.0005657777022750227,196.229,0.7620000243186951,-0.03147979033585712
196.448276,,0.0006132994461720296,196.695,0.7870000004768372,0.022824115427027707
196.913793,,0.0006606053882808317,197.162,0.8379999995231628,0.1338013060717884
197.37931,,0.0007075043276439457,197.627,0.7820000052452087,0.01169606640329051
197.844828,,0.00075379704850403,198.092,0.7820000052452087,0.01162922455580807
198.310345,,0.0007992765986193734,198.558,0.7649999856948853,-0.025440984751182096
198.775862,,0.0008437286020705491,199.025,0.7649999856948853,-0.02544107857658297
199.241379,,0.0008869316061747782,199.49,0.8080000281333923,0.06827332558409646
199.706897,,0.0009286574628295018,199.951,0.7639999985694885,-0.027523627736574054
200.172414,,0.0009686717455173765,200.42,0.7850000262260437,0.018319678908360688
200.63793099999998,,0.0010067342021978826,200.881,0.7950000166893005,0.040222179085975966
201.103448,,0.001042599241339604,201.35,0.765999972820282,-0.02282238116989308
201.568966,,0.0010760164477421643,201.814,0.7820000052452087,0.01218737703289531
202.034483,,0.0011067311301080317,202.276,0.7630000114440918,-0.029046101953113503
202.5,,0.0011344849074809075,202.742,0.7900000214576721,0.029942728647681476
202.965517,,0.0011590163345270607,203.207,0.7829999923706055,0.01485721490623672
203.431034,,0.0011800615489978247,203.673,0.7620000243186951,-0.03073454828121676
203.896552,,0.0011973549257765926,204.139,0.7820000052452087,0.012987745906209425
204.36206900000002,,0.0012106297566257388,204.605,0.7680000066757202,-0.01737845455151446
204.827586,,0.001219618999895095,205.069,0.7639999985694885,-0.025976366750790757
205.293103,,0.001224056092780571,205.535,0.7820000052452087,0.013334999042883407
205.758621,,0.0012236757254399373,206.003,0.7870000004768372,0.02430155257666241
206.224138,,0.0012182145077613248,206.461,0.7870000004768372,0.024351815612741225
206.689655,,0.001207411676156702,206.925,0.7990000247955322,0.05052269962283687
207.155172,,0.0011910100954177414,207.394,0.7599999904632568,-0.034440935569215035
207.62069,,0.001168757450877307,207.858,0.7820000052452087,0.013469946595031704
208.086207,,0.0011404070173959137,208.321,0.7630000114440918,-0.02796567904103313
208.551724,,0.001105717725393441,208.786,0.7820000052452087,0.013367722094352264
209.01724099999998,,0.0010644545560900924,209.249,0.765999972820282,-0.02156850727881118
209.482759,,0.0010163906581746257,209.715,0.7870000004768372,0.024091827986275204
209.948276,,0.0009613101673619188,210.18,0.7860000133514404,0.021812113405620094
210.413793,,0.0008990080466439497,210.646,0.7649999856948853,-0.024046934065686358
210.87930999999998,,0.0008292860971489672,211.11,0.7630000114440918,-0.028515110208142656
211.344828,,0.0007519520256059161,211.576,0.7820000052452087,0.012768046932379115
211.810345,,0.0006668288016792178,212.043,0.7910000085830688,0.032268643657728115
212.27586200000002,,0.0005737659079520503,212.509,0.765999972820282,-0.022297787925031398
212.741379,,0.00047263090285896726,212.969,0.7860000133514404,0.021184494112319825
213.206897,,0.00036328134147467245,213.439,0.7820000052452087,0.012390773023539903
213.672414,,0.0002455614552313155,213.903,0.7720000147819519,-0.009461438738969468
214.137931,,0.00011935890842141897,214.365,0.7910000085830688,0.031881528819737125
214.60344800000001,,1.5341503691823847e-05,214.829,0.7630000114440918,-0.029157032144925658
215.068966,,0.00015853020784524307,215.298,0.7860000133514404,0.020930281439060637
215.534483,,0.0003103395528195291,215.764,0.7699999809265137,-0.01393540956636185
216.0,,0.0004710266702836583,216.228,0.7570000290870667,-0.042251838749179566
216.465517,,0.0006406157890603718,216.693,0.7649999856948853,-0.024805516258887363
216.93103399999998,,0.0008186470273552567,217.158,0.7720000147819519,-0.009527608598014811
217.39655199999999,,0.0010047104865597944,217.623,0.7870000004768372,0.02318855805794426
217.862069,,0.001199387948315607,218.088,0.7390000224113464,-0.08134289934042227
218.327586,,0.0014039050621108347,218.554,0.765999972820282,-0.022471446087728688
218.793103,,0.0016179169027389678,219.018,0.7699999809265137,-0.013705988854142577
219.25862099999998,,0.0018384562314419212,219.484,0.7870000004768372,0.023384084095621788
219.724138,,0.0020636476387398475,219.947,0.7649999856948853,-0.02449230598496347
220.18965500000002,,0.0022978327149618906,220.41,0.7760000228881836,-0.0004739038693770646
220.65517200000002,,0.0025480210754026313,220.88,0.7860000133514404,0.02136399754113346
221.12069,,0.002810520830506045,221.343,0.7590000033378601,-0.03741078828139992
221.586207,,0.003067571683294386,221.806,0.7839999794960022,0.017100356717621508
222.051724,,0.0033121507049706255,222.269,0.7639999985694885,-0.02643191256064041
222.517241,,0.0035746833822199848,222.734,0.8339999914169312,0.12611059698518648
222.98275900000002,,0.0038933445222055626,223.199,0.7730000019073486,-0.006752590489824997
223.448276,,0.004235443989605418,223.664,0.7820000052452087,0.01288602426223395
223.913793,,0.004495787374409396,224.136,0.7590000033378601,-0.03719707564608862
224.37931,,0.004657020103506294,224.594,0.7639999985694885,-0.026283471650064318
224.844828,,0.004920895056232084,225.061,0.765999972820282,-0.021911346036654213
225.31034499999998,,0.005483234332183326,225.527,0.765999972820282,-0.021901476637586924
225.775862,,0.0060844320127061745,225.999,0.7879999876022339,0.026034516855882033
226.241379,,0.006113899164886188,226.458,0.7720000147819519,-0.008821416002873212
226.706897,,0.005619856327626394,226.926,0.7730000019073486,-0.006643511433600795
227.172414,,0.005906600895881037,227.388,0.7680000066757202,-0.017540654581715717
227.63793099999998,,0.007934556097605093,227.851,0.7870000004768372,0.023846975095982034
228.103448,,0.009725435107975359,228.314,0.7699999809265137,-0.013199141944943484
228.56896600000002,,0.007160875165207073,228.779,0.7860000133514404,0.02164799587781236
229.03448300000002,,0.0007555141252972555,229.249,0.8270000219345093,0.11096002298154778
229.5,,0.008841614420706646,229.715,0.7850000262260437,0.0194437138103078
229.965517,,0.010772632651376401,230.176,0.7860000133514404,0.021607682584442706
230.431034,,0.006494534311021527,230.642,0.7730000019073486,-0.0067325040315374006
230.896552,,0.0017523469867210925,231.11,0.7689999938011169,-0.01546892599399543
231.362069,,0.0007299731287124651,231.576,0.7820000052452087,0.012827103322647193
231.827586,,0.00214819601050672,232.04,0.7850000262260437,0.01933224168250701
232.293103,,0.0027703389196337062,232.506,0.7599999904632568,-0.03516956195949301
232.758621,,0.0019726684575631336,232.969,0.7860000133514404,0.021434924757965844
233.224138,,0.0015701757960432132,233.431,0.7710000276565552,-0.011289624456917417
233.689655,,0.002655382015392492,233.899,0.765999972820282,-0.02223182380877032
234.155172,,0.00426572876312996,234.362,0.777999997138977,0.003859791919414116
234.62069,,0.004974332438382452,234.825,0.765999972820282,-0.022338429298566973
235.086207,,0.004597906792518946,235.295,0.7599999904632568,-0.03546578621587396
235.55172399999998,,0.0038904624694225446,235.761,0.7680000066757202,-0.01809187951631307
236.01724099999998,,0.003237395717746178,236.22,0.7860000133514404,0.021071004860601886
236.482759,,0.002382036099781881,236.686,0.7620000243186951,-0.031264566075737514
236.94827600000002,,0.0011956043820005786,237.151,0.8650000095367432,0.19309637506602198
237.413793,,6.46595616266337e-05,237.616,0.7860000133514404,0.020955049881612498
237.87931,,0.0012277147266815305,238.081,0.7820000052452087,0.012224641742355774
238.344828,,0.0021127113158669166,238.547,0.7739999890327454,-0.0052087274935521816
238.810345,,0.001953464031934578,239.015,0.8259999752044678,0.10809001715980734
239.27586200000002,,2.8007207270923113e-05,239.481,0.7870000004768372,0.023146529674642508
239.741379,,0.00315744814862954,239.944,0.8550000190734863,0.171334123102653
240.206897,,0.005382045050637779,240.406,0.7839999794960022,0.01670499737900773
240.672414,,0.005370938617664624,240.869,0.5339999794960022,-0.5278936837123962
241.137931,,0.003966123823821789,241.339,0.7620000243186951,-0.031096990425735698
241.603448,,0.0030582665844150077,241.803,0.7850000262260437,0.019080700971548806
242.068966,,0.0033491866438763026,242.265,0.7639999985694885,-0.02659441016461051
242.534483,,0.0037125121444540137,242.731,0.7820000052452087,0.01270427305551575
243.0,,0.002814362344128119,243.196,0.7879999876022339,0.025864171221753635
243.465517,,0.0009425490321792852,243.661,0.7649999856948853,-0.024153584555445227
243.93103399999998,,0.0003086778555555055,244.128,0.7850000262260437,0.01951110369563502
244.39655199999999,,8.345140749697018e-05,244.594,0.7620000243186951,-0.03050843047267117
244.862069,,0.00080954282896476,245.058,0.7649999856948853,-0.023888467927527635
245.327586,,0.001346864136437362,245.524,0.7839999794960022,0.017582003631497894
245.793103,,0.0018320832804630022,245.984,0.7649999856948853,-0.023746329544858655
246.258621,,0.0031037269149538286,246.454,0.75,-0.056373338304052965
246.724138,,0.004586253214196078,246.914,0.7789999842643738,0.006844250912491736
247.18965500000002,,0.004377664150400589,247.384,0.765999972820282,-0.02145863589290877
247.655172,,0.0017543022811430616,247.847,0.7609999775886536,-0.03235100941808259
248.12069,,0.0013923907175979887,248.31,0.7929999828338623,0.037347116371459196
248.586207,,0.0025815087890536225,248.775,0.7850000262260437,0.019880342338096928
249.051724,,0.0015694811679943018,249.245,0.7829999923706055,0.015466623323676158
249.517241,,4.108000921864514e-05,249.711,0.7789999842643738,0.006677307481310008
249.982759,,0.0009781942775840382,250.17,0.7620000243186951,-0.030452016104401125
250.44827600000002,,0.0019157274970715058,250.635,0.8050000071525574,0.06312169362739353
250.913793,,0.0028973330497987218,251.1,0.7820000052452087,0.012892001157612578
251.37931000000003,,0.002770666289664385,251.566,0.7850000262260437,0.01929748074846789
251.844828,,0.0007119460329346416,252.032,0.7870000004768372,0.023517414620055365
252.31034499999998,,0.0020372423117228306,252.498,0.7480000257492065,-0.06159095101362022
252.77586200000002,,0.0031370289445447883,252.966,0.7620000243186951,-0.031232012113891088
253.241379,,0.0017617034252524614,253.428,0.7770000100135803,0.0013087426610197067
253.706897,,0.0005796606826835914,253.891,0.7620000243186951,-0.03150187521133823
254.172414,,0.0019464572711418314,254.354,0.7879999876022339,0.02502454186588372
254.63793099999998,,0.0018596975414690777,254.825,0.7870000004768372,0.022744837648033506
255.10344800000001,,0.0008660867263191763,255.288,0.8259999752044678,0.10763323599894126
255.56896600000002,,0.0008833070771871126,255.754,0.777999997138977,0.00300518557790418
256.03448299999997,,0.003405195216536135,256.217,0.7639999985694885,-0.0275217718869055
256.5,,0.005447677474309416,256.682,0.7990000247955322,0.04873315191492024
256.965517,,0.004843727731559398,257.147,0.7870000004768372,0.02262122795065113
257.431034,,0.0012592948744594534,257.613,0.7609999775886536,-0.033962227584769925
257.896552,,0.0022344241703912164,258.081,0.7730000019073486,-0.007729166658886795
258.362069,,0.0017831710255355945,258.539,0.746999979019165,-0.06425934883233679
258.827586,,0.0028529176295907133,259.004,0.7639999985694885,-0.02708490472757146
259.29310300000003,,0.007632098423022425,259.469,0.7820000052452087,0.012288051550976474
259.758621,,0.00857997364702351,259.939,0.7710000276565552,-0.01150300932205689
260.224138,,0.005933702699459803,260.402,0.7799999713897705,0.008291070973981199
260.689655,,0.0030651731098750344,260.87,0.7870000004768372,0.02373555031776125
261.155172,,0.0021104285073665478,261.332,0.7649999856948853,-0.023998856388564426
261.62068999999997,,0.00221049830442717,261.803,0.7680000066757202,-0.01727130581087518
262.086207,,0.001918610283804135,262.265,0.8040000200271606,0.06134186416091286
262.551724,,0.0015048087583846201,262.724,0.777999997138977,0.004864115165834454
263.017241,,0.001990858834024221,263.192,0.7820000052452087,0.013725609205173227
263.482759,,0.0031762680946497996,263.658,0.7649999856948853,-0.023190621282632665
263.94827599999996,,0.00398128984471454,264.125,0.7630000114440918,-0.02745808996232562
264.413793,,0.004192519276628814,264.59,0.7820000052452087,0.013991267739048973
264.87931,,0.004523765504436222,265.055,0.781000018119812,0.011830934970526646
265.34482799999995,,0.004976071645526505,265.521,0.7839999794960022,0.01834708576958793
265.810345,,0.004302997573209823,265.984,0.7829999923706055,0.016110293185132456
266.27586199999996,,0.0015344753158581562,266.446,0.7760000228881836,0.0007636825569845946
266.741379,,0.00257445055584024,266.914,0.7760000228881836,0.0006310846360113032
267.206897,,0.0058817033038546076,267.376,0.7620000243186951,-0.030036516538408924
267.672414,,0.006390850630367584,267.84,0.7850000262260437,0.019875968099937778
268.137931,,0.003862402707782206,268.31,0.7829999923706055,0.015297885463560264
268.603448,,0.0005250073315689564,268.776,0.7630000114440918,-0.028514043062330487
269.06896600000005,,0.0005159838900695702,269.238,0.7889999747276306,0.027879924400217818
269.53448299999997,,0.0014711642688189429,269.704,0.7839999794960022,0.016731792147345884
270.0,,0.003997767560272146,270.17,0.7649999856948853,-0.024913952369572355
270.465517,,0.004768812913602764,270.635,0.7870000004768372,0.02277570759115515
270.931034,,0.004697269657512169,271.095,0.7630000114440918,-0.029734155022780463
271.396552,,0.005893927585645564,271.56,0.7879999876022339,0.02453525798981269
271.86206899999996,,0.0077689475145388525,272.025,0.7839999794960022,0.015656443376028152
272.327586,,0.00748391375310236,272.49,0.7739999890327454,-0.006255750320572164
272.793103,,0.004270057171987884,272.954,0.7889999747276306,0.026341282864452843
273.258621,,0.0011984784938051814,273.425,0.7910000085830688,0.030662970990070933
273.724138,,0.001661455371801271,273.887,0.765999972820282,-0.023789981345668294
274.18965499999996,,0.0051569031331795195,274.35,0.7910000085830688,0.030738996284416523
274.655172,,0.0077132217121688015,274.814,0.7699999809265137,-0.014901433215096297
275.12069,,0.00629524455250155,275.284,0.7570000290870667,-0.04306676422102825
275.586207,,0.001968497153246275,275.749,0.9110000133514404,0.2926461889701737
276.051724,,0.0015397441763077,276.214,0.7910000085830688,0.03145132724026873
276.517241,,0.00199443178575386,276.68,0.7450000047683716,-0.06849065560815734
276.98275900000004,,0.000910467679634775,277.14,0.7799999713897705,0.008059449907659702
277.448276,,0.0015710884965378703,277.605,0.7570000290870667,-0.04173906703376669
277.913793,,0.005161949383650498,278.069,0.7820000052452087,0.013041225537120983
278.37931,,0.009407301400016138,278.535,0.7620000243186951,-0.030223185274835897
278.844828,,0.011053491802479441,278.999,0.7630000114440918,-0.027751391567684143
279.31034500000004,,0.009143401071796434,279.465,0.7860000133514404,0.022626260288322
279.77586199999996,,0.005589713179800913,279.929,0.765999972820282,-0.020710633078962776
280.241379,,0.002971093268829642,280.398,0.7870000004768372,0.025237049751415778
280.706897,,0.002269396747194713,280.862,0.7860000133514404,0.023207986125857165
281.172414,,0.0027612138128788916,281.324,0.7720000147819519,-0.007195214828575943
281.637931,,0.0035761134166964552,281.79,0.7870000004768372,0.025526587663872974
282.10344799999996,,0.004600147098938318,282.254,0.7720000147819519,-0.0071690148968406135
282.568966,,0.005688670979043472,282.72,0.7860000133514404,0.02325768200178196
283.034483,,0.005850770631994783,283.188,0.7870000004768372,0.025304974928157233
283.5,,0.004082092284631092,283.654,0.765999972820282,-0.020632031364472798
283.965517,,0.0008103795574105038,284.121,0.765999972820282,-0.02086734650006078
284.431034,,0.002168737250997518,284.579,0.7649999856948853,-0.023325323907863918
284.89655200000004,,0.00327838968179785,285.044,0.7590000033378601,-0.036712872134011365
285.362069,,0.0023382236799101472,285.509,0.7789999842643738,0.006517304013606088
285.827586,,0.0002834789737164154,285.98,0.7749999761581421,-0.002556462605901438
286.293103,,0.001621183351224258,286.443,0.75,-0.05738761944503998
286.758621,,0.0021066940175393373,286.91,0.8370000123977661,0.1317958646047809
287.22413800000004,,0.0003705795565341883,287.372,0.7630000114440918,-0.029764714764017795
287.689655,,0.002853553397092762,287.836,0.7580000162124634,-0.04097052783598839
288.155172,,0.005120840533537006,288.299,0.7599999904632568,-0.03688945041549532
288.62069,,0.004252744861792656,288.764,0.7749999761581421,-0.0044401838363102445
289.086207,,0.0006928188272035166,289.235,0.9210000038146973,0.3134690726289446
289.55172400000004,,0.0026958560469614525,289.694,0.7670000195503235,-0.022150672076954276
290.01724099999996,,0.003372621092955919,290.165,0.7710000276565552,-0.01347700385778364
290.482759,,0.00128237453053372,290.631,0.7850000262260437,0.01704946553562402
290.948276,,0.0017105181939698773,291.096,0.7839999794960022,0.014962956891997321
291.413793,,0.0038012319210514343,291.554,0.7879999876022339,0.023834878146772667
291.87931,,0.004276216087382584,292.025,0.7870000004768372,0.021874624628276235
292.344828,,0.0034224966175271706,292.491,0.7649999856948853,-0.025782674469592697
292.81034500000004,,0.0023069803879166868,292.951,0.7200000286102295,-0.1235035857331226
293.275862,,0.002170919356213773,293.42,0.7820000052452087,0.011925899313004957
293.74137900000005,,0.003189347035245654,293.884,0.7689999938011169,-0.01601726265903941
294.206897,,0.004132256163340092,294.347,0.7850000262260437,0.01923633502874718
294.672414,,0.0038731315820082174,294.814,0.7990000247955322,0.050137256076879445
295.13793100000004,,0.002810755968572211,295.276,1.0470000505447388,0.5908402494923297
295.603448,,0.0021624002694803743,295.742,0.7689999938011169,-0.014436330105512159
296.068966,,0.002277172491553595,296.207,0.7870000004768372,0.02513964283265471
296.534483,,0.0024240024833952424,296.673,0.7820000052452087,0.014562437554702653
297.0,,0.002024023960938733,297.14,0.7839999794960022,0.019181032489401256
297.46551700000003,,0.001277005228900459,297.605,0.7649999856948853,-0.02201601351570757
297.931034,,0.0005624758818513892,298.069,0.7620000243186951,-0.028426502900727707
298.396552,,6.004745392339879e-05,298.535,0.8159999847412109,0.08926960630235721
298.862069,,0.0006056494913363621,299.003,0.578000009059906,-0.4292809461005197
299.327586,,0.000890084594043343,299.461,0.781000018119812,0.012867599057101385
299.79310300000003,,0.0006080042757552531,299.925,0.7689999938011169,-0.013472763224028003
300.258621,,0.00045240505895087046,300.395,0.777999997138977,0.005868500202000524
300.724138,,0.0020537611612599935,300.858,0.7839999794960022,0.01861187191994373
301.189655,,0.003299460469676451,301.32,0.7599999904632568,-0.03405615788381955
301.65517200000005,,0.0032375454498227603,301.786,0.7879999876022339,0.026524984606662215
302.12069,,0.0018275627419907323,302.249,0.7789999842643738,0.006469044454094136
302.586207,,0.0001055053874439045,302.714,0.765999972820282,-0.0223146086709091
303.05172400000004,,0.0018385591537793942,303.18,0.7839999794960022,0.016441019734108615
303.517241,,0.003054439089815738,303.646,0.7649999856948853,-0.025397577481869587
303.982759,,0.0032810870057531864,304.111,0.765999972820282,-0.02363357291970591
304.448276,,0.002060193804097064,304.576,0.7889999747276306,0.026103909795563096
304.913793,,5.992795806865838e-05,305.041,0.7900000214576721,0.027967395515311858
305.37931000000003,,0.0009665230835297951,305.506,0.7820000052452087,0.010289826933739718
305.844828,,0.00014363124547749165,305.969,0.7839999794960022,0.01447376165408438
306.310345,,0.0012876688582754087,306.439,0.765999972820282,-0.024834612935527946
306.775862,,0.0016323841394875868,306.903,0.7799999713897705,0.005657556612695841
307.241379,,0.0010853070510092756,307.365,0.7680000066757202,-0.020410478700221873
307.70689699999997,,0.0012109045013694274,307.829,0.8730000257492065,0.2085079895942222
308.172414,,0.0023135683011364515,308.298,0.7870000004768372,0.02138650077989073
308.637931,,0.0026881743183793222,308.764,0.7599999904632568,-0.03712151617503479
309.103448,,0.0008640672128722699,309.228,0.7820000052452087,0.011185598222600448
309.568966,,0.0023335317380204323,309.694,0.7210000157356262,-0.12128638835569905
310.034483,,0.004538451753234039,310.159,0.7940000295639038,0.03821570247876729
310.5,,0.00432019589427124,310.624,0.7850000262260437,0.01909065905070776
310.96551700000003,,0.002546775089454145,311.084,0.8199999928474426,0.09583481680329238
311.431034,,0.001204709418873678,311.55,0.781000018119812,0.011352650856986203
311.896552,,0.000915390012266392,312.017,0.7829999923706055,0.01617236593328413
312.362069,,9.40346235625184e-05,312.483,0.765999972820282,-0.020440689264586333
312.827586,,0.00284348580443995,312.944,0.7680000066757202,-0.01571201534495574
313.29310300000003,,0.006811867538997301,313.414,0.7839999794960022,0.019452846379875027
313.758621,,0.008626135212127127,313.877,0.6949999928474426,-0.17421626629620987
314.224138,,0.006395720392772215,314.339,0.7900000214576721,0.03290126989226831
314.689655,,0.001651947390020021,314.81,0.7839999794960022,0.019887032554997575
315.155172,,0.0020679914878479855,315.273,0.7699999809265137,-0.010645250631763394
315.62068999999997,,0.0024265355241243473,315.738,0.8109999895095825,0.07855997630425515
316.086207,,0.0002511534577642282,316.203,0.7839999794960022,0.0195329407163895
316.551724,,0.001397909094773146,316.668,0.7889999747276306,0.030144475878406397
317.017241,,0.000319381823893274,317.133,0.777999997138977,0.005827414638471257
317.482759,,0.0026397243339895044,317.599,0.7699999809265137,-0.012013804992237725
317.94827599999996,,0.00481287703715109,318.059,0.7850000262260437,0.020206452583821814
318.413793,,0.004806607120716771,318.524,0.765999972820282,-0.0216808860683637
318.87931000000003,,0.003585476539306614,318.999,0.7870000004768372,0.023559929771509256
319.344828,,0.002727732909214222,319.458,0.7870000004768372,0.023047492525177394
319.810345,,0.002695974459110985,319.926,0.7730000019073486,-0.007951330995956362
320.275862,,0.0029790945094665734,320.388,0.7680000066757202,-0.019312481581159086
320.741379,,0.0029520591108789093,320.851,0.7829999923706055,0.012943854137041348
321.20689699999997,,0.002094981554034191,321.321,0.8550000190734863,0.16944321367280038
321.672414,,1.996354834881276e-05,321.779,0.7860000133514404,0.018826285397123083
322.137931,,0.0032766259334160875,322.249,0.8029999732971191,0.055654911568822726
322.603448,,0.006642146803256511,322.715,0.7870000004768372,0.020675903470101245
323.068966,,0.008692700072095582,323.18,0.7820000052452087,0.009753313864464564
323.53448299999997,,0.008617489039949015,323.645,0.7620000243186951,-0.03375731821474542
324.0,,0.0066413707955834175,324.11,0.7699999809265137,-0.016176586669572626
324.465517,,0.003735220712752293,324.576,0.7820000052452087,0.010203939707372444
324.931034,,0.0011861239180255556,325.04,0.7850000262260437,0.01705525208855682
325.396552,,8.351915329605445e-05,325.505,0.7850000262260437,0.017440000515634192
325.86206899999996,,0.00061732272969702,325.966,0.7870000004768372,0.022239763197094548
326.327586,,0.0018736784262258922,326.436,0.8370000123977661,0.13165994352475122
326.793103,,0.0026750104167292967,326.899,0.765999972820282,-0.022505901836358307
327.258621,,0.0025464599310552564,327.362,0.7860000133514404,0.021598636535763938
327.724138,,0.0016331216146888805,327.825,0.7620000243186951,-0.03016200729941686
328.189655,,0.0001243783788571391,328.295,0.7839999794960022,0.01827387729788506
328.655172,,0.0015276399785943225,328.761,0.7620000243186951,-0.02918778432371452
329.12068999999997,,0.002099316402087529,329.22,0.7870000004768372,0.025695008334713915
329.586207,,0.00046608407873107615,329.686,0.7519999742507935,-0.050206395969812
330.051724,,0.0025528870856889817,330.15,0.7620000243186951,-0.028145485489301524
330.517241,,0.004175968744648746,330.616,0.7860000133514404,0.024330719279082976
330.982759,,0.0025646655199848324,331.081,0.7850000262260437,0.022250066179656094
331.44827599999996,,0.0005852005262205753,331.547,0.7620000243186951,-0.02785486589250536
331.913793,,0.0016315009219987668,332.014,0.7580000162124634,-0.03666073364906956
332.37931,,0.0004943130908357263,332.48,0.7680000066757202,-0.015058509482295108
332.844828,,0.00249331571921438,332.94,0.7620000243186951,-0.028401821446657687
333.310345,,0.00041135377679051303,333.41,0.7839999794960022,0.019178438730913232
333.77586199999996,,0.005438613693634279,333.873,0.7699999809265137,-0.011739747954943772
334.241379,,0.01047404276485295,334.335,0.7870000004768372,0.024826229367164478
334.706897,,0.010696365583098872,334.806,0.7820000052452087,0.013422842217953075
335.17241399999995,,0.00641945166029228,335.269,0.7630000114440918,-0.028504999359303635
335.637931,,0.0010641730060312483,335.735,0.7839999794960022,0.01670592153929164
336.103448,,0.0024471201369309346,336.195,0.7749999761581421,-0.0034325249677351196
336.56896600000005,,0.0035896501776810498,336.66,0.7870000004768372,0.022207671781788545
337.034483,,0.0036853488027136904,337.126,0.7789999842643738,0.004317671542025407
337.5,,0.004203183274490165,337.592,0.9039999842643738,0.2762476552992092
337.965517,,0.005073603023188036,338.058,0.7649999856948853,-0.02691168825769575
338.431034,,0.004577532134942164,338.524,0.7730000019073486,-0.00972807856773555
338.89655200000004,,0.001583653879722799,338.984,0.7620000243186951,-0.033852264589934136
339.36206899999996,,0.0023346411852662647,339.454,0.7680000066757202,-0.020848237167796477
339.827586,,0.004116841883713948,339.917,0.7929999828338623,0.03364395172829216
340.293103,,0.0026186108703018978,340.38,0.7829999923706055,0.011977388570686132
340.758621,,0.0002101577287152165,340.848,0.7229999899864197,-0.11853250536983496
341.224138,,0.0017387708094378485,341.31,0.7649999856948853,-0.026739120565742014
341.68965499999996,,0.0013244253212578035,341.776,0.7860000133514404,0.019375703637893652
342.155172,,0.0002555735097863072,342.246,0.7870000004768372,0.02198092842869424
342.62069,,0.00015300221022382173,342.704,0.7850000262260437,0.018101063672207457
343.086207,,0.0001101226883969931,343.169,0.7860000133514404,0.020793108940807242
343.551724,,6.447057649512095e-05,343.635,0.765999972820282,-0.02224670200414029
344.01724099999996,,0.001648586428392296,344.1,0.7670000195503235,-0.01953202935983709
344.48275900000004,,0.004182694048113346,344.565,0.7820000052452087,0.013669650118879694
344.948276,,0.005915118842683327,345.032,0.7950000166893005,0.04248483606172499
345.413793,,0.005667211894705529,345.498,0.781000018119812,0.012432479283014077
345.87931,,0.004262602570197275,345.966,0.7820000052452087,0.015001652134302709
346.344828,,0.0034918412213280512,346.428,0.7670000195503235,-0.017358343957507127
346.81034500000004,,0.003934474171407128,346.896,0.7680000066757202,-0.014941358040745353
347.275862,,0.004550184584502875,347.358,0.7870000004768372,0.026602628167469645
347.741379,,0.004315239870890554,347.821,0.7580000162124634,-0.03652173606890767
348.206897,,0.0034295203031211785,348.291,0.7839999794960022,0.020084177853179477
348.672414,,0.002634362852707518,348.749,0.7839999794960022,0.019951523063343055
349.13793100000004,,0.0020537385481334703,349.221,0.7630000114440918,-0.026022354603961045
349.60344799999996,,0.0013941798598239975,349.679,0.7680000066757202,-0.015434992202271739
350.068966,,0.0008756465991772821,350.15,0.6899999976158142,-0.18575135033569906
350.534483,,0.0010156432810627801,350.616,0.7839999794960022,0.018594868614333702
351.0,,0.0015476105332768225,351.074,0.7850000262260437,0.020277782232589116
351.465517,,0.0015164355095956385,351.539,0.7789999842643738,0.006678062518750664
351.93103399999995,,0.0005927152443122544,352.004,0.7649999856948853,-0.024366651185021314
352.396552,,0.0006283109560689105,352.469,0.7839999794960022,0.016484823935164546
352.862069,,0.001846462941010944,352.939,0.7609999775886536,-0.03414922838140896
353.32758600000005,,0.003475778290934402,353.402,0.7870000004768372,0.022004678941496627
353.793103,,0.005274226386918558,353.865,0.7699999809265137,-0.015473786939692613
354.258621,,0.005703357925005342,354.335,0.7620000243186951,-0.033281166305497045
354.72413800000004,,0.0038190710317705322,354.794,0.7559999823570251,-0.046657248194657205
355.189655,,0.001120441972162828,355.26,0.7839999794960022,0.014124683380638237
355.655172,,0.00021396133627722848,355.725,0.7850000262260437,0.016174926234836316
356.12069,,0.0018068842000251559,356.192,0.7990000247955322,0.046644116514632655
356.586207,,0.003962835659603347,356.657,0.7860000133514404,0.018387678765453823
357.05172400000004,,0.004263126698314843,357.121,0.7820000052452087,0.009834631912922392
357.517241,,0.0021071050769527018,357.587,0.7630000114440918,-0.03130842506755841
357.982759,,0.0009470940027220938,358.054,0.765999972820282,-0.024440230551847512
358.448276,,0.0025948540597500666,358.52,0.7979999780654907,0.045679889357702994
358.913793,,0.001563167040308737,358.98,0.7620000243186951,-0.03228909740147966
359.37931000000003,,0.0015845838941372582,359.45,0.7870000004768372,0.022683561231221238
359.844828,,0.004967063015812412,359.914,0.777999997138977,0.0036106201223321385
360.310345,,0.006541818576517917,360.376,0.7620000243186951,-0.030701285619795522
360.775862,,0.0052363847493046905,360.84,0.7839999794960022,0.017769377573126546
361.241379,,0.0017008698845329768,361.309,0.8029999732971191,0.059682203748870705
361.706897,,0.0019087103002863215,361.775,0.7820000052452087,0.014411667067516135
362.172414,,0.0034203394446210176,362.238,0.7870000004768372,0.025733025515808233
362.63793100000004,,0.002418431648507637,362.703,0.7850000262260437,0.02173729582120763
363.103448,,0.0005941867403509679,363.17,0.7630000114440918,-0.025909902938978286
363.568966,,0.00011481328573932393,363.635,0.7820000052452087,0.015679692405252688
364.034483,,0.0015013371944460616,364.095,0.765999972820282,-0.019077516501575666
364.5,,0.0031688997178835137,364.56,0.7860000133514404,0.024499691066146592
364.96551700000003,,0.003112758760732471,365.025,0.7760000228881836,0.0026203312675338953
365.431034,,0.000965897308034287,365.491,0.7910000085830688,0.03511328214895804
365.896552,,0.0017750212073047217,365.954,0.7850000262260437,0.021766873508786252
366.362069,,0.003613607755577815,366.424,0.7699999809265137,-0.01126698131636622
366.827586,,0.004734750432509528,366.884,0.7630000114440918,-0.026940703288107787
367.29310300000003,,0.006203932707070563,367.354,0.7860000133514404,0.022688886426748572
367.758621,,0.007725067501573946,367.817,0.7730000019073486,-0.006153521681772514
368.224138,,0.007403601138585191,368.28,0.7730000019073486,-0.006697807235694565
368.689655,,0.0042884564826262935,368.746,0.765999972820282,-0.02250032646389158
369.155172,,0.00019744461339711724,369.211,0.7710000276565552,-0.012149308611766874
369.62068999999997,,0.0019724382994363555,369.676,0.7850000262260437,0.017836399386793857
370.086207,,0.0014331314562853082,370.143,0.7789999842643738,0.004292772004116036
370.55172400000004,,0.00018128151945917385,370.609,0.765999972820282,-0.024442904030436908
371.017241,,0.0004934352366882531,371.069,0.7879999876022339,0.02314551548804274
371.482759,,0.002404553341656373,371.535,0.75,-0.05990299403760478
371.948276,,0.0039037445478160905,371.999,0.777999997138977,0.0009291428228772017
372.413793,,0.0032008003898859375,372.465,0.765999972820282,-0.025289305761124398
372.87931000000003,,0.00055895132293185,372.933,0.7699999809265137,-0.016551205677082622
373.344828,,0.0018321266541780968,373.395,0.7889999747276306,0.024964410335538787
373.810345,,0.001763506660757182,373.865,0.7789999842643738,0.0033940000129596805
374.275862,,0.0008332134916068352,374.328,0.7649999856948853,-0.026803179271794268
374.741379,,0.0036903865874682415,374.794,0.8270000219345093,0.10865592731260425
375.20689699999997,,0.004519800513655407,375.259,0.7850000262260437,0.017603635558760922
375.672414,,0.003263859386212506,375.725,0.7710000276565552,-0.012393130832097574
376.137931,,0.0017140441794996448,376.185,0.7850000262260437,0.018648677657739136
376.603448,,0.0013783426028914712,376.65,0.7580000162124634,-0.039615071409000044
377.068966,,0.0021848331482065154,377.114,0.7379999756813049,-0.08262808143231211
377.53448299999997,,0.002896212876747349,377.58,0.7739999890327454,-0.003654627248474239
378.0,,0.0023669516354885107,378.047,0.7570000290870667,-0.040183975465445554
378.465517,,0.0005882977459081269,378.513,0.7739999890327454,-0.0026895154120385976
378.931034,,0.0012435940983814052,378.977,0.6700000166893005,-0.2288775932857271
379.396552,,0.0018092451886969336,379.439,0.777999997138977,0.006727907612588854
379.862069,,0.0010122895393482056,379.91,0.7850000262260437,0.02220253406833329
380.327586,,0.0001700334027745429,380.373,0.7620000243186951,-0.02777483877502619
380.79310300000003,,0.0005381607865381569,380.836,0.7900000214576721,0.033262219762131534
381.258621,,0.0015727570063844543,381.299,0.7689999938011169,-0.012552050290127043
381.724138,,0.0011993355808865812,381.764,0.7850000262260437,0.022148424913525578
382.189655,,0.0016630074840302852,382.236,0.902999997138977,0.2789829609920625
382.655172,,0.005202656538097662,382.694,0.7580000162124634,-0.03724555083461714
383.12068999999997,,0.006195569180405621,383.159,0.7620000243186951,-0.02892696088261141
383.586207,,0.0035668454012128463,383.625,0.7839999794960022,0.01854555422418791
384.051724,,0.000234142540312544,384.091,0.7630000114440918,-0.027710768327358158
384.517241,,0.0019237148996300863,384.557,0.7829999923706055,0.015325867808840533
384.982759,,0.0009110578769658691,385.022,0.7829999923706055,0.014774911071080012
385.44827599999996,,0.0006360784240394215,385.487,0.765999972820282,-0.02281069941895759
385.913793,,0.0008427120373079034,385.951,0.7749999761581421,-0.003732454383745438
386.37931,,4.700642002470076e-05,386.42,0.8199999928474426,0.09381339144397441
386.84482799999995,,0.0004467062120442546,386.881,0.7739999890327454,-0.00684539510644811
387.310345,,0.00033071389699249087,387.35,0.7829999923706055,0.012386986923721324
387.775862,,0.00031706368486382095,387.811,0.7789999842643738,0.0033733882022444327
388.241379,,0.0008689279041039727,388.28,0.765999972820282,-0.02516251258890344
388.70689699999997,,0.0017153901406186686,388.746,0.7710000276565552,-0.014390835157412574
389.172414,,0.0024964563960072034,389.209,0.7739999890327454,-0.007881048788321552
389.637931,,0.0032284829856363416,389.675,0.7889999747276306,0.024869616436827613
390.103448,,0.0038502612397610944,390.14,0.7820000052452087,0.009785568103470072
390.56896600000005,,0.003725820193057647,390.606,0.7620000243186951,-0.03353083311897587
391.03448299999997,,0.002209112636630162,391.065,0.7870000004768372,0.0212737982410049
391.5,,0.000289532573885236,391.531,0.7689999938011169,-0.017531632133675323
391.965517,,0.002348394927066552,392.003,0.7639999985694885,-0.02795561776452742
392.431034,,0.00287700422164379,392.461,0.765999972820282,-0.023084993162799765
392.896552,,0.002198079022762717,392.929,0.8320000171661377,0.12124896213575252
393.36206899999996,,0.0017393551077847802,393.391,0.7839999794960022,0.01723129088425342
393.827586,,0.002667225499821544,393.859,0.7860000133514404,0.0221430804377216
394.293103,,0.0046216140095531166,394.321,0.7599999904632568,-0.03396906755124687
394.75862099999995,,0.005894835092910192,394.787,0.7860000133514404,0.023170026580402094
395.224138,,0.005287060514816187,395.25,0.7630000114440918,-0.0264986650551863
395.68965499999996,,0.003604885102704937,395.715,0.7739999890327454,-0.002161119804763992
396.155172,,0.0026489882601406257,396.18,0.7879999876022339,0.028633250951890836
396.62069,,0.00287073177071204,396.646,0.7820000052452087,0.015766942951784668
397.086207,,0.002937499128548639,397.11,0.734000027179718,-0.08869771532744397
397.551724,,0.0016759847012236834,397.576,0.7649999856948853,-0.02114919382576752
398.017241,,0.0004950970981599765,398.04,0.765999972820282,-0.019060198479575845
398.48275900000004,,0.002341712196390309,398.507,0.7739999890327454,-0.0018172252368898682
398.94827599999996,,0.003246274123551113,398.969,0.8019999861717224,0.058908623761090136
399.413793,,0.003508667199394986,399.439,0.7789999842643738,0.00844256409477151
399.87931,,0.0037773319100277286,399.902,0.7889999747276306,0.029801938723734395
400.344828,,0.004548955541714459,400.365,0.7599999904632568,-0.033863403851678006
400.810345,,0.005882879619950336,400.829,0.7820000052452087,0.013539322119842939
401.27586199999996,,0.007169944512362464,401.298,0.7870000004768372,0.023878547083357595
401.741379,,0.007258526415110908,401.764,0.7910000085830688,0.03203047431074713
402.206897,,0.0054428481493236334,402.228,0.781000018119812,0.0096900290765285
402.672414,,0.002819873034033385,402.694,0.7599999904632568,-0.03659055663941599
403.137931,,0.0020695655707616734,403.158,0.7620000243186951,-0.03272162617653903
403.60344799999996,,0.004760015891433549,403.624,0.7870000004768372,0.021311806450326605
404.068966,,0.008988276220417566,404.084,0.765999972820282,-0.024802942583056608
404.534483,,0.010900654970361062,404.55,0.7839999794960022,0.01413070258494302
405.0,,0.008696077880780842,405.015,0.7820000052452087,0.009581453884274983
405.465517,,0.004055295608952198,405.481,0.7739999890327454,-0.007943583284126029
405.931034,,0.00040772394521334143,405.951,0.7620000243186951,-0.034084395912053866
406.39655200000004,,0.003647973260084683,406.413,0.7599999904632568,-0.038340751956885334
406.862069,,0.005629162200392249,406.874,0.7710000276565552,-0.014179449154186124
407.327586,,0.005829556549170292,407.343,0.7820000052452087,0.010071502967953326
407.793103,,0.0038529339383463106,407.806,0.7720000147819519,-0.011347529595365703
408.258621,,0.0009640910430911435,408.269,0.7820000052452087,0.010876819307292996
408.72413800000004,,0.0005976761453968491,408.734,0.7630000114440918,-0.030022709406697795
409.18965499999996,,6.274139478620273e-05,409.2,0.7459999918937683,-0.06652405046253462
409.655172,,0.0012075486351309584,409.665,0.7860000133514404,0.02118201190492933
410.12069,,0.001716582296605643,410.132,0.8009999990463257,0.05443038413060585
410.586207,,0.0014445081536777573,410.598,0.7820000052452087,0.013596840861466019
411.05172400000004,,0.0011984906373315007,411.064,0.7739999890327454,-0.003297364945511835
411.51724099999996,,0.0014320304046083708,411.529,0.777999997138977,0.005909380776931556
411.982759,,0.0021551173117204995,411.992,0.7649999856948853,-0.021979367200015795
412.448276,,0.0031378620501594998,412.454,0.49399998784065247,-0.6120369759775006
412.913793,,0.0038848336555095037,412.922,0.7860000133514404,0.024391710049403683
413.37931,,0.004256701059369444,413.384,0.7839999794960022,0.020202088433674412
413.844828,,0.00519927962261804,413.854,0.7870000004768372,0.026811171203982555
414.31034500000004,,0.007670736941472178,414.317,0.7620000243186951,-0.02767891268421158
414.775862,,0.01055165609684688,414.783,0.7870000004768372,0.026666931851876775
415.241379,,0.0109276469801921,415.246,0.7689999938011169,-0.01276152352271039
415.706897,,0.007203688577312256,415.711,0.7870000004768372,0.026155783639175957
416.172414,,0.0011134179802690979,416.177,0.7870000004768372,0.025781292855446763
416.63793100000004,,0.003958378972977186,416.643,0.765999972820282,-0.020409587219502368
417.103448,,0.00593888505247795,417.11,0.7699999809265137,-0.012186199038545559
417.568966,,0.004924219704161147,417.575,0.7940000295639038,0.0395733317493712
418.034483,,0.002027779990839391,418.04,0.7950000166893005,0.04120383669407835
418.5,,0.0016688338659902224,418.506,0.7820000052452087,0.01233005574692275
418.96551700000003,,0.005280771134056832,418.969,0.7839999794960022,0.016148893492775564
419.43103399999995,,0.007925048902353493,419.431,0.7739999890327454,-0.006147332511360187
419.896552,,0.008590914211664583,419.899,0.7839999794960022,0.015173073913524158
420.362069,,0.00647775543651133,420.362,0.777999997138977,0.001692756305978704
420.827586,,0.0020292189859590698,420.829,0.7639999985694885,-0.029147405524699323
421.293103,,0.0024811308824371834,421.292,0.7860000133514404,0.018522974340820623
421.758621,,0.004435881710851383,421.758,0.765999972820282,-0.025223108013075115
422.22413800000004,,0.003431076198494306,422.221,0.7820000052452087,0.00955421810693739
422.689655,,0.0015928707017680446,422.686,0.7739999890327454,-0.007861956404133131
423.15517200000005,,0.0009493777206322758,423.15,0.7649999856948853,-0.027363315158628533
423.62069,,0.001417603716397042,423.617,0.7860000133514404,0.018584848105875486
424.086207,,0.001913699985720512,424.084,0.7020000219345093,-0.16414221195451395
424.55172400000004,,0.0022461019598259383,424.549,0.7820000052452087,0.010502420225995845
425.017241,,0.002743903188434972,425.014,0.7739999890327454,-0.006510101730354358
425.482759,,0.002823436633622363,425.48,0.7720000147819519,-0.010397923194054415
425.948276,,0.0015129003044879333,425.94,0.7760000228881836,-0.0011753021879575055
426.413793,,0.0006012079878659096,426.41,0.7860000133514404,0.021142945897333922
426.87931000000003,,0.0014061244673352173,426.873,0.7570000290870667,-0.041498212285354136
427.344828,,0.00013592496871023415,427.335,0.777999997138977,0.004784296076097732
427.810345,,0.0025126624069173897,427.803,0.7839999794960022,0.01836299066317584
428.275862,,0.003718160739382228,428.265,0.7889999747276306,0.02972462036865612
428.741379,,0.0038955554331534573,428.731,0.7990000247955322,0.05192773652699742
429.20689699999997,,0.004663228880480535,429.196,0.7839999794960022,0.01960030948137378
429.672414,,0.006389115865484258,429.662,0.7870000004768372,0.026413746113396242
430.137931,,0.007645561431430009,430.128,0.7870000004768372,0.02660770951636911
430.603448,,0.007313243612848853,430.594,0.7369999885559082,-0.08222105445262684
431.068966,,0.005911001441065879,431.059,0.7609999775886536,-0.029924619108184936
431.534483,,0.004569334233085722,431.524,0.7720000147819519,-0.006045509001029433
432.0,,0.003580567498434729,431.984,0.765999972820282,-0.019295285324971784
432.46551700000003,,0.002308638260863666,432.454,0.7919999957084656,0.03708596859019049
432.931034,,0.00015979520412644685,432.917,0.8109999895095825,0.07813983280555659
433.396552,,0.002408389633622134,433.38,0.7860000133514404,0.023267293389007553
433.862069,,0.003753742793671345,433.851,0.7820000052452087,0.014091827271159811
434.327586,,0.0023795902153549006,434.313,0.7609999775886536,-0.032162557452065935
434.79310300000003,,0.001166855027043456,434.779,0.765999972820282,-0.021799703894384067
435.258621,,0.004077271085009223,435.242,0.7699999809265137,-0.01362752379924759
435.724138,,0.0035914534574908227,435.707,0.7820000052452087,0.011978467890437378
436.189655,,0.00032048426674037605,436.173,0.777999997138977,0.0027470885847342493
436.655172,,0.0046701522581293195,436.638,0.7390000224113464,-0.08270106551398712
437.12068999999997,,0.005903188338991121,437.103,0.8529999852180481,0.16523485350289394
437.586207,,0.00303981710586857,437.569,0.7820000052452087,0.010186762839863372
438.051724,,0.001164874410753656,438.029,0.7699999809265137,-0.016245017401823793
438.517241,,0.0025237103788377053,438.495,0.7870000004768372,0.020587342670077505
438.982759,,0.00045222795760359145,438.965,0.7870000004768372,0.020472349584357907
439.448276,,0.0048540199664823935,439.428,0.8019999861717224,0.053130810497834226
439.913793,,0.006276772723898369,439.895,0.7639999985694885,-0.029584873182916544
440.37931000000003,,0.0032172541740627825,440.357,0.7870000004768372,0.02068830908805782
440.844828,,0.001741538740929748,440.821,0.7639999985694885,-0.0291703012002117
441.310345,,0.004743202314815444,441.291,0.7870000004768372,0.02126757008817926
441.775862,,0.004228993059701168,441.749,0.781000018119812,0.008593775983947945
442.241379,,0.0019682718720778905,442.221,0.7620000243186951,-0.03234535409528909
442.70689699999997,,0.0009386353931461097,442.679,0.7720000147819519,-0.010060737211277001
443.172414,,0.0021991022237261176,443.15,0.7630000114440918,-0.02914243091234217
443.637931,,0.0038168329820535297,443.616,0.7829999923706055,0.014969307787570229
444.103448,,0.003020700477644259,444.08,0.7839999794960022,0.017684007386104757
444.568966,,0.0006047358631025984,444.539,0.7850000262260437,0.020380674446462518
445.03448299999997,,0.004456121179599357,445.004,0.7770000100135803,0.0034357524605701743
445.5,,0.005704130612460908,445.47,0.7820000052452087,0.014765127735730627
445.965517,,0.004327950899278013,445.94,0.7620000243186951,-0.028433134284251572
446.431034,,0.002739023923560072,446.402,0.7770000100135803,0.004548290256410832
446.896552,,0.002647499983884072,446.865,0.7649999856948853,-0.021375795617836514
447.36206899999996,,0.00325082883140733,447.335,0.7829999923706055,0.01797135651491206
447.827586,,0.0027628561118465825,447.794,0.7639999985694885,-0.023383617821057218
448.29310300000003,,0.0009645615856550674,448.26,0.7870000004768372,0.026671462665897643
448.758621,,0.00039909409862091185,448.726,0.7739999890327454,-0.0017961928378347554
449.224138,,0.0003344572178800101,449.191,0.6700000166893005,-0.22860986373680503
449.689655,,0.0026608960828230477,449.658,0.6460000276565552,-0.2812182146416577
450.155172,,0.00413285244085923,450.125,0.7689999938011169,-0.013642577110203212
450.62068999999997,,0.0028675705271552954,450.591,0.7789999842643738,0.007684996859204689
451.086207,,0.00016188339080126405,451.054,0.753000020980835,-0.0494631391141695
451.551724,,0.0017141265660473345,451.52,0.7820000052452087,0.013185062133499929
452.017241,,0.0004058873995919389,451.984,0.765999972820282,-0.022218689790812672
452.482759,,0.004713326820567606,452.446,0.7850000262260437,0.018634642151941327
452.94827599999996,,0.007252238621072335,452.91,0.7620000243186951,-0.03199488540545846
453.413793,,0.005609370890516061,453.38,0.7630000114440918,-0.030301132810197865
453.87931,,0.0013476685867825798,453.843,0.7910000085830688,0.03026656421965798
454.344828,,0.0017397099492916968,454.306,0.7649999856948853,-0.026748910717674573
454.810345,,0.0014553252764558503,454.771,0.7910000085830688,0.029600399358864448
455.27586199999996,,0.000922874755962469,455.235,0.7620000243186951,-0.03379251569454274
455.741379,,0.0022456788058053596,455.7,0.7839999794960022,0.014014914885975081
456.206897,,0.0006033498738286145,456.165,0.7839999794960022,0.013985125055608495
456.672414,,0.0030864511468501853,456.631,0.7739999890327454,-0.007737468849771294
457.137931,,0.006137263323863848,457.096,0.7649999856948853,-0.027190691420348582
457.603448,,0.00634019296883195,457.562,0.7799999713897705,0.005729038290815357
458.06896600000005,,0.0033873088866657936,458.028,0.7820000052452087,0.010404589135621534
458.53448299999997,,0.0011805636364862863,458.494,0.7829999923706055,0.012969915468988581
459.0,,0.0050770834500208075,458.955,0.7870000004768372,0.022127863693651835
459.465517,,0.006703486147306812,459.425,0.7739999890327454,-0.00570843993996874
459.931034,,0.005951910216736567,459.887,0.7860000133514404,0.02094923063765773
460.39655200000004,,0.0037390183027643286,460.35,0.765999972820282,-0.022098271679324766
460.86206899999996,,0.0008516694511231717,460.818,0.7789999842643738,0.006745190006848591
461.327586,,0.0025140745678677067,461.28,0.7850000262260437,0.02031800591600764
461.793103,,0.00599401699470567,461.746,0.7620000243186951,-0.02932536212686743
462.258621,,0.008277797007998773,462.21,0.777999997138977,0.0059488381787623475
462.724138,,0.007841330695203803,462.676,0.7649999856948853,-0.02201992717928703
463.18965499999996,,0.004752982281372201,463.14,0.7919999957084656,0.03708502983026209
463.655172,,0.0012591560830524377,463.606,0.7820000052452087,0.015500058949820301
464.12069,,4.2991690848561255e-05,464.073,0.7889999747276306,0.03086665613211299
464.58620699999994,,0.0013487977350193335,464.54,0.7710000276565552,-0.008321578562579205
465.051724,,0.0034877155687752432,464.999,0.777999997138977,0.006866599814569577
465.517241,,0.003975383595618312,465.465,0.7599999904632568,-0.03249916674953625
465.98275900000004,,0.00205298088355361,465.932,0.7580000162124634,-0.037089871078410774
466.448276,,0.0010029942537591913,466.395,0.8019999861717224,0.05846167020448756
466.913793,,0.002955936441723847,466.865,0.777999997138977,0.005800575019968522
467.37931,,0.0022063835234313366,467.328,0.7820000052452087,0.014088735906518057
467.844828,,0.0008728632622016117,467.795,0.7699999809265137,-0.012521805211834597
468.31034500000004,,0.003920275681923088,468.26,0.7860000133514404,0.021843990265605434
468.77586199999996,,0.004349261113044394,468.726,0.7699999809265137,-0.01351794841459399
469.241379,,0.00138990180171348,469.184,0.7979999780654907,0.046985480144390225
469.706897,,0.0035064121327537195,469.65,0.7870000004768372,0.022542026617695873
470.172414,,0.007803402712822643,470.118,0.7829999923706055,0.013383863832521183
470.63793100000004,,0.009352597670703781,470.583,0.765999972820282,-0.024049378916316592
471.10344799999996,,0.007650967283094591,471.051,0.7620000243186951,-0.033101683100980495
471.568966,,0.0042136024535540505,471.509,0.7649999856948853,-0.026835764875696493
472.034483,,0.0012125780065407044,471.977,0.7689999938011169,-0.018315236611148936
472.5,,0.0005449783860159292,472.439,0.7739999890327454,-0.007534359883544454
472.965517,,0.001919323026515885,472.91,0.7839999794960022,0.014225017112280901
473.43103399999995,,0.0038488518060510674,473.373,0.7630000114440918,-0.03146780443236816
473.89655200000004,,0.006131269890173529,473.836,0.7820000052452087,0.010068752913663277
474.362069,,0.007777732143047021,474.306,0.7990000247955322,0.047327579160687416
474.827586,,0.00784252969659463,474.764,0.7870000004768372,0.021478740287287447
475.293103,,0.005735732299036945,475.235,0.7860000133514404,0.01965898851385599
475.758621,,0.001554760230232547,475.694,0.7820000052452087,0.011355598408920949
476.22413800000004,,0.0032233826465008952,476.165,0.7649999856948853,-0.025231121112019667
476.689655,,0.005919414294458227,476.624,0.7580000162124634,-0.040006814559008765
477.155172,,0.004612277184073378,477.096,0.7860000133514404,0.02147998020111339
477.62069,,0.0002280937133834545,477.554,0.7820000052452087,0.01324592204494962
478.086207,,0.003906332348977117,478.022,0.7910000085830688,0.033316246348035955
478.55172400000004,,0.005045813305658326,478.488,0.7630000114440918,-0.02725576070305797
479.01724099999996,,0.00342888849159373,478.951,0.7789999842643738,0.00798691124987134
479.482759,,0.0015819452361254067,479.42,0.7699999809265137,-0.011293993307392391
479.948276,,0.0015800618478127844,479.881,0.7889999747276306,0.030360512990198988
480.413793,,0.00328729821959767,480.35,0.7820000052452087,0.015296254525663553
480.87931000000003,,0.004918426865174677,480.814,0.7739999890327454,-0.002026124046857685
481.344828,,0.0047520899430260775,481.276,0.765999972820282,-0.019431377426948646
481.810345,,0.0023907793283101534,481.742,0.765999972820282,-0.019491116504757648
482.275862,,0.0010506132895579264,482.207,0.7630000114440918,-0.0261684677287945
482.74137900000005,,0.003746341276913262,482.673,0.7820000052452087,0.015007531511443968
483.206897,,0.004469850122627366,483.14,0.7850000262260437,0.021256078114533446
483.672414,,0.0034903799596577505,483.606,0.753000020980835,-0.048808343544077766
484.13793100000004,,0.0023081765915782294,484.065,0.7829999923706055,0.01615352423205444
484.603448,,0.002464863607852831,484.531,0.7910000085830688,0.033148302160434365
485.068966,,0.004394356150167928,485.003,0.765999972820282,-0.021775573698411335
485.534483,,0.007113284952540418,485.461,0.7710000276565552,-0.011349560045601122
486.0,,0.008955777788367978,485.925,0.7070000171661377,-0.15124748672144753
486.46551700000003,,0.00883155030600727,486.394,0.7860000133514404,0.020417770951920128
486.931034,,0.006905036300214989,486.855,0.7829999923706055,0.013465441036468784
487.396552,,0.004098581730474607,487.324,0.765999972820282,-0.02394258978493199
487.862069,,0.001205838202513011,487.79,0.781000018119812,0.008422469347461633
488.327586,,0.0013263122579532207,488.254,0.7649999856948853,-0.026685220744660863
488.79310300000003,,0.00316174554487963,488.719,0.7839999794960022,0.014532835615292304
489.258621,,0.004223127312135284,489.184,0.7770000100135803,-0.0008155478048643922
489.724138,,0.005035766837894154,489.65,0.7639999985694885,-0.029155024404412352
490.189655,,0.00629109556092836,490.114,0.7620000243186951,-0.03344885029411017
490.655172,,0.007718919104984159,490.58,0.7839999794960022,0.014623009013895072
491.12069,,0.007921822522881868,491.039,0.7860000133514404,0.019196491013906115
491.586207,,0.006102655368921897,491.505,0.765999972820282,-0.02409284233340937
492.05172400000004,,0.00370255624149384,491.973,0.7749999761581421,-0.0041431433252194375
492.517241,,0.003078928849519741,492.436,0.7839999794960022,0.01585406901999943
492.982759,,0.004104530118385322,492.899,0.7850000262260437,0.01845807367098008
493.448276,,0.003458148069257359,493.369,0.7620000243186951,-0.031203156403861055
493.913793,,0.0012384555661761121,493.829,0.7839999794960022,0.01718289736003338
494.37931000000003,,0.007375507116033956,494.298,0.7910000085830688,0.03288400224309444
494.844828,,0.00957204386297298,494.764,0.7829999923706055,0.015886573902834204
495.310345,,0.0061487762789616445,495.228,0.7739999890327454,-0.0033217523091829994
495.775862,,0.0013415516072276877,495.694,0.7580000162124634,-0.03782583362192289
496.241379,,0.00011388863235675748,496.158,0.6169999837875366,-0.34472063734370983
496.70689699999997,,0.002452235573637994,496.623,0.7680000066757202,-0.015520705149050748
497.172414,,0.004334534164611335,497.089,0.7839999794960022,0.01948743867505177
497.637931,,0.0032591291570266243,497.554,0.7850000262260437,0.021741424046333713
498.103448,,0.0007906217320807294,498.014,0.7900000214576721,0.0326340466642854
498.568966,,0.00031531271206233156,498.48,0.765999972820282,-0.019729749213751875
499.03448299999997,,0.00045153042325257053,498.951,0.7680000066757202,-0.01552188062665155
499.5,,0.0017045530548218332,499.413,0.765999972820282,-0.02009748614920873
499.96551700000003,,0.0025505480239625907,499.881,0.765999972820282,-0.02037734387870774
500.431034,,0.0031748261059847595,500.343,0.7860000133514404,0.022863561260168846
500.89655200000004,,0.003571570302888712,500.807,0.7670000195503235,-0.018904340289891762
501.362069,,0.0029898288832227965,501.269,0.7870000004768372,0.0242653286960599
501.827586,,0.0008271242269691529,501.735,0.753000020980835,-0.050229426582786806
502.293103,,0.002370464132582914,502.202,0.7649999856948853,-0.02451164146494934
502.758621,,0.004866293653026096,502.668,0.7990000247955322,0.04914483250033924
503.224138,,0.004833296719764696,503.132,0.7870000004768372,0.022605469318855834
503.68965499999996,,0.0020012578441608864,503.598,0.7789999842643738,0.004814773586953364
504.15517200000005,,0.0016455609551071148,504.062,0.7860000133514404,0.019748264276859197
504.62068999999997,,0.0032238991447974103,504.528,0.7580000162124634,-0.04151785155939376
505.08620699999994,,0.0014323983118349794,504.991,0.7649999856948853,-0.026471386510673843
505.55172400000004,,0.002140710636174134,505.461,0.7870000004768372,0.0213206732067343
506.017241,,0.0042887067795280105,505.921,0.7680000066757202,-0.020141899192901287
506.48275899999993,,0.0031389591517689487,506.384,0.7870000004768372,0.02125572804547773
506.948276,,0.00010629008445836437,506.855,0.777999997138977,0.001722231514060135
507.413793,,0.0012998429042021284,507.317,0.7630000114440918,-0.0308151874950974
507.87931,,0.0010075978805185303,507.783,0.7879999876022339,0.023856061563510805
508.344828,,0.005297374533997691,508.246,0.7480000257492065,-0.06302881469357548
508.810345,,0.007375083368239956,508.711,0.8320000171661377,0.12028681500256096
509.27586199999996,,0.004603814301371164,509.177,0.781000018119812,0.009524582781318023
509.74137900000005,,0.0013249711418639302,509.643,0.7390000224113464,-0.08160210124706124
510.20689699999997,,0.0057606503901265855,510.11,0.7720000147819519,-0.009316033174065399
510.67241399999995,,0.005446061164978892,510.576,0.7739999890327454,-0.00456555452872751
511.13793100000004,,0.0015707431804103569,511.04,0.7699999809265137,-0.012895679247298203
511.603448,,0.001638738551307127,511.505,0.7789999842643738,0.007076412389832058
512.0689659999999,,0.0013557627945731544,511.966,0.7670000195503235,-0.018734106740938256
512.534483,,0.001178977716219922,512.435,0.7870000004768372,0.02513128562519458
513.0,,0.0025840355955380097,512.899,0.7839999794960022,0.018838992902254558
513.465517,,0.00128697341273938,513.361,0.765999972820282,-0.020188760019225486
513.931034,,0.0012475937124955118,513.829,0.7620000243186951,-0.02877704183364664
514.396552,,0.0029047059125233863,514.291,0.7960000038146973,0.045358333903036854
514.862069,,0.00324496575280353,514.757,0.7860000133514404,0.02356809965501943
515.327586,,0.0029628917062996768,515.22,0.7870000004768372,0.0256788291455019
515.793103,,0.002151587123757324,515.686,0.7870000004768372,0.025549262290423043
516.258621,,0.00028465616742796157,516.151,0.765999972820282,-0.020389627678140544
516.724138,,0.00241827971598448,516.617,0.7870000004768372,0.025122959508678433
517.189655,,0.004620143719020111,517.084,0.7699999809265137,-0.012197439441994263
517.655172,,0.005015228284382578,517.549,0.7870000004768372,0.024521076011225575
518.1206900000001,,0.003485288521514971,518.014,0.7860000133514404,0.02199882196690384
518.5862070000001,,0.001167099572973868,518.48,0.765999972820282,-0.021932507097764398
519.051724,,0.0003880893430668474,518.943,0.7820000052452087,0.012563488561478391
519.517241,,0.0002210855218357153,519.406,0.7649999856948853,-0.024829429238451294
519.982759,,0.001505523985982122,519.874,0.7670000195503235,-0.020810925116595273
520.448276,,0.0036347100899397204,520.335,0.7739999890327454,-0.00587239347450122
520.9137929999999,,0.004640311062032027,520.806,0.7879999876022339,0.024353418777841872
521.37931,,0.00358985298480379,521.269,0.6679999828338623,-0.23731667028338485
521.844828,,0.0009895628215955646,521.735,0.765999972820282,-0.023993814732994015
522.310345,,0.001411910287728178,522.199,0.7879999876022339,0.023806349391463314
522.7758620000001,,0.0020787704898071256,522.665,0.7739999890327454,-0.006764181323481652
523.241379,,0.0010317711871474528,523.125,0.7850000262260437,0.017194245103360116
523.7068969999999,,0.000325677288045739,523.591,0.7739999890327454,-0.006715262568444923
524.172414,,0.00051301741386137,524.059,0.7620000243186951,-0.03274317494507623
524.637931,,0.0008765165447387931,524.524,0.7519999742507935,-0.05435854117262574
525.103448,,0.002826672165283786,524.988,0.7870000004768372,0.02211550806874251
525.568966,,0.003642820327786876,525.451,0.7820000052452087,0.011487672060086843
526.034483,,0.002602176464506275,525.914,0.7630000114440918,-0.029605253406177576
526.5,,0.0008407251497363228,526.384,0.7850000262260437,0.018652748531574316
526.9655170000001,,6.9509417104132146e-06,526.847,0.7860000133514404,0.021175757987739546
527.4310340000001,,0.00014469829920964338,527.31,0.765999972820282,-0.022046701423089128
527.8965519999999,,2.2501136983424624e-05,527.775,0.828000009059906,0.11337618732378249
528.362069,,0.0008446538727560967,528.246,0.765999972820282,-0.021367430870185267
528.827586,,0.001291723315928611,528.704,0.7720000147819519,-0.007987773369219622
529.293103,,0.000260596851207113,529.169,0.7850000262260437,0.02060726281495894
529.7586210000001,,0.0015405541813128712,529.635,0.7739999890327454,-0.003128348034239468
530.224138,,0.002432162686778666,530.099,0.7839999794960022,0.018837884254477386
530.689655,,0.001784186311847348,530.564,0.765999972820282,-0.020253437640610397
531.155172,,0.0006745033905623638,531.029,0.7649999856948853,-0.02236721042965102
531.62069,,0.0006128442441890275,531.494,0.7870000004768372,0.025566669566850296
532.086207,,0.0018484983382930531,531.963,0.8029999732971191,0.06036848945703608
532.5517239999999,,0.003037000422367228,532.425,0.7599999904632568,-0.03342783295018744
533.017241,,0.0027202575370819325,532.895,0.7870000004768372,0.025226220041085577
533.482759,,0.0011048137583690994,533.358,0.7680000066757202,-0.01638744831494486
533.9482760000001,,3.2586204896326186e-05,533.821,0.531000018119812,-0.5329942365996592
534.413793,,0.0010649291721480025,534.284,0.7699999809265137,-0.012607966884230423
534.87931,,0.003869664320043163,534.749,0.7860000133514404,0.02191066096858095
535.344828,,0.006552991644600276,535.221,0.6710000038146973,-0.22898889969559003
535.810345,,0.007265211195950596,535.679,0.7609999775886536,-0.03327125015394362
536.275862,,0.005524100709841245,536.144,0.7609999775886536,-0.033624875878969625
536.7413789999999,,0.002525307488418602,536.609,0.7870000004768372,0.022687192592272306
537.206897,,0.0003550573337562681,537.077,0.765999972820282,-0.023365255461055744
537.672414,,0.0003530878974717487,537.542,0.7820000052452087,0.011234203136772473
538.137931,,0.0018041526469223185,538.01,0.7839999794960022,0.01538266018407957
538.6034480000001,,0.0025254252552290076,538.476,0.765999972820282,-0.023985059077723924
539.0689659999999,,0.0011391990312540862,538.936,0.7829999923706055,0.01296105873566824
539.5344829999999,,0.0014540424140623146,539.399,0.7360000014305115,-0.08946334050865545
540.0,,0.003215435385776091,539.869,0.7649999856948853,-0.026247776644603166
540.465517,,0.0032056575834648387,540.332,0.777999997138977,0.002171078422875056
540.931034,,0.002033850981458204,540.803,0.7820000052452087,0.011041316444117983
541.396552,,0.00043531830842179697,541.265,0.7689999938011169,-0.017071556970994002
541.862069,,0.001401539412583629,541.724,0.8519999980926514,0.16401387015956112
542.327586,,0.002882325150184062,542.192,0.8119999766349792,0.07716668592118095
542.7931030000001,,0.0026817865902508333,542.657,0.777999997138977,0.003422051972141722
543.258621,,0.00024955639305411026,543.122,0.7820000052452087,0.012483489926334697
543.7241379999999,,0.0031310867582256675,543.588,0.7609999775886536,-0.032916567511128876
544.189655,,0.005610194925494461,544.054,0.7889999747276306,0.028430036344277466
544.655172,,0.006454079140254539,544.52,0.7590000033378601,-0.03660357951291786
545.12069,,0.005815190639930571,544.98,0.902999997138977,0.2774203198426822
545.5862070000001,,0.0038853766233696956,545.45,0.777999997138977,0.005352777421637459
546.051724,,0.0014883634894594447,545.91,0.765999972820282,-0.02057328471804115
546.517241,,0.0006043256651616259,546.38,0.7850000262260437,0.020983395372230214
546.982759,,0.0025623145977907704,546.84,0.7820000052452087,0.014549118509816009
547.448276,,0.005844705547974545,547.31,0.7689999938011169,-0.013735464690851986
547.9137929999999,,0.00714636452537971,547.776,0.777999997138977,0.005844908839357267
548.3793099999999,,0.004915623005993841,548.238,0.7630000114440918,-0.026926741889298052
548.844828,,0.0009499299882417564,548.704,0.7820000052452087,0.014314412635884208
549.310345,,0.0017172362932598956,549.17,0.7599999904632568,-0.03382490760199515
549.775862,,0.0017624863105024154,549.636,0.7820000052452087,0.013847780297876151
550.241379,,0.00020535832665953004,550.095,0.7950000166893005,0.04187357462508178
550.706897,,0.0011452534110015316,550.561,0.7699999809265137,-0.012917780788271403
551.172414,,0.0013481864790966525,551.026,0.7940000295639038,0.039027416999137005
551.637931,,0.000794391643095045,551.491,0.7730000019073486,-0.0070724264685571355
552.103448,,0.0005516552889575594,551.954,0.8109999895095825,0.07537469985707142
552.568966,,0.001296453878467282,552.424,0.7559999823570251,-0.044774246695098344
553.034483,,0.0027361417058713103,552.888,0.781000018119812,0.009397272389814994
553.5,,0.004041427416852032,553.35,0.7620000243186951,-0.032253805368912314
553.965517,,0.004702612777496217,553.814,0.7699999809265137,-0.015034750286050058
554.4310340000001,,0.004719622619876063,554.284,0.7820000052452087,0.010953131019241428
554.896552,,0.004102137673459855,554.749,0.7699999809265137,-0.015286840763363355
555.3620689999999,,0.00271890616036762,555.214,0.7609999775886536,-0.0349280246380917
555.827586,,0.0008170322341126825,555.68,0.7850000262260437,0.01739024394037824
556.293103,,0.0007736742969474519,556.139,0.753000020980835,-0.05223284250468098
556.758621,,0.0013391571256903398,556.606,0.7820000052452087,0.01110150406826943
557.224138,,0.0009573545258652646,557.073,0.7950000166893005,0.039633014440630214
557.689655,,0.00020976640243322366,557.538,0.7820000052452087,0.01156888108977976
558.155172,,0.00045719212872286996,558.005,0.8429999947547913,0.14476626730677844
558.6206900000001,,0.0007474675903253233,558.47,0.7820000052452087,0.012200671533523784
559.0862070000001,,0.00038295725806516045,558.935,0.7839999794960022,0.016909594305249038
559.5517239999999,,0.0003685669613495495,559.398,0.8199999928474426,0.09569985538959641
560.017241,,0.00040924619695493987,559.866,0.781000018119812,0.011086851715608798
560.482759,,0.0009687787439374454,560.328,0.777999997138977,0.004887333698790033
560.948276,,0.002583127236379064,560.794,0.7670000195503235,-0.018771907433016585
561.413793,,0.0021167136691722654,561.259,0.7850000262260437,0.020708123524349104
561.87931,,0.001117040876469075,561.725,0.6309999823570251,-0.31459291105854836
562.344828,,0.004854074624192599,562.185,0.5860000252723694,-0.41248800149406223
562.8103450000001,,0.006119928320061984,562.65,0.7820000052452087,0.014598374003740418
563.275862,,0.004529188870443987,563.118,0.7829999923706055,0.01677957846212125
563.7413789999999,,0.002472040349923953,563.584,0.7599999904632568,-0.033391890146929844
564.206897,,0.002069978711817178,564.051,0.7649999856948853,-0.022624637846681492
564.672414,,0.0031429393510745314,564.509,0.7609999775886536,-0.03152443643965107
565.137931,,0.00451860337609458,564.977,0.7590000033378601,-0.03611957219853054
565.603448,,0.005797583062979557,565.439,0.7879999876022339,0.026779386914791963
566.068966,,0.006688114191524135,565.91,0.7820000052452087,0.013392541817545744
566.534483,,0.0058733307364753325,566.372,0.7739999890327454,-0.004373723824745877
567.0,,0.002350358945350965,566.836,0.7739999890327454,-0.004721583698007237
567.465517,,0.002410130320117187,567.306,0.7990000247955322,0.04939831994126806
567.931034,,0.005199731113843076,567.764,0.8050000071525574,0.06213813206283585
568.396552,,0.004254663106267804,568.235,0.7870000004768372,0.0226163976182076
568.862069,,0.0008008651144190259,568.694,0.7760000228881836,-0.0016191523021470066
569.327586,,0.002614760618194833,569.165,0.7860000133514404,0.01994094326664024
569.793103,,0.004385145219884325,569.624,0.7630000114440918,-0.030343018090520868
570.2586210000001,,0.004378198463518159,570.091,0.7760000228881836,-0.002138889611873282
570.724138,,0.0032810385515965146,570.557,0.7620000243186951,-0.03269799159436207
571.189655,,0.0019381083445082008,571.021,0.75,-0.058838235560319856
571.655172,,0.000974258687445512,571.486,0.777999997138977,0.0022286999565458675
572.12069,,0.0007818454937842519,571.955,0.7850000262260437,0.017603879263069108
572.586207,,0.0016003609026153795,572.417,0.7609999775886536,-0.03450341690481426
573.051724,,0.0030582889732463955,572.88,0.7850000262260437,0.018013951676283405
573.517241,,0.003767800011615946,573.35,0.7960000038146973,0.042250793782276426
573.982759,,0.0023555797168495784,573.814,0.7689999938011169,-0.016267891937910332
574.4482760000001,,0.0008071907848120459,574.276,0.7799999713897705,0.008024139944914436
574.913793,,0.003622932779654635,574.742,0.6069999933242798,-0.3685476312121938
575.37931,,0.004258543882371432,575.207,0.7649999856948853,-0.023993670589621797
575.844828,,0.0026669088893983275,575.673,0.7889999747276306,0.028606352918131947
576.310345,,0.00021744913730396945,576.14,0.8019999861717224,0.05722008035072753
576.775862,,0.0016196011687215493,576.605,0.7699999809265137,-0.01223598563569882
577.241379,,0.002249813945627665,577.07,0.7820000052452087,0.014128615912866339
577.706897,,0.002061153821842482,577.536,0.7580000162124634,-0.03798612772085821
578.172414,,0.0016756453359232277,578.003,0.7599999904632568,-0.033510439276559
578.6379310000001,,0.0011477613057834064,578.461,0.7609999775886536,-0.03127206068443306
579.1034480000001,,7.981350298345991e-05,578.925,0.7820000052452087,0.014479179879907423
579.5689659999999,,0.0016871435602782644,579.395,0.7839999794960022,0.01877662291547246
580.034483,,0.0038347910942942774,579.858,0.7699999809265137,-0.011841414421396359
580.5,,0.005692207963953087,580.321,0.777999997138977,0.0054172491425308255
580.965517,,0.006260945427140756,580.786,0.765999972820282,-0.020945311329696317
581.431034,,0.004741241301457979,581.249,0.7870000004768372,0.024546861077417152
581.896552,,0.0016412462140201125,581.715,0.7649999856948853,-0.023675021715972695
582.362069,,0.0012281867449987797,582.18,0.7620000243186951,-0.030525307369664665
582.827586,,0.002492879648286686,582.645,0.7860000133514404,0.021435350288995625
583.2931030000001,,0.0023482930640320024,583.11,0.7789999842643738,0.0058569589409603745
583.758621,,0.0014713087225287067,583.576,0.7699999809265137,-0.014068621038551898
584.2241379999999,,0.00019367360126499716,584.04,0.7850000262260437,0.01831394174843912
584.689655,,0.002615272324784716,584.506,0.7699999809265137,-0.014632684605852703
585.155172,,0.004503022862316108,584.969,0.7739999890327454,-0.006145665121231497
585.6206900000001,,0.004252712307569468,585.438,0.7789999842643738,0.004566758172270239
586.0862070000001,,0.0018204779883933052,585.899,0.843999981880188,0.1460524832057229
586.551724,,0.001204060697404607,586.369,0.7639999985694885,-0.02830626760118557
587.017241,,0.0031288552288034036,586.832,0.7770000100135803,9.659719403105904e-06
587.482759,,0.0031799861876406466,587.295,0.7630000114440918,-0.030438720882703302
587.948276,,0.0016066655723636256,587.76,0.7829999923706055,0.013244520030572611
588.4137929999999,,0.0003292321048874238,588.227,0.7269999980926514,-0.10859613183697
588.87931,,0.0009302598834801079,588.692,0.7820000052452087,0.011440613076110478
589.344828,,0.0002802207958507673,589.158,0.7820000052452087,0.011693070590693853
589.810345,,0.0016378055616869268,589.623,0.7630000114440918,-0.029414944116161475
590.2758620000001,,0.0011511893479037212,590.088,0.765999972820282,-0.022568964731793442
590.741379,,0.0007336218660707791,590.554,0.7820000052452087,0.01261330033184982
591.2068969999999,,0.0013091535269618949,591.014,0.7649999856948853,-0.024096576170588975
591.672414,,0.0010941313949346329,591.479,0.7860000133514404,0.02197501413343649
592.137931,,0.004912314634226935,591.947,0.7820000052452087,0.013562839331176836
592.603448,,0.007013382185473481,592.409,0.6000000238418579,-0.38267944876305093
593.068966,,0.005971175436649961,592.877,0.7599999904632568,-0.03386723371924131
593.534483,,0.0031332831156219336,593.34,0.7860000133514404,0.022958395088846586
594.0,,0.000782526491590667,593.81,0.8510000109672546,0.16470303697760252
594.4655170000001,,0.00011432060901412939,594.273,0.7820000052452087,0.014457841799986059
594.9310340000001,,0.00023393611875646087,594.738,0.7559999823570251,-0.042160816141457606
595.3965519999999,,0.0005436859815672082,595.202,0.765999972820282,-0.020406412752529957
595.862069,,0.0012037416799777249,595.668,0.7950000166893005,0.042685498324351305
596.327586,,0.0017583131423344112,596.133,0.7870000004768372,0.025114238820574446
596.793103,,0.0019037406303306136,596.599,0.765999972820282,-0.020828161655428203
597.2586210000001,,0.0018080907835446467,597.066,0.7860000133514404,0.022511011754305768
597.724138,,0.0018827698929948671,597.524,0.7910000085830688,0.033135037729524225
598.189655,,0.0024938441748490257,597.992,0.753000020980835,-0.049949708911576414
598.655172,,0.003724874911606472,598.461,0.7559999823570251,-0.04372867404057749
599.12069,,0.004991337552401233,598.921,0.7649999856948853,-0.024444726958736562
599.586207,,0.005042053570156252,599.384,0.7990000247955322,0.04930791009834677
600.0517239999999,,0.003181062977653786,599.851,0.7990000247955322,0.049000587376556194
600.517241,,0.0006751839029960973,600.314,0.7839999794960022,0.016037894196391875
600.982759,,8.312893908359282e-05,600.779,0.7599999904632568,-0.03649995655101641
601.448276,,0.0015565712299814784,601.249,0.8019999861717224,0.054793242985013056
601.913793,,0.0033492326930746005,601.715,0.7639999985694885,-0.028158029128066763
602.37931,,0.0027290582559110262,602.18,0.7870000004768372,0.021840773294271826
602.844828,,7.224061598766356e-05,602.646,0.8690000176429749,0.20043767713674637
603.310345,,0.0023712481001812893,603.11,0.7630000114440918,-0.03049055802570245
603.775862,,0.002134241578924106,603.569,0.7620000243186951,-0.03260240333676326
604.2413789999999,,6.924863000726543e-05,604.036,0.7620000243186951,-0.032481690806391246
604.706897,,0.0020557410338504,604.502,0.7820000052452087,0.011262344535706884
605.172414,,0.002306479886652074,604.966,0.7630000114440918,-0.029915603775655896
605.637931,,0.001228319281596087,605.436,0.7710000276565552,-0.01223182199668528
606.1034480000001,,0.0005524403999655949,605.899,0.7820000052452087,0.012018040302784269
606.5689659999999,,0.0015000156288643778,606.361,0.7400000095367432,-0.07917951267901592
607.0344829999999,,0.003347580692191651,606.829,0.765999972820282,-0.022218648937586363
607.5,,0.0040506542291481725,607.291,0.7670000195503235,-0.01972325725910102
607.965517,,0.002572334337985042,607.757,0.7829999923706055,0.015443141842183747
608.431034,,0.00014758835085477355,608.221,0.7860000133514404,0.02226962068984366
608.896552,,0.0012701729332074716,608.687,0.7599999904632568,-0.03411162547296194
609.362069,,0.001285016143826698,609.152,0.7630000114440918,-0.027347913131802428
609.827586,,0.0010129867603660733,609.617,0.7850000262260437,0.020767037501196906
610.293103,,0.0011985148937146248,610.084,0.765999972820282,-0.020491124863713513
610.758621,,0.0013408502775731814,610.549,0.7870000004768372,0.02534434337910747
611.2241379999999,,0.0006419562201657811,611.014,0.7839999794960022,0.018837366681127888
611.689655,,0.00086723818373473,611.48,0.7739999890327454,-0.0029756598903348612
612.155172,,0.0021835098120883065,611.94,0.7889999747276306,0.029622593681479292
612.62069,,0.0019869663366722154,612.409,0.7649999856948853,-0.022798856029466855
613.0862070000001,,0.0002915056522889058,612.87,0.7839999794960022,0.018413049462727493
613.551724,,0.0036079362283797517,613.339,0.781000018119812,0.011652149454105813
614.017241,,0.005764463889187372,613.803,0.7699999809265137,-0.012573657927579947
614.4827590000001,,0.0053280646138132515,614.265,0.7850000262260437,0.01981800708684538
614.948276,,0.0031787222527366785,614.731,0.7609999775886536,-0.03277651637838266
615.4137929999999,,0.0017974972365498295,615.195,0.7979999780654907,0.047517692700865116
615.8793099999999,,0.0027345980584093455,615.661,0.8519999980926514,0.16485184196701255
616.344828,,0.004733073638618444,616.126,0.7860000133514404,0.020762165145976463
616.810345,,0.004710322427060163,616.591,0.8560000061988831,0.1729919043892053
617.275862,,0.0011532746447677272,617.058,0.7820000052452087,0.011527750576752295
617.741379,,0.003641870472527956,617.524,0.7599999904632568,-0.036609604951442234
618.206897,,0.005582225219124742,617.984,0.7820000052452087,0.011155124598298377
618.672414,,0.003129030434661351,618.454,0.781000018119812,0.008857692213611561
619.137931,,0.0011498181717161256,618.917,0.7649999856948853,-0.026069216401216077
619.603448,,0.0034501513070048944,619.38,0.7839999794960022,0.015308741934484804
620.068966,,0.002316778530991085,619.847,0.7850000262260437,0.017524064365812806
620.534483,,0.0007739579084279169,620.31,0.7509999871253967,-0.05646201432917296
621.0,,0.003410521221484657,620.776,0.7689999938011169,-0.017110371027793156
621.465517,,0.004155401537891787,621.246,0.7630000114440918,-0.030002641439455687
621.9310340000001,,0.0030193133351359334,621.704,0.765999972820282,-0.02324880141769434
622.396552,,0.0009024575386147847,622.17,0.7870000004768372,0.022753103081499255
622.862069,,0.001251966492942621,622.636,0.7620000243186951,-0.03143775983498971
623.327586,,0.002957075920208664,623.103,0.8939999938011169,0.2564379625034374
623.793103,,0.003943373981670647,623.569,0.8109999895095825,0.07591696223081969
624.258621,,0.0037250890332243217,624.036,0.7630000114440918,-0.028349388924848864
624.724138,,0.0019826380159925277,624.495,0.7879999876022339,0.026414991548662208
625.189655,,0.0005081031411541064,624.965,0.7870000004768372,0.024514786889898384
625.655172,,0.0019307371456556155,625.428,0.7839999794960022,0.018229162342577192
626.1206900000001,,0.0009793302037349161,625.895,0.777999997138977,0.005371598406620508
626.5862070000001,,0.0016672908435107813,626.358,0.7649999856948853,-0.022779850767562965
627.0517239999999,,0.0038099260886080254,626.821,0.7860000133514404,0.023094044034625196
627.5172409999999,,0.0038662637871681683,627.284,0.7710000276565552,-0.009515825044270542
627.982759,,0.00224310775444958,627.749,0.7900000214576721,0.0318939790664887
628.448276,,0.00036010978811368255,628.214,0.7820000052452087,0.01442565906350172
628.913793,,0.0010546610028429476,628.679,0.7599999904632568,-0.0335974877413541
629.37931,,0.00206295951439305,629.151,0.7609999775886536,-0.03156353419610104
629.844828,,0.002689980991652519,629.609,0.7580000162124634,-0.03829183613128684
630.3103450000001,,0.0031647453311301884,630.074,0.7680000066757202,-0.016739459999050594
630.7758620000001,,0.004454685782097501,630.54,0.7979999780654907,0.04835243113229754
631.2413789999999,,0.007090400825216886,631.007,0.7839999794960022,0.01755983766480043
631.706897,,0.009552357492198326,631.473,0.7590000033378601,-0.037213139853166814
632.172414,,0.009308971230767037,631.936,0.7839999794960022,0.01693980518656681
632.637931,,0.005853836859371024,632.406,0.800000011920929,0.05148914891445987
633.103448,,0.0016204088892785152,632.866,0.7689999938011169,-0.01634388237499259
633.568966,,0.0006779491664577373,633.329,0.7960000038146973,0.04220786845866832
634.034483,,0.0009007608115633952,633.796,0.7820000052452087,0.01146664624838962
634.5,,0.0010644257201077847,634.26,0.765999972820282,-0.023593179128106146
634.9655170000001,,0.0024827302884685085,634.725,0.7850000262260437,0.017644373506843714
635.431034,,0.0041655430483654625,635.191,0.7630000114440918,-0.03039355099875073
635.8965519999999,,0.004384707685762551,635.657,0.7820000052452087,0.010945635107668978
636.362069,,0.0032200291635378696,636.122,0.7820000052452087,0.010944944045201598
636.827586,,0.0025552597318408998,636.587,0.7839999794960022,0.015356314548396113
637.293103,,0.003438851063739778,637.055,0.7910000085830688,0.030714344975075098
637.7586210000001,,0.004593505439441873,637.52,0.7689999938011169,-0.017058765923052537
638.224138,,0.004315112474173148,637.984,0.7630000114440918,-0.029929394122671153
638.689655,,0.0029075229685147867,638.447,0.7850000262260437,0.01823964357193215
639.155172,,0.002051129082331735,638.91,0.7889999747276306,0.027223680278740663
639.62069,,0.0023139108158415893,639.38,0.777999997138977,0.0035509208301186396
640.086207,,0.002619295184502282,639.84,0.7829999923706055,0.014749910587265186
640.551724,,0.0021293864339258215,640.31,0.7620000243186951,-0.030692424746593287
641.017241,,0.0014382966990471875,640.776,0.7870000004768372,0.024076604453942697
641.482759,,0.0014108851757441642,641.238,0.7739999890327454,-0.00395850272088775
641.9482760000001,,0.0017285528433106218,641.704,0.7990000247955322,0.05077119949535421
642.413793,,0.0015378744582708558,642.17,0.7870000004768372,0.024859072391245456
642.87931,,0.0011109377325484368,642.635,0.7699999809265137,-0.011985477296577585
643.344828,,0.0016448139454535845,643.095,0.796999990940094,0.04698505983140081
643.810345,,0.003344405375680408,643.561,0.7689999938011169,-0.013920088517476826
644.275862,,0.004859894189885808,644.026,0.765999972820282,-0.0204126517404189
644.7413789999999,,0.005045000859967586,644.491,0.7820000052452087,0.014433953516592308
645.206897,,0.004435208758037582,644.954,0.7699999809265137,-0.011776319643771044
645.672414,,0.004435894983583996,645.424,0.7649999856948853,-0.02278870087178718
646.1379310000001,,0.005440974569272334,645.888,0.7839999794960022,0.018437466592123686
646.6034480000001,,0.006221012408435132,646.35,0.7689999938011169,-0.014453760663156038
647.0689659999999,,0.005198227330660841,646.814,0.7839999794960022,0.017977801830608396
647.534483,,0.00210219188242496,647.284,0.7839999794960022,0.017701120393340805
648.0,,0.0018276899769277054,647.749,0.7910000085830688,0.03265561012496174
648.465517,,0.005096218325356389,648.214,0.7900000214576721,0.03017094866802933
648.931034,,0.006998002283611551,648.679,0.7630000114440918,-0.028959424182086767
649.396552,,0.007568477761978435,649.144,0.8510000109672546,0.1624642763107209
649.862069,,0.007207261857472727,649.61,0.7860000133514404,0.020574832948588292
650.327586,,0.006556067934590305,650.069,0.7620000243186951,-0.0319625044157835
650.7931030000001,,0.006184741814122106,650.535,0.7739999890327454,-0.006035365711788182
651.258621,,0.006064682908777957,650.999,0.824999988079071,0.10489992799817956
651.7241379999999,,0.0056838168342261824,651.465,0.7590000033378601,-0.039019717260793736
652.189655,,0.0048831581309338856,651.933,0.7620000243186951,-0.032563178094788627
652.655172,,0.004179445317461459,652.396,0.7820000052452087,0.010981267207509514
653.12069,,0.003977748395012354,652.865,0.7630000114440918,-0.030389358285509573
653.5862070000001,,0.003933799691560521,653.328,0.7760000228881836,-0.001991890856107056
654.051724,,0.0035866369963226973,653.794,0.7590000033378601,-0.03890519764710824
654.517241,,0.003198470933800764,654.259,0.7720000147819519,-0.010414156374935655
654.982759,,0.0033404795642222418,654.725,0.7870000004768372,0.022474218163356586
655.448276,,0.003932973728585039,655.185,0.8569999933242798,0.1752241420646992
655.9137929999999,,0.004201774143392474,655.65,0.7820000052452087,0.012099766671891042
656.37931,,0.0033584439010554403,656.117,0.7879999876022339,0.025465808308455844
656.844828,,0.0012012467187075466,656.583,0.7609999775886536,-0.03305452673764898
657.310345,,0.0014044913691849147,657.047,0.777999997138977,0.004284770131237774
657.7758620000001,,0.0026504347079829983,657.513,0.7699999809265137,-0.012852650894778559
658.241379,,0.001385447482411793,657.98,0.765999972820282,-0.021294959983526866
658.7068969999999,,0.0010631866115743775,658.443,0.7889999747276306,0.02905850904366157
659.172414,,0.0017379038365210719,658.911,0.7839999794960022,0.018375209003693133
659.637931,,0.00048436398073784507,659.373,0.7850000262260437,0.02072312274079083
660.103448,,0.0031215723363365215,659.836,0.7870000004768372,0.025203555726493184
660.568966,,0.0029237390708221817,660.306,0.7620000243186951,-0.029189541311530853
661.034483,,7.290699998702517e-05,660.764,0.7739999890327454,-0.0030257344822545123
661.5,,0.002796131464104261,661.235,0.7689999938011169,-0.01395252541852497
661.965517,,0.0032353043800246355,661.694,0.7879999876022339,0.0273561216941413
662.4310340000001,,0.002456949080402334,662.162,0.7860000133514404,0.022864420943723505
662.8965519999999,,0.002141011961626031,662.627,0.75,-0.05574635803421825
663.362069,,0.0021074189434491263,663.091,0.7829999923706055,0.01592963274302992
663.827586,,0.0015517671587623814,663.557,0.7440000176429749,-0.06929035770358274
