Trial: ,3
Threshold: ,0.0
Maximum EMG: ,0.03454812807526232
Success: ,True

EMG Time,Raw EMG,Filtered EMG,Force Time,Raw Force (V),Filtered Force (N)
0.0,samples,1.6315335070077923e-08,0.471,0.7630000114440918,-0.0288577094151014
0.46551699999999996,time,1.7238261866371982e-08,0.933,0.7860000133514404,0.02187008301275649
0.9310339999999999,value,1.8139607255888153e-08,1.396,0.7689999938011169,-0.014696491503030587
1.396552,,1.9015226626507315e-08,1.866,0.7639999985694885,-0.02528342167116812
1.862069,,1.9860888062664605e-08,2.326,0.7870000004768372,0.024956928219469366
2.327586,,2.0672283658262052e-08,2.797,0.7889999747276306,0.02926617456225683
2.793103,,2.1445041589003035e-08,3.255,0.7480000257492065,-0.06028586476041439
3.258621,,2.2174738933918084e-08,3.726,0.7870000004768372,0.024279209449080415
3.724138,,2.2856915232739478e-08,4.185,0.7689999938011169,-0.0155019251581194
4.189654999999999,,2.348708676258316e-08,4.652,0.7820000052452087,0.012108323816750512
4.655172,,2.406076151411837e-08,5.118,0.7910000085830688,0.030878277962549043
5.12069,,2.4573454844056272e-08,5.585,0.7680000066757202,-0.020169301673479873
5.586207,,2.5020705777377836e-08,6.051,0.7829999923706055,0.01149864904197994
6.051723999999999,,2.539809392925738e-08,6.515,0.7860000133514404,0.016980449614265168
6.517241,,2.570125701313207e-08,6.981,0.7680000066757202,-0.023299814321796432
6.982759,,2.5925908897829603e-08,7.444,0.7820000052452087,0.006158539009942717
7.448276,,2.6067858173107577e-08,7.907,0.7739999890327454,-0.012259428792877912
7.913793000000001,,2.6123027179390554e-08,8.37,0.828000009059906,0.10448460656070567
8.379309999999998,,2.6087471453926818e-08,8.84,0.7950000166893005,0.03180132849223259
8.844828000000001,,2.5957399542039326e-08,9.304,0.7900000214576721,0.020259988080921616
9.310345,,2.57291931186274e-08,9.766,0.7839999794960022,0.006699476347697712
9.775862,,2.5399427361601295e-08,10.232,0.8450000286102295,0.13928502775394241
10.241379,,2.4964891515515274e-08,10.7,0.8230000138282776,0.09123130538904911
10.706897,,2.4422609580320828e-08,11.166,0.7889999747276306,0.017227010597120826
11.172414,,2.3769861056905066e-08,11.626,1.090000033378601,0.6732665053763929
11.637931,,2.3004201677925738e-08,12.091,0.7860000133514404,0.01141672330550753
12.103447999999998,,2.212348404941933e-08,12.556,0.7850000262260437,0.009872052051877099
12.568966000000001,,2.1125878125758152e-08,13.022,0.7730000019073486,-0.015488617041498844
13.034483,,2.0009891437782587e-08,13.485,0.7839999794960022,0.009384843848840129
13.5,,1.8774388991351947e-08,13.954,0.8029999732971191,0.05178563093482311
13.965517,,1.7418612751157917e-08,14.415,0.7699999809265137,-0.01903561387308387
14.431034,,1.5942200622445138e-08,14.885,0.7699999809265137,-0.017927468287372416
14.896552,,1.4345204841300383e-08,15.348,0.7839999794960022,0.013681465098219386
15.362069,,1.2628109682421369e-08,15.81,0.765999972820282,-0.02446045407489452
15.827586000000002,,1.0791848391775005e-08,16.276,0.7900000214576721,0.028834034307402643
16.293103,,8.837819250318801e-09,16.747,0.7680000066757202,-0.018187256154240723
16.758621,,6.767900674004012e-09,17.205,0.7820000052452087,0.013096973028505259
17.224138,,4.584465254620653e-09,17.671,0.7820000052452087,0.01373016906826589
17.689655,,2.2903926456977133e-09,18.136,0.7739999890327454,-0.0032353197243423274
18.155172,,1.1091880234848287e-10,18.603,0.7649999856948853,-0.022563815226744277
18.62069,,2.6155417533045423e-09,19.069,0.7839999794960022,0.018916517615223546
19.086207,,5.219011037301298e-09,19.533,0.7839999794960022,0.01880681921860814
19.551724,,7.91631633777705e-09,19.999,0.7820000052452087,0.014147566706983004
20.017241000000002,,1.070189650561304e-08,20.467,0.7860000133514404,0.02237682127969327
20.482758999999998,,1.356963559098029e-08,20.929,0.7639999985694885,-0.026207924566624505
20.948276,,1.6512860681224847e-08,21.392,0.765999972820282,-0.02265511642744998
21.413793000000002,,1.9524341630496025e-08,21.855,0.7720000147819519,-0.010513372438101064
21.87931,,2.2596292763781113e-08,22.322,0.7689999938011169,-0.018076875980802383
22.344828,,2.572037663454294e-08,22.785,0.7889999747276306,0.02440304162294634
22.810344999999998,,2.8887709911257457e-08,23.251,0.7760000228881836,-0.005043945645931614
23.275862,,3.208887146381267e-08,23.718,0.7620000243186951,-0.036667228638501234
23.741379,,3.5313912715954195e-08,24.184,0.7929999828338623,0.029785315774730734
24.206897,,3.855237032474452e-08,24.648,0.7739999890327454,-0.012623878133095866
24.672414,,4.179328124234208e-08,25.114,0.7829999923706055,0.006071010540071238
25.137931,,4.502520020930375e-08,25.58,0.7699999809265137,-0.023034598118795845
25.603448,,4.823621972207301e-08,26.045,0.7919999957084656,0.024266717456217245
26.068966,,5.14139925103399e-08,26.512,0.8510000109672546,0.1523534187567288
26.534483,,5.454575655255482e-08,26.97,0.7960000038146973,0.03226514645207058
27.0,,5.761836265005279e-08,27.441,0.7760000228881836,-0.0113723778748799
27.465517,,6.061830457200901e-08,27.903,0.7839999794960022,0.006190576151775862
27.931034,,6.353175177481149e-08,28.366,0.6299999952316284,-0.32899601746816354
28.396552,,6.63445846904156e-08,28.836,0.7620000243186951,-0.04091030317820231
28.862069,,6.90424325688545e-08,29.295,0.7710000276565552,-0.020632752819019894
29.327586,,7.16107138503354e-08,29.761,0.7879999876022339,0.017222709331904132
29.793103000000002,,7.403467903227476e-08,30.226,0.7649999856948853,-0.03194315304195305
30.258620999999998,,7.629945598623651e-08,30.692,0.7820000052452087,0.006132857991662417
30.724138,,7.839009766906089e-08,31.158,0.765999972820282,-0.027622371067286218
31.189655000000002,,8.02916321615316e-08,31.623,0.7680000066757202,-0.022131207287975428
31.655172000000004,,8.198911495675495e-08,32.089,0.8140000104904175,0.0792171629348187
32.12069,,8.346768340904529e-08,32.555,0.7699999809265137,-0.015549811987047345
32.586207,,8.471261324255753e-08,33.021,0.7870000004768372,0.022510142942072913
33.051724,,8.57093770072149e-08,33.481,0.7739999890327454,-0.0048920726883021955
33.517241000000006,,8.644370435768322e-08,33.951,0.765999972820282,-0.021532364632336043
33.982759,,8.6901644019279e-08,34.411,0.7870000004768372,0.02485237661745416
34.448276,,8.706962729280806e-08,34.881,0.6940000057220459,-0.17730565819094837
34.913793,,8.693453293845426e-08,35.345,0.7680000066757202,-0.01582202798231172
35.37931,,8.648375326701778e-08,35.807,0.7609999775886536,-0.0310093024360385
35.844828,,8.570526125508403e-08,36.272,0.7609999775886536,-0.031147346614973984
36.310345,,8.458767848913316e-08,36.735,0.7710000276565552,-0.009696194825183434
36.775862,,8.312034373222469e-08,37.2,0.7839999794960022,0.018103864687323314
37.241378999999995,,8.129338189576039e-08,37.667,0.8029999732971191,0.05880578957911524
37.706897000000005,,7.909777318799141e-08,38.133,0.7820000052452087,0.012213127113059077
38.172414,,7.652542220044467e-08,38.6,0.7760000228881836,-0.0018236881848928497
38.637931,,7.356922668335033e-08,39.065,0.765999972820282,-0.024670739928718557
39.103448,,7.022314575151085e-08,39.53,0.7649999856948853,-0.027973679694983267
39.568965999999996,,6.648226725291517e-08,39.995,0.7900000214576721,0.025338827707570483
40.034483,,6.234287402382472e-08,40.456,0.7639999985694885,-0.032453849184356655
40.5,,5.7802508746095135e-08,40.926,0.7910000085830688,0.025262990774662188
40.965517,,5.286003711520416e-08,41.389,0.7609999775886536,-0.041128478470338195
41.431034,,4.751570902088637e-08,41.851,0.7860000133514404,0.012412110993630857
41.896552,,4.1771217436484975e-08,42.315,0.7990000247955322,0.03994406853009326
42.362069000000005,,3.5629754708172976e-08,42.785,0.7620000243186951,-0.041296681088383656
42.827586000000004,,2.9096065931125054e-08,43.251,0.7870000004768372,0.012717342127402768
43.293103,,2.2176499096590075e-08,43.711,0.7889999747276306,0.016815335807035158
43.758621,,1.4879051691673615e-08,44.176,0.7789999842643738,-0.005028925372952093
44.224138,,7.213413432541326e-09,44.64,0.7860000133514404,0.01036720588335444
44.689655,,8.089951882541725e-10,45.106,0.777999997138977,-0.006717401509145431
45.155172,,9.17498885849059e-09,45.57,0.765999972820282,-0.0323281329601762
45.620689999999996,,1.7869588222892854e-08,46.036,0.8109999895095825,0.06641699701220782
46.086206999999995,,2.687599579196698e-08,46.5,0.7850000262260437,0.010630554048904874
46.551724,,3.6175577290564435e-08,46.966,0.777999997138977,-0.003635442810940301
47.017241,,4.5747848747582946e-08,47.434,0.8769999742507935,0.21313287407114048
47.482759,,5.5570469620764256e-08,47.896,0.7680000066757202,-0.023191663769674412
47.948276,,6.561924224173443e-08,48.367,0.765999972820282,-0.026372173507844068
48.413793,,7.586811785622089e-08,48.829,0.7860000133514404,0.018368673858164875
48.879310000000004,,8.628920952274738e-08,49.295,0.7739999890327454,-0.006651799875457075
49.344828,,9.685281212003454e-08,49.761,0.7910000085830688,0.031430011711415747
49.810345,,1.0752742969880361e-07,50.226,0.421999990940094,-0.7715640799931994
50.275862,,1.1827981039768342e-07,50.685,0.765999972820282,-0.021333871176730967
50.741379,,1.2907498912544925e-07,51.151,0.7870000004768372,0.025023154153847885
51.206897,,1.3987633819287531e-07,51.616,0.7910000085830688,0.034162836002796536
51.672414,,1.5064562605706374e-07,52.081,0.7680000066757202,-0.015713696878998564
52.137931,,1.6134308431923253e-07,52.548,0.7789999842643738,0.008283850095345569
52.603448,,1.719274830936167e-07,53.014,0.7649999856948853,-0.02238568781395824
53.068966,,1.8235621484038242e-07,53.481,0.7620000243186951,-0.02928589898766286
53.534483,,1.9258538672929788e-07,53.944,0.7820000052452087,0.013738094368166781
54.0,,2.025699215733819e-07,54.411,0.7870000004768372,0.02391541592600342
54.465517,,2.1226366734290041e-07,54.873,0.7789999842643738,0.005625569237272951
54.931034,,2.216195152399472e-07,55.337,0.7870000004768372,0.022075577726942068
55.396552,,2.3058952628248065e-07,55.807,0.765999972820282,-0.02474451264507385
55.862069,,2.3912506631414916e-07,56.265,0.781000018119812,0.006809700475130298
56.327586,,2.4717694932259463e-07,56.737,0.7829999923706055,0.01001827525551693
56.793102999999995,,2.546955889142436e-07,57.195,0.7919999957084656,0.028489557084766474
57.258621000000005,,2.6163115775796104e-07,57.661,0.7760000228881836,-0.007458978894618839
57.724138,,2.679337547734356e-07,58.127,0.7870000004768372,0.015494767376912166
58.189655,,2.735535798028812e-07,58.592,0.8240000009536743,0.09520339852705084
58.655172,,2.7844111546667976e-07,59.058,0.7940000295639038,0.02908047859858711
59.120689999999996,,2.825473158650532e-07,59.523,0.7870000004768372,0.01322634865274254
59.586207,,2.858238017488613e-07,59.989,0.7620000243186951,-0.0416668861731412
60.051724,,2.882230617432853e-07,60.452,0.7870000004768372,0.012560546293947778
60.517241,,2.8969865916860817e-07,60.921,0.7620000243186951,-0.04194928375261334
60.982758999999994,,2.90205443962669e-07,61.382,0.7200000286102295,-0.13330140576517663
61.448276,,2.8969976916998767e-07,61.852,0.8019999861717224,0.04568831650361081
61.913793,,2.881397114231774e-07,62.315,0.7829999923706055,0.004815489625861246
62.379310000000004,,2.8548529480322385e-07,62.777,0.7860000133514404,0.012038932112399914
62.84482800000001,,2.816987174266771e-07,63.243,0.7639999985694885,-0.035059443387871626
63.310345000000005,,2.767445800699255e-07,63.708,0.7730000019073486,-0.0145008706406067
63.775862000000004,,2.70590116103668e-07,64.174,0.7829999923706055,0.008326597861195977
64.241379,,2.6320542197463994e-07,64.64,0.7839999794960022,0.01160577564006154
64.706897,,2.5456368743674713e-07,65.106,0.7879999876022339,0.021447779887968473
65.172414,,2.446414247001981e-07,65.57,0.7490000128746033,-0.062399626572570574
65.637931,,2.3341869563517607e-07,66.036,0.7680000066757202,-0.01992754027944585
66.103448,,2.2087933613623318e-07,66.503,0.7680000066757202,-0.018924095351326598
66.56896599999999,,2.0701117672510986e-07,66.962,0.765999972820282,-0.02238193767321732
67.03448300000001,,1.9180625844325515e-07,67.429,0.7699999809265137,-0.012898456663986292
67.5,,1.752610430611408e-07,67.892,0.7870000004768372,0.02475446379118834
67.965517,,1.5737661660969924e-07,68.36,0.7829999923706055,0.016485112669547667
68.431034,,1.381588852200603e-07,68.823,0.7699999809265137,-0.01157582451189696
68.896552,,1.1761876224139055e-07,69.288,0.7839999794960022,0.018995161492873038
69.362069,,9.577234559323493e-08,69.751,0.7639999985694885,-0.024701469824619057
69.827586,,7.26410842984951e-08,70.217,0.7900000214576721,0.03163009934062518
70.293103,,4.8251933136227637e-08,70.681,0.777999997138977,0.004993168029446961
70.75862099999999,,2.2637494349974007e-08,71.147,0.6019999980926514,-0.3791102369956218
71.22413800000001,,4.1638546524931944e-09,71.612,0.765999972820282,-0.022624732451151694
71.689655,,3.210784866815055e-08,72.077,0.765999972820282,-0.023561864178419545
72.15517200000001,,6.114423818865091e-08,72.544,0.7720000147819519,-0.011519541324167099
72.62069,,9.12167100514021e-08,73.01,0.7839999794960022,0.013533668528025627
73.086207,,1.222628262757603e-07,73.47,0.7940000295639038,0.03420267144321331
73.551724,,1.5421398208770896e-07,73.94,0.7630000114440918,-0.03444645641269116
74.017241,,1.869953841113357e-07,74.404,0.6539999842643738,-0.27299320134591315
74.482759,,2.2052604967579258e-07,74.866,0.7720000147819519,-0.01691955759013341
74.94827599999999,,2.5471882815213636e-07,75.337,0.765999972820282,-0.030899092555567716
75.41379300000001,,2.894804451954179e-07,75.799,0.7850000262260437,0.009716975487423025
75.87931,,3.2471157072355633e-07,76.265,0.7680000066757202,-0.027945654087359762
76.344828,,3.603069114158436e-07,76.729,0.765999972820282,-0.03275734773096863
76.810345,,3.961553284603412e-07,77.195,0.9079999923706055,0.2763435433373307
77.275862,,4.3213998122093286e-07,77.659,0.7699999809265137,-0.02438001902544503
77.741379,,4.681384974313858e-07,78.125,0.7870000004768372,0.012783931797478873
78.206897,,5.040231704554543e-07,78.59,0.7850000262260437,0.008743951160905573
78.67241399999999,,5.396611840788721e-07,79.055,0.7680000066757202,-0.02779576494389739
79.137931,,5.749148652210672e-07,79.515,0.777999997138977,-0.005347961431219359
79.603448,,6.096419648716733e-07,79.98,0.7639999985694885,-0.03504451429816344
80.068966,,6.436959674694889e-07,80.448,0.765999972820282,-0.029764659409437892
80.53448300000001,,6.769264288495598e-07,80.911,0.7879999876022339,0.019178268740689536
81.0,,7.091793427876676e-07,81.381,0.7990000247955322,0.044216239082721
81.465517,,7.402975360708439e-07,81.844,0.8650000095367432,0.18910931409515133
81.931034,,7.701210919177738e-07,82.307,0.7850000262260437,0.01591680191327501
82.396552,,7.984878014643035e-07,82.77,0.765999972820282,-0.024416718293151535
82.86206899999999,,8.252336429169381e-07,83.235,0.7860000133514404,0.020144733829969615
83.327586,,8.501932878614491e-07,83.7,0.7860000133514404,0.021030994495704947
83.79310299999999,,8.732006340947774e-07,84.166,0.7609999775886536,-0.032678030221362196
84.258621,,8.940893642265948e-07,84.633,0.7559999823570251,-0.0429667433866113
84.72413800000001,,9.126935291724945e-07,85.099,0.7200000286102295,-0.12096558614393058
85.189655,,9.288481555341409e-07,85.563,0.7699999809265137,-0.011786036882766911
85.65517200000001,,9.423898757331788e-07,86.029,0.7870000004768372,0.025307632210062016
86.12069,,9.531575796356697e-07,86.501,0.7620000243186951,-0.029292470446083012
86.586207,,9.609930862726649e-07,86.959,0.765999972820282,-0.020898170261746264
87.051724,,9.657418341306824e-07,87.422,0.7789999842643738,0.0069282368140592895
87.517241,,9.672535883537525e-07,87.892,0.5419999957084656,-0.5100716020055388
87.98275899999999,,9.653831630667974e-07,88.352,0.7570000290870667,-0.042469595655612986
88.448276,,9.599911568989025e-07,88.821,0.7870000004768372,0.021964222292424118
88.913793,,9.509446996550104e-07,89.28,0.7870000004768372,0.020954993525077587
89.37931,,9.381182079562275e-07,89.75,0.7950000166893005,0.03732365252668938
89.844828,,9.213941475428345e-07,90.216,0.7630000114440918,-0.033472396712274026
90.310345,,9.006637998107532e-07,90.681,0.7680000066757202,-0.023644756475641897
90.775862,,8.758280300322209e-07,91.147,0.781000018119812,0.0036583143782984787
91.241379,,8.467980545953248e-07,91.612,0.7889999747276306,0.020146051464671813
91.706897,,8.134962044854367e-07,92.07,0.7120000123977661,-0.1484455710921135
92.17241399999999,,7.758566821250489e-07,92.537,0.7950000166893005,0.03167619890324092
92.63793100000001,,7.33826308587658e-07,93.003,0.765999972820282,-0.032059112429569644
93.103448,,6.873652581067597e-07,93.47,0.7710000276565552,-0.021551578951827577
93.568966,,6.364477767133293e-07,93.933,0.7860000133514404,0.010921751965481239
94.03448300000001,,5.810628817549744e-07,94.396,0.7860000133514404,0.010900869340682951
94.5,,5.212150389778625e-07,94.866,0.699999988079071,-0.17630011166812357
94.965517,,4.5692481378916263e-07,95.33,0.7789999842643738,-0.003847884125911627
95.431034,,3.8822949326369463e-07,95.792,0.7649999856948853,-0.033844243421646686
95.896552,,3.151836754143435e-07,96.258,0.7879999876022339,0.01692023414098675
96.36206899999999,,2.3785982221216407e-07,96.721,0.765999972820282,-0.0302244516906414
96.827586,,1.5634877281953793e-07,97.187,0.7870000004768372,0.016418137497240734
97.293103,,7.076021348881453e-08,97.651,0.7870000004768372,0.01738671871332475
97.758621,,1.877689941989201e-08,98.117,0.7649999856948853,-0.02952757562871987
98.224138,,1.121139668341442e-07,98.582,0.7609999775886536,-0.03721118443303285
98.689655,,2.0908242828312837e-07,99.047,0.7910000085830688,0.02916249191164689
99.155172,,3.094935005945852e-07,99.515,0.7889999747276306,0.025772209947130736
99.62069,,4.1313797738430094e-07,99.981,0.7860000133514404,0.020127230281164706
100.086207,,5.197860926783124e-07,100.441,0.7870000004768372,0.023093263299694033
100.551724,,6.291874519236514e-07,100.911,0.7870000004768372,0.023753341245358744
101.017241,,7.410710335438809e-07,101.374,0.7620000243186951,-0.03020037006844996
101.482759,,8.551452640805531e-07,101.836,0.7710000276565552,-0.010243619175563828
101.948276,,9.710981698307874e-07,102.304,0.800000011920929,0.053112857795947196
102.413793,,1.088597607744204e-06,102.766,0.777999997138977,0.005181183331861541
102.87931,,1.2072915781792917e-06,103.232,0.7580000162124634,-0.03857001295518679
103.344828,,1.3268086219398192e-06,103.696,0.7689999938011169,-0.014954760103253046
103.810345,,1.446758303816048e-06,104.162,0.7870000004768372,0.02375144417609973
104.275862,,1.5667317846432754e-06,104.629,0.6330000162124634,-0.3124151974962366
104.741379,,1.6863024836616607e-06,105.095,0.7749999761581421,-0.003828797885928656
105.206897,,1.8050268327164738e-06,105.56,0.7599999904632568,-0.037390142352203885
105.672414,,1.922445123577055e-06,106.026,0.7599999904632568,-0.03834162237610354
106.13793100000001,,2.038082449376086e-06,106.489,0.777999997138977,-0.00011713692257988911
106.603448,,2.1514497408785645e-06,106.952,0.7910000085830688,0.027206441937103882
107.068966,,2.262044897982526e-06,107.415,0.7630000114440918,-0.03477077218828452
107.534483,,2.36935401653149e-06,107.885,0.7839999794960022,0.010059475106806232
108.0,,2.4728527101823787e-06,108.345,0.7829999923706055,0.007041952730759669
108.46551699999999,,2.5720075267227733e-06,108.815,0.7699999809265137,-0.022011170494343552
108.931034,,2.666277457868571e-06,109.28,0.7870000004768372,0.014425494770638706
109.396552,,2.7551155411980766e-06,109.743,0.7699999809265137,-0.023063682949167903
109.862069,,2.837970552492137e-06,110.209,0.7870000004768372,0.013682880200487444
110.32758600000001,,2.9142887863529713e-06,110.674,0.7870000004768372,0.013562407120960865
110.793103,,2.9835159225678376e-06,111.14,0.7689999938011169,-0.025600963018421873
111.258621,,3.0450989752686357e-06,111.6,0.7870000004768372,0.013836894000130575
111.724138,,3.098488321516096e-06,112.066,0.7710000276565552,-0.02063734644634823
112.189655,,3.1431398055085187e-06,112.53,0.7820000052452087,0.003860766515164568
112.655172,,3.1785169141813784e-06,112.996,0.7839999794960022,0.008882588963805206
113.12069,,3.204093019526824e-06,113.466,0.7820000052452087,0.00530019406670818
113.586207,,3.2193536825225735e-06,113.929,0.7689999938011169,-0.022162303759088463
114.051724,,3.223799013119407e-06,114.392,0.7900000214576721,0.024506958587250268
114.51724100000001,,3.216946080296943e-06,114.855,0.7329999804496765,-0.09873052053374301
114.982759,,3.198331365760223e-06,115.326,0.7720000147819519,-0.012820190218085038
115.448276,,3.167513254416508e-06,115.788,0.7799999713897705,0.005520281433185462
115.913793,,3.1240745543442966e-06,116.254,0.7620000243186951,-0.03284302748559471
116.37931,,3.067625038546737e-06,116.718,0.7820000052452087,0.011496697897862887
116.84482799999999,,2.997804000371063e-06,117.184,0.8140000104904175,0.08187240493648937
117.310345,,2.9142828140763756e-06,117.648,0.7850000262260437,0.019223787762587437
117.77586199999999,,2.816767491645882e-06,118.114,0.7820000052452087,0.013076799746116464
118.241379,,2.7050012265685805e-06,118.582,0.7829999923706055,0.015489261045388954
118.70689700000001,,2.5787669149612374e-06,119.04,0.7509999871253967,-0.054155931002260224
119.172414,,2.4378896440664147e-06,119.508,0.765999972820282,-0.021569123365019326
119.63793100000001,,2.2822391378482738e-06,119.974,0.7900000214576721,0.03046540554320731
120.103448,,2.1117321491168915e-06,120.437,0.7599999904632568,-0.03529810806677274
120.568966,,1.9263347873459598e-06,120.907,0.7680000066757202,-0.01841067968822
121.034483,,1.7260647711099983e-06,121.37,0.7870000004768372,0.022321854044986655
121.5,,1.5109935938576344e-06,121.833,0.7889999747276306,0.025919633254481718
121.96551699999999,,1.281248591559092e-06,122.304,0.7580000162124634,-0.04245135128649653
122.431034,,1.0370149006207687e-06,122.766,0.7879999876022339,0.02202756116324969
122.896552,,7.785372943496076e-07,123.225,0.7910000085830688,0.027663931788622184
123.362069,,5.061218861768087e-07,123.69,0.7860000133514404,0.015880798317400302
123.827586,,2.2013768781612274e-07,124.155,0.7630000114440918,-0.035081093831253435
124.293103,,7.898198946166235e-08,124.622,0.7870000004768372,0.016416400629155368
124.758621,,3.907383022076731e-07,125.088,0.7710000276565552,-0.019144589402365735
125.22413800000001,,7.14565822504154e-07,125.552,0.7639999985694885,-0.03498926555423055
125.68965500000002,,1.0498316775422945e-06,126.017,0.7860000133514404,0.0124733879586225
126.15517200000001,,1.395834892421504e-06,126.485,0.7870000004768372,0.014325381597368571
126.62069000000001,,1.7518059472889316e-06,126.948,0.7730000019073486,-0.016351690742113092
127.086207,,2.116906559654273e-06,127.411,0.7910000085830688,0.02284313739376697
127.55172400000001,,2.4902297023802677e-06,127.881,0.7730000019073486,-0.016238497635676603
128.017241,,2.8707998674627927e-06,128.344,0.7649999856948853,-0.03338431572341205
128.48275900000002,,3.257573585275199e-06,128.807,0.7910000085830688,0.02368347125988619
128.948276,,3.64944020845883e-06,129.272,0.7879999876022339,0.017696492984344614
129.413793,,4.045222969094967e-06,129.735,0.8100000023841858,0.06628482816582285
129.87931,,4.443680317192356e-06,130.201,0.7950000166893005,0.03435134385357787
130.344828,,4.843507547868778e-06,130.666,0.7630000114440918,-0.034555741448031016
130.81034499999998,,5.2433387238948296e-06,131.132,0.7889999747276306,0.02293539303512085
131.275862,,5.6417488995033215e-06,131.597,0.7889999747276306,0.023791880053640725
131.741379,,6.03725665054889e-06,132.063,0.765999972820282,-0.025477380902830055
132.206897,,6.428326915230142e-06,132.529,0.7839999794960022,0.014534322424213403
132.67241399999997,,6.8133741486616756e-06,132.995,0.765999972820282,-0.02395394483551245
133.13793099999998,,7.1907657936066574e-06,133.456,0.765999972820282,-0.023317903572634753
133.60344800000001,,7.558826068653587e-06,133.926,0.7860000133514404,0.02078039773025883
134.06896600000002,,7.915840074044914e-06,134.389,0.7950000166893005,0.040787740919709416
134.53448300000002,,8.260058214241955e-06,134.851,0.7820000052452087,0.012727706102885834
135.0,,8.589700935142143e-06,135.315,0.7870000004768372,0.023738653965012298
135.465517,,8.902963772653163e-06,135.784,0.7649999856948853,-0.0242219817230959
135.931034,,9.198022708076517e-06,136.25,0.7860000133514404,0.02135285238853154
136.396552,,9.473039824463154e-06,136.714,0.7850000262260437,0.018857626502014245
136.862069,,9.726169256778963e-06,137.18,0.7689999938011169,-0.016446321445014397
137.327586,,9.955563427361502e-06,137.645,0.7630000114440918,-0.03007848128236294
137.793103,,1.0159379556764579e-05,138.111,0.7870000004768372,0.0215522352377802
138.258621,,1.0335786438678179e-05,138.57,0.7480000257492065,-0.0641470467220093
138.724138,,1.0482971466181449e-05,139.036,0.7990000247955322,0.04618038680191038
139.189655,,1.0599147895140389e-05,139.501,0.7889999747276306,0.023584524087633212
139.655172,,1.0682562329103972e-05,139.967,0.7649999856948853,-0.029512014381430376
140.12069,,1.0731502408587273e-05,140.437,0.7699999809265137,-0.01940290458620826
140.586207,,1.0744304686162823e-05,140.899,0.765999972820282,-0.028852483342960325
141.05172399999998,,1.0719362667316788e-05,141.363,0.7590000033378601,-0.04476597941826378
141.51724099999998,,1.0655134995570248e-05,141.825,0.8820000290870667,0.2226394119733021
141.982759,,1.0550153758923204e-05,142.291,0.7940000295639038,0.030464527925838446
142.44827600000002,,1.0403032893255809e-05,142.755,0.7789999842643738,-0.002541948390989847
142.913793,,1.0212476656923545e-05,143.222,0.7689999938011169,-0.024520894639690274
143.37931,,9.977288149416796e-06,143.688,0.7649999856948853,-0.033289408417266866
143.844828,,9.696377845626672e-06,144.154,0.7879999876022339,0.016905047288685734
144.310345,,9.368772115974419e-06,144.619,0.7870000004768372,0.014948487903056184
144.77586200000002,,8.993621701427716e-06,145.085,0.765999972820282,-0.03045253521305212
145.241379,,8.570210111250366e-06,145.545,0.7870000004768372,0.01576608002798498
145.706897,,8.097961910218782e-06,146.011,0.7699999809265137,-0.02070329140465407
146.172414,,7.5764508609961584e-06,146.481,0.7699999809265137,-0.020053654641689376
146.637931,,7.005407886389892e-06,146.944,0.7870000004768372,0.017693917269875667
147.103448,,6.38472881533658e-06,147.407,0.7620000243186951,-0.03602359500437923
147.568966,,5.714481875668565e-06,147.87,0.7860000133514404,0.017026733777522805
148.034483,,4.99491489602313e-06,148.341,0.7860000133514404,0.01777985334299089
148.5,,4.226462178666853e-06,148.803,0.765999972820282,-0.025073404530844348
148.965517,,3.409751004529922e-06,149.269,0.7870000004768372,0.021341917359638005
149.43103399999998,,2.5456077313847914e-06,149.732,0.7689999938011169,-0.017286873263245784
149.89655199999999,,1.6350634458668752e-06,150.198,0.7850000262260437,0.018063750914742535
150.362069,,6.793591299281623e-07,150.663,0.7839999794960022,0.016267729770636574
150.82758600000003,,3.200496976563049e-07,151.128,0.7620000243186951,-0.03140069498126759
151.293103,,1.3614889039384393e-06,151.593,0.765999972820282,-0.02255367029203818
151.758621,,2.443062267495105e-06,152.059,0.7870000004768372,0.023198142305666906
152.224138,,3.5626486455953678e-06,152.526,0.7820000052452087,0.012174264165161652
152.68965500000002,,4.717899820630743e-06,152.991,0.7839999794960022,0.016275368061604293
153.155172,,5.906239062812825e-06,153.452,0.7870000004768372,0.022438712016273427
153.62069,,7.124860445187317e-06,153.922,0.7580000162124634,-0.04121907002976321
154.086207,,8.370728945888344e-06,154.385,0.7590000033378601,-0.03960699956360294
154.551724,,9.640581371258614e-06,154.848,0.7860000133514404,0.01857898462336612
155.017241,,1.0930928131986784e-05,155.311,0.7540000081062317,-0.051825252603683244
155.482759,,1.223805590276087e-05,155.781,0.7839999794960022,0.01281886514415433
155.948276,,1.3558031194103815e-05,156.246,0.7839999794960022,0.012099168023753541
156.413793,,1.4886704863043322e-05,156.712,0.8230000138282776,0.09636667021418904
156.87931,,1.621971758707205e-05,157.17,0.7839999794960022,0.01074201774604425
157.34482799999998,,1.7552506323476063e-05,157.636,0.7649999856948853,-0.031247458595256985
157.81034499999998,,1.888031177354985e-05,158.102,0.7910000085830688,0.02488188778088819
158.275862,,2.0198186868476532e-05,158.57,0.781000018119812,0.002675608811827705
158.741379,,2.1501006290733847e-05,159.036,0.7620000243186951,-0.03903035977437922
159.20689700000003,,2.27834770417931e-05,159.5,0.7599999904632568,-0.04358303735755215
159.672414,,2.4040150063612788e-05,159.966,0.8009999990463257,0.04566836150082986
160.137931,,2.526543291799522e-05,160.427,0.7889999747276306,0.019576113691539537
160.60344800000001,,2.6453603524278376e-05,160.89,0.7639999985694885,-0.034716274263694155
161.06896600000002,,2.7598824952081878e-05,161.36,0.7789999842643738,-0.0017478246632072255
161.534483,,2.8695161261922255e-05,161.822,0.7509999871253967,-0.062356696580459406
162.0,,2.973659438246576e-05,162.287,0.7990000247955322,0.04270334334727966
162.465517,,3.0717042009005416e-05,162.75,0.7839999794960022,0.010584788053404737
162.931034,,3.163037650344163e-05,163.216,0.765999972820282,-0.028011473436207444
163.396552,,3.2470444771622316e-05,163.681,0.765999972820282,-0.02735489736028226
163.862069,,3.323108908937014e-05,164.146,0.7699999809265137,-0.017967934337714028
164.327586,,3.3906168843902764e-05,164.611,0.7860000133514404,0.017557647585105536
164.793103,,3.448958315264897e-05,165.077,0.7739999890327454,-0.007944981350984903
165.258621,,3.4975294316692934e-05,165.542,0.7649999856948853,-0.026958019273783967
165.72413799999998,,3.535735206125461e-05,166.007,0.7860000133514404,0.01932334781888408
166.189655,,3.562991851075069e-05,166.47,0.7739999890327454,-0.006371944059055987
166.655172,,3.578729384109449e-05,166.94,0.7680000066757202,-0.01909023231132163
167.12069,,3.582394254699959e-05,167.403,0.7860000133514404,0.020373353745053828
167.58620699999997,,3.573452025716929e-05,167.866,0.7979999780654907,0.04665289348981034
168.051724,,3.551390102539923e-05,168.337,0.7699999809265137,-0.0143288234731011
168.517241,,3.515720502081257e-05,168.8,0.7870000004768372,0.02261292833974351
168.98275900000002,,3.4659826535705074e-05,169.265,0.7689999938011169,-0.016810348637463245
169.44827600000002,,3.401746222482096e-05,169.729,0.7699999809265137,-0.014944587722083565
169.913793,,3.322613948532962e-05,170.195,0.777999997138977,0.0020769571465032713
170.37931,,3.228224488234957e-05,170.66,0.7879999876022339,0.02337499513205155
170.844828,,3.118255252059009e-05,171.126,0.7950000166893005,0.0380731270212579
171.310345,,2.9924252258574557e-05,171.585,0.7620000243186951,-0.03442099556400968
171.775862,,2.8504977657994407e-05,172.05,0.777999997138977,-0.00018910319645184907
172.241379,,2.6922833557041866e-05,172.515,0.9660000205039978,0.40876642414364894
172.706897,,2.517642315310431e-05,172.981,0.7870000004768372,0.018177422553541333
173.172414,,2.326487447699701e-05,173.452,0.7480000257492065,-0.06736559860900775
173.637931,,2.1187866137986002e-05,173.913,0.781000018119812,0.004002600935368511
174.103448,,1.8945652216231746e-05,174.382,0.7850000262260437,0.012255263079184928
174.568966,,1.653908617698952e-05,174.844,0.7860000133514404,0.014051969968221183
175.034483,,1.3969643678956439e-05,175.307,0.7850000262260437,0.011582961109218196
175.5,,1.1239444147579535e-05,175.77,0.7620000243186951,-0.03871683749806745
175.96551699999998,,8.351270982956165e-06,176.236,0.7879999876022339,0.017841515412719878
176.43103399999998,,5.308590271188236e-06,176.703,0.7820000052452087,0.004790049116888181
176.896552,,2.115567867716019e-06,177.169,0.765999972820282,-0.029942576714234927
177.36206900000002,,1.2229152787243789e-06,177.634,0.7649999856948853,-0.03189529591193817
177.827586,,4.701249692284404e-06,178.1,0.777999997138977,-0.003254673832697218
178.293103,,8.313085956008865e-06,178.566,0.7699999809265137,-0.02028370404150709
178.758621,,1.2051325445753829e-05,179.025,0.7680000066757202,-0.0241718107082796
179.224138,,1.590811333798916e-05,179.493,0.777999997138977,-0.0018623709825890903
179.68965500000002,,1.987483401480072e-05,179.955,0.7860000133514404,0.016127506291498513
180.155172,,2.3942108986195474e-05,180.422,0.7979999780654907,0.04285254759446225
180.62069,,2.80997974460343e-05,180.886,0.8529999852180481,0.16326363362751753
181.086207,,3.233699957356072e-05,181.356,0.765999972820282,-0.025707176747846262
181.551724,,3.6642062687550184e-05,181.818,0.7950000166893005,0.03801220827456752
182.01724099999998,,4.100259035456554e-05,182.284,0.6940000057220459,-0.1815453747475355
182.482759,,4.5405454546664654e-05,182.747,0.7820000052452087,0.010592737918392641
182.948276,,4.9836810937161174e-05,183.212,0.7870000004768372,0.02182275654785904
183.413793,,5.428211741568671e-05,183.678,0.765999972820282,-0.023680937079637247
183.87931,,5.872615589584309e-05,184.144,0.7850000262260437,0.017865223875358004
184.34482799999998,,6.315305748016812e-05,184.611,0.7960000038146973,0.04188215540727181
184.81034499999998,,6.754633103797215e-05,185.077,0.7739999890327454,-0.006096788670296995
185.27586200000002,,7.188889524184198e-05,185.537,0.7940000295639038,0.03732913203611418
185.74137900000002,,7.61631140982629e-05,186.003,0.7649999856948853,-0.026092422675111585
186.206897,,8.035083599688983e-05,186.47,0.7710000276565552,-0.013346999764821578
186.672414,,8.443343629151912e-05,186.932,0.8069999814033508,0.0646829289407821
187.137931,,8.839186341378973e-05,187.4,0.7889999747276306,0.025005303643805023
187.60344800000001,,9.220668850809593e-05,187.863,0.7710000276565552,-0.014718242718923283
188.06896600000002,,9.585815856314555e-05,188.326,0.777999997138977,-6.470535110919291e-06
188.534483,,9.932625300207192e-05,188.796,0.7599999904632568,-0.039774952474260744
189.0,,0.00010259074367903246,189.261,0.7900000214576721,0.02503517487153989
189.465517,,0.00010563125821583193,189.721,0.7739999890327454,-0.010351626534898814
189.931034,,0.00010842734659732706,190.187,0.7950000166893005,0.03490961560443179
190.39655199999999,,0.0001109585509292381,190.653,0.7720000147819519,-0.015636661537664635
190.862069,,0.00011320447824654826,191.118,0.7699999809265137,-0.020365370595378136
191.327586,,0.00011514487624495745,191.585,0.7649999856948853,-0.03155328886405408
191.793103,,0.00011675971179191589,192.051,0.7889999747276306,0.020525259878599097
192.25862099999998,,0.00011802925205764234,192.516,0.7860000133514404,0.013872874119187167
192.72413799999998,,0.00011893414809028023,192.975,0.75,-0.06457977930439815
193.189655,,0.00011945552064301602,193.444,0.7870000004768372,0.01610366318839074
193.655172,,0.00011957504804463055,193.907,0.7630000114440918,-0.036018385898707574
194.12069000000002,,0.00011927505588863466,194.37,0.7870000004768372,0.01652130510754622
194.586207,,0.00011853860829991223,194.84,0.7739999890327454,-0.01147058823937416
195.051724,,0.0001173496005217206,195.3,0.7649999856948853,-0.030680444056556504
195.517241,,0.00011569285255004275,195.77,0.7910000085830688,0.026416944828270974
195.98275900000002,,0.00011355420352671228,196.236,0.7689999938011169,-0.021020556297148576
196.448276,,0.00011092060658750977,196.696,0.7630000114440918,-0.03357538663096926
196.913793,,0.00010778022384662559,197.162,0.7910000085830688,0.027951548004612373
197.37931,,0.00010412252118457102,197.629,0.7950000166893005,0.037183156744857684
197.844828,,9.993836249286707e-05,198.095,0.7850000262260437,0.015890196976803148
198.310345,,9.522010301572194e-05,198.56,0.824999988079071,0.10349114986291809
198.775862,,8.996168141649779e-05,199.026,0.8690000176429749,0.19975635814403014
199.241379,,8.415871018513819e-05,199.489,0.7990000247955322,0.04759347941336295
199.706897,,7.780856399195515e-05,199.951,0.7870000004768372,0.021717410420464517
200.172414,,7.091046558333297e-05,200.415,0.7680000066757202,-0.01949442176838693
200.63793099999998,,6.346556880607025e-05,200.884,0.7820000052452087,0.011097527654438409
201.103448,,5.547703833932508e-05,201.345,0.8009999990463257,0.05248888551471555
201.568966,,4.69501257065248e-05,201.814,0.7699999809265137,-0.015145405938699053
202.034483,,3.78922411342246e-05,202.28,0.8069999814033508,0.065278451416505
202.5,,2.8313020820818053e-05,202.743,0.7739999890327454,-0.006886884168935006
202.965517,,1.8224389175288357e-05,203.208,0.7580000162124634,-0.04209100110768062
203.431034,,7.64061558490854e-06,203.674,0.7860000133514404,0.018499989848424048
203.896552,,3.4216347289822196e-06,204.14,0.7620000243186951,-0.034250585272430446
204.36206900000002,,1.4943256206217797e-05,204.6,0.7870000004768372,0.019715749641523273
204.827586,,2.6902665229748217e-05,205.065,0.7599999904632568,-0.039628402988526205
205.293103,,3.927576962489279e-05,205.533,0.7649999856948853,-0.029260228083171372
205.758621,,5.203594579969542e-05,205.999,0.7870000004768372,0.018157553062347905
206.224138,,6.515402394157917e-05,206.462,0.8510000109672546,0.1571097189574115
206.689655,,7.859828167507664e-05,206.925,0.7870000004768372,0.017242900717624583
207.155172,,9.233444657312573e-05,207.393,0.7879999876022339,0.019049051651900566
207.62069,,0.00010632570790023277,207.855,0.7699999809265137,-0.020468068172978856
208.086207,,0.00012053273794968604,208.326,0.7630000114440918,-0.035940223717550644
208.551724,,0.0001349137233189289,208.788,0.7860000133514404,0.014033538239844613
209.01724099999998,,0.00014942440644715506,209.254,0.7599999904632568,-0.04265564302396633
209.482759,,0.00016401813771715573,209.718,0.7749999761581421,-0.009928240372817951
209.948276,,0.00017864593839942683,210.183,0.7639999985694885,-0.03375545330326048
210.413793,,0.00019325657469053314,210.649,0.7990000247955322,0.04272142994990218
210.87930999999998,,0.00020779664306973646,211.114,0.7860000133514404,0.014702925496602974
211.344828,,0.0002222106671679418,211.581,0.7910000085830688,0.025970458184124613
211.810345,,0.00023644120631112416,212.04,0.7879999876022339,0.019866941802287
212.27586200000002,,0.00025042897586660185,212.511,0.7570000290870667,-0.0471949464991031
212.741379,,0.00026411297948486013,212.977,0.6700000166893005,-0.23623577117710917
213.206897,,0.00027743065329215096,213.437,0.7609999775886536,-0.03746969709181664
213.672414,,0.00029031802204985843,213.9,0.7940000295639038,0.03492859707533813
214.137931,,0.0003027098672556926,214.367,0.7950000166893005,0.03759077668627189
214.60344800000001,,0.00031453990711923153,214.836,0.7620000243186951,-0.03385545697527225
215.068966,,0.00032574098830025905,215.295,0.7649999856948853,-0.02692010880053789
215.534483,,0.00033624528925283906,215.76,0.7739999890327454,-0.006975360370451495
216.0,,0.00034598453497122414,216.226,0.7820000052452087,0.010718163926614422
216.465517,,0.0003548902228856364,216.692,0.7770000100135803,8.737385923236654e-06
216.93103399999998,,0.00036289385960679995,217.158,0.6570000052452087,-0.2613338521589927
217.39655199999999,,0.00036992720816798067,217.623,0.7689999938011169,-0.017323658898925627
217.862069,,0.0003759225453623389,218.089,0.7850000262260437,0.017444939562787413
218.327586,,0.00038081292872177414,218.555,0.7649999856948853,-0.02630388128918844
218.793103,,0.0003845324726312974,219.021,0.7870000004768372,0.021370612985363083
219.25862099999998,,0.00038701663302047524,219.481,0.7649999856948853,-0.026887211555967808
219.724138,,0.00038820250002082274,219.951,0.7739999890327454,-0.00766822957222546
220.18965500000002,,0.0003880290979253664,220.415,0.7829999923706055,0.011501954997353597
220.65517200000002,,0.00038643769173414246,220.877,0.765999972820282,-0.02600743947414539
221.12069,,0.0003833720995173474,221.345,0.7620000243186951,-0.03521442914663451
221.586207,,0.00037877900977641556,221.807,0.902999997138977,0.27148011649142056
222.051724,,0.0003726083029326792,222.272,0.7839999794960022,0.01174197716707639
222.517241,,0.0003648133760236908,222.735,0.7549999952316284,-0.05188904718615922
222.98275900000002,,0.0003553514696389814,223.201,0.7850000262260437,0.013059983451915856
223.448276,,0.000344183996080226,223.667,0.7680000066757202,-0.024335060882829832
223.913793,,0.00033127686768571633,224.133,0.7850000262260437,0.012407742093425177
224.37931,,0.00031660082421594387,224.6,0.7990000247955322,0.04268769263555336
224.844828,,0.0003001317581562156,225.065,0.7860000133514404,0.014224380405737749
225.31034499999998,,0.0002818510367538153,225.53,0.781000018119812,0.0032742655562064773
225.775862,,0.0002617458195715283,225.996,0.7870000004768372,0.016374244002137883
226.241379,,0.000239809370306601,226.459,0.7910000085830688,0.025200877836798828
226.706897,,0.0002160413615946395,226.922,0.7910000085830688,0.025393132123811345
227.172414,,0.0001904481714918454,227.385,0.7630000114440918,-0.03534341871157225
227.63793099999998,,0.00016304317030662086,227.855,0.7860000133514404,0.01509521484863164
228.103448,,0.00013384699643317083,228.319,0.777999997138977,-0.0019506688765906525
228.56896600000002,,0.00010288781982542066,228.781,0.7630000114440918,-0.034205751921998276
229.03448300000002,,7.020159173954677e-05,229.247,0.7910000085830688,0.027248707189504923
229.5,,3.583227936810015e-05,229.712,0.7870000004768372,0.019000527151834624
229.965517,,1.679160114734687e-07,230.177,0.7649999856948853,-0.028463818399050496
230.431034,,3.773835874614509e-05,230.644,0.7839999794960022,0.01338097893433484
230.896552,,7.68097977369813e-05,231.11,0.7699999809265137,-0.016699009237891214
231.362069,,0.00011730420593719026,231.574,0.765999972820282,-0.025035068878930023
231.827586,,0.00015913464174575822,232.04,0.7870000004768372,0.021041102840378696
232.293103,,0.00020220513359560586,232.505,0.7850000262260437,0.016945174452931543
232.758621,,0.0002464105890008558,232.97,0.7720000147819519,-0.011186812203074796
233.224138,,0.00029163672929086734,233.433,0.781000018119812,0.008534814951240637
233.689655,,0.0003377600512185795,233.896,0.7620000243186951,-0.03282578936336701
234.155172,,0.00038464781657956965,234.367,0.7620000243186951,-0.03287325363922487
234.62069,,0.0004321580709107985,234.829,0.7870000004768372,0.021466359931191552
235.086207,,0.00048013969226598963,235.295,0.7870000004768372,0.021266062704400474
235.55172399999998,,0.0005284324710080442,235.76,0.7699999809265137,-0.016038201551520755
236.01724099999998,,0.0005768672215096354,236.226,0.7870000004768372,0.020673211158928874
236.482759,,0.0006252659265633563,236.685,0.7620000243186951,-0.034166781406099835
236.94827600000002,,0.000673441915151197,237.151,0.7860000133514404,0.01771056860482225
237.413793,,0.0007212000740910963,237.618,0.7699999809265137,-0.017581374633286583
237.87931,,0.0007683370940747128,238.084,0.7870000004768372,0.019012745873187704
238.344828,,0.0008146417506550849,238.548,0.7820000052452087,0.007681163548875762
238.810345,,0.000859895220547831,239.014,0.765999972820282,-0.02759758932414387
239.27586200000002,,0.0009038714331109968,239.477,0.7960000038146973,0.03737254086570125
239.741379,,0.0009463374566074533,239.94,0.7710000276565552,-0.01743990002890794
240.206897,,0.0009870539193933738,240.408,0.7680000066757202,-0.024268939241555154
240.672414,,0.0010257754668546754,240.87,0.7889999747276306,0.021251384080256563
241.137931,,0.0010622512540441943,241.341,0.7870000004768372,0.016732202038702428
241.603448,,0.001096225471572864,241.803,0.7599999904632568,-0.042179577173986404
242.068966,,0.001127437901859992,242.269,0.8610000014305115,0.17785261076114284
242.534483,,0.0011556245070939056,242.732,0.7680000066757202,-0.024694985461701225
243.0,,0.0011805180542245781,243.198,0.7940000295639038,0.032091120651036885
243.465517,,0.0012018487764003686,243.663,0.7870000004768372,0.01705018290026713
243.93103399999998,,0.0012193450570318,244.129,0.7609999775886536,-0.039323969291834585
244.39655199999999,,0.0012327341239080066,244.596,0.7599999904632568,-0.041180803533529715
244.862069,,0.0012417427686261173,245.055,0.7680000066757202,-0.023389620787908388
245.327586,,0.001246098125880803,245.527,0.7979999780654907,0.04236115569975275
245.793103,,0.0012455285049495998,245.985,0.7839999794960022,0.012269440175167474
246.258621,,0.0012397641920186067,246.455,0.7870000004768372,0.019220022735499505
246.724138,,0.0012285381696507647,246.918,0.7799999713897705,0.004375980105180241
247.18965500000002,,0.0012115868729355038,247.381,0.7889999747276306,0.024369715407880792
247.655172,,0.0011886511828300406,247.851,0.7950000166893005,0.037795340652130215
248.12069,,0.00115947756523655,248.315,0.7680000066757202,-0.020717730763280744
248.586207,,0.0011238188646356781,248.777,0.7889999747276306,0.025291270257326387
249.051724,,0.0010814345422822517,249.243,0.777999997138977,0.001522997189790098
249.517241,,0.001032091194900339,249.707,0.777999997138977,0.0016534881136683836
249.982759,,0.0009755644456719769,250.173,0.7699999809265137,-0.015715506328617453
250.44827600000002,,0.0009116413524458628,250.638,0.7950000166893005,0.03873961386233568
250.913793,,0.0008401203987470832,251.103,0.7889999747276306,0.025586603867793822
251.37931000000003,,0.0007608084775313073,251.57,0.781000018119812,0.008009823818701856
251.844828,,0.0006735204231683563,252.035,0.7860000133514404,0.018693535503297984
252.31034499999998,,0.0005780867286127513,252.5,0.5860000252723694,-0.41730432257578787
252.77586200000002,,0.00047436251279550076,252.965,0.7699999809265137,-0.016754535613462095
253.241379,,0.0003622206071567914,253.426,0.7620000243186951,-0.034545029871999394
253.706897,,0.00024152934789673373,253.896,0.7850000262260437,0.015178284508092763
254.172414,,0.00011215075948285081,254.359,0.7950000166893005,0.03656850856692792
254.63793099999998,,2.601361891755017e-05,254.822,0.7770000100135803,-0.0030406867893607403
255.10344800000001,,0.00017298091227177102,255.287,0.765999972820282,-0.027384671002356524
255.56896600000002,,0.00032874633728017865,255.75,0.7839999794960022,0.011478653961745104
256.03448299999997,,0.0004934152549315793,256.216,0.7710000276565552,-0.017158349723814772
256.5,,0.0006671850654769452,256.685,0.7879999876022339,0.01961157692250322
256.965517,,0.0008500580995380362,257.151,0.7609999775886536,-0.03942333452263848
257.431034,,0.0010416488069433492,257.614,0.7870000004768372,0.017071941258440262
257.896552,,0.0012416194296345823,258.08,0.765999972820282,-0.028763431472406134
258.362069,,0.0014504232397511171,258.544,0.7699999809265137,-0.02006472186431232
258.827586,,0.0016690009327033127,259.01,0.781000018119812,0.003952148161800319
259.29310300000003,,0.0018970096713589728,259.47,0.7680000066757202,-0.02425323521272439
259.758621,,0.002132034363088639,259.94,0.7039999961853027,-0.1635102218319281
260.224138,,0.002372599840965265,260.4,0.7839999794960022,0.011010339358410746
260.689655,,0.0026221954179451597,260.87,0.8240000009536743,0.09843177117217856
261.155172,,0.002886291533518083,261.333,0.7599999904632568,-0.04068713140154647
261.62068999999997,,0.0031616847227175157,261.796,0.8109999895095825,0.07076668394385803
262.086207,,0.0034341331446004894,262.262,0.7990000247955322,0.04498281591379927
262.551724,,0.0036983804553568913,262.728,0.7950000166893005,0.0366337328249132
263.017241,,0.0039789912914646956,263.193,0.7879999876022339,0.021741816581681665
263.482759,,0.004305798251988279,263.659,0.7649999856948853,-0.02802776926164818
263.94827599999996,,0.004651474392966101,264.124,0.7870000004768372,0.020210955233108466
264.413793,,0.004932224394425441,264.589,0.7789999842643738,0.0030495191945929803
264.87931,,0.005136703800754736,265.054,0.7789999842643738,0.0032683011141995933
265.34482799999995,,0.0054274278016537576,265.518,0.7870000004768372,0.02086046585672879
265.810345,,0.005956533952634097,265.984,0.7680000066757202,-0.020431772740935873
266.27586199999996,,0.006510229635677046,266.445,0.8009999990463257,0.05150201186718217
266.741379,,0.006604262329017439,266.914,0.7870000004768372,0.020975417311558484
267.206897,,0.0062932911187793435,267.378,0.7680000066757202,-0.02050725904928778
267.672414,,0.006626552804440179,267.84,0.7860000133514404,0.018559960213745664
268.137931,,0.008347443867333975,268.308,0.7860000133514404,0.0183569903206888
268.603448,,0.009833033572423594,268.77,0.7699999809265137,-0.016751803924336665
269.06896600000005,,0.007717677766946539,269.236,0.7850000262260437,0.01563861722138043
269.53448299999997,,0.000926136692514015,269.701,0.7889999747276306,0.024034788448106727
270.0,,0.007000477239302188,270.167,0.7710000276565552,-0.015517160262113066
270.465517,,0.011361096391533886,270.634,0.7739999890327454,-0.009325011475548615
270.931034,,0.011170400072635539,271.099,0.9150000214576721,0.2975274089643911
271.396552,,0.008977500413708544,271.56,0.7739999890327454,-0.009979076158574275
271.86206899999996,,0.007102794763047403,272.025,0.7950000166893005,0.035484074694379614
272.327586,,0.005965854871155033,272.5,0.7870000004768372,0.017801818994456972
272.793103,,0.0052218006751165585,272.958,0.7860000133514404,0.015413714713078189
273.258621,,0.0047046456029129395,273.426,0.7860000133514404,0.015254055360250875
273.724138,,0.004344808475947331,273.889,0.7739999890327454,-0.010995072750746059
274.18965499999996,,0.00413961338539684,274.352,0.8029999732971191,0.05213789663058399
274.655172,,0.004177955894613308,274.821,0.7850000262260437,0.01293358326994092
275.12069,,0.004150636041826791,275.28,0.7839999794960022,0.010824175884849449
275.586207,,0.0030603495171170722,275.749,0.7680000066757202,-0.02391013661224868
276.051724,,0.00021970022653520227,276.215,0.7860000133514404,0.015479478846310702
276.517241,,0.0032964579405537872,276.675,0.7649999856948853,-0.03005449069192597
276.98275900000004,,0.005021611664707639,277.14,0.7910000085830688,0.02684457569786961
277.448276,,0.0036087908328330644,277.608,0.7990000247955322,0.04455652723741431
277.913793,,0.00047933693324535574,278.073,0.7749999761581421,-0.007428945589592909
278.37931,,0.0019024559042473109,278.54,0.7839999794960022,0.012490020569704332
278.844828,,0.0029974773320410124,279.006,0.753000020980835,-0.05473892171585833
279.31034500000004,,0.004163006252578345,279.467,0.7820000052452087,0.00873842052875084
279.77586199999996,,0.005776690909321798,279.937,0.7770000100135803,-0.0018799650565210907
280.241379,,0.006201620140263066,280.4,0.7540000081062317,-0.05174459361599832
280.706897,,0.004430874600044602,280.862,0.7850000262260437,0.01599927413694269
281.172414,,0.0021475180233388944,281.33,0.7820000052452087,0.009624699062939434
281.637931,,0.0016297678609147562,281.792,0.765999972820282,-0.02512130821690644
282.10344799999996,,0.0026708875060694817,282.258,0.7749999761581421,-0.005453677513667463
282.568966,,0.003356017888911685,282.721,0.7630000114440918,-0.031591933771347884
283.034483,,0.0032035106377319607,283.187,0.7870000004768372,0.020647260368225125
283.5,,0.0034798421689636655,283.652,0.7870000004768372,0.020547842619013445
283.965517,,0.004515817235346888,284.118,0.7620000243186951,-0.034065092168134005
284.431034,,0.004793874909031538,284.585,0.7649999856948853,-0.027718959807312996
284.89655200000004,,0.003313872305908921,285.051,0.7870000004768372,0.019985318439998775
285.362069,,0.0012659575068603413,285.511,0.765999972820282,-0.02602047655073254
285.827586,,0.00035116399430985443,285.977,0.7900000214576721,0.025993730478266683
286.293103,,0.00045276206214274614,286.444,0.7839999794960022,0.012638441659049338
286.758621,,4.217103428548209e-05,286.907,1.0190000534057617,0.5243420508118287
287.22413800000004,,0.0016379125249036557,287.375,0.7620000243186951,-0.035832918328391375
287.689655,,0.003726122386021868,287.838,0.7870000004768372,0.018391686114243667
288.155172,,0.00487025606156464,288.308,0.7990000247955322,0.044318085288055274
288.62069,,0.0045500767635222525,288.77,0.7829999923706055,0.009273365396425039
289.086207,,0.0033419367286029044,289.235,0.7870000004768372,0.017837964035000167
289.55172400000004,,0.002274762368546042,289.7,0.7649999856948853,-0.030202533275941273
290.01724099999996,,0.001932012772409442,290.166,0.7850000262260437,0.013302675560432343
290.482759,,0.002022452430321595,290.629,0.7620000243186951,-0.036830384379158025
290.948276,,0.0018552894007422807,291.095,0.7870000004768372,0.01765554666294552
291.413793,,0.0012329910114748299,291.56,0.7979999780654907,0.04168377956312831
291.87931,,0.0006869058860980012,292.026,0.8500000238418579,0.15507948013851205
292.344828,,0.0007573262216092065,292.489,0.7699999809265137,-0.019067247120347644
292.81034500000004,,0.0012989565141755123,292.952,0.8550000190734863,0.166297218204727
293.275862,,0.0017390791691583888,293.415,0.765999972820282,-0.027395752412889496
293.74137900000005,,0.0017889785898786662,293.885,0.7820000052452087,0.007688862161703219
294.206897,,0.0014689996855566973,294.345,0.7870000004768372,0.018818976695043947
294.672414,,0.0005414013502754718,294.815,0.765999972820282,-0.026692780912012142
295.13793100000004,,0.0014314325312323759,295.28,0.7860000133514404,0.017115252935321127
295.603448,,0.004114685263418858,295.743,0.7720000147819519,-0.013163163963011447
296.068966,,0.005863751059987354,296.209,0.7739999890327454,-0.00860252900351445
296.534483,,0.004829854576620227,296.673,0.7900000214576721,0.026434038015945523
297.0,,0.001010332558119642,297.139,0.7870000004768372,0.020046259127747105
297.46551700000003,,0.0029451735251387976,297.604,0.7789999842643738,0.0027312459426264146
297.931034,,0.003670507661160874,298.069,0.7699999809265137,-0.016799892280811423
298.396552,,0.0005260913202027571,298.533,0.7649999856948853,-0.027656215204534956
298.862069,,0.0030626494735725277,298.999,0.7870000004768372,0.02027088652077979
299.327586,,0.0027063866921837767,299.462,0.7710000276565552,-0.014629417150726005
299.79310300000003,,0.0020703664114571714,299.925,0.7820000052452087,0.009257133063906929
300.258621,,0.006941564581671831,300.396,0.781000018119812,0.0069668139922382235
300.724138,,0.007547891777798474,300.859,0.7689999938011169,-0.01931761170432266
301.189655,,0.004368218711217063,301.322,0.7080000042915344,-0.15238108269772024
301.65517200000005,,0.0017455065284964397,301.785,0.699999988079071,-0.16999821469678547
302.12069,,0.0025587684818584233,302.251,0.7860000133514404,0.01716258926640379
302.586207,,0.005090734002122739,302.718,0.7870000004768372,0.019133156604747483
303.05172400000004,,0.0052899968826474,303.184,0.765999972820282,-0.02682313125892936
303.517241,,0.0014519436696545603,303.649,0.8600000143051147,0.1777767414176982
303.982759,,0.003687141296991958,304.114,0.7820000052452087,0.0076681697239036
304.448276,,0.005602425934442359,304.582,0.7649999856948853,-0.02951951111676736
304.913793,,0.002710079874410978,305.04,0.7870000004768372,0.018286324331071302
305.37931000000003,,0.0019521072176704956,305.505,0.7870000004768372,0.018191967626692472
305.844828,,0.003973167835223505,305.97,0.7710000276565552,-0.016728102123864323
306.310345,,0.0018888026777703706,306.44,0.7549999952316284,-0.051615382884854025
306.775862,,0.0022130454658550935,306.903,0.7689999938011169,-0.021110778505163717
307.241379,,0.005700021277406133,307.366,0.7490000128746033,-0.0646490366315931
307.70689699999997,,0.007873951158314975,307.837,0.7720000147819519,-0.014476339599173556
308.172414,,0.009273039769322665,308.295,0.7670000195503235,-0.02527929924367115
308.637931,,0.009546522156956354,308.76,0.7699999809265137,-0.018630115050457093
309.103448,,0.007301081131739144,309.226,0.7879999876022339,0.020717845049318884
309.568966,,0.0022986363562053675,309.693,0.7839999794960022,0.012150075522063274
310.034483,,0.003227553183151241,310.159,0.7620000243186951,-0.03562431098972853
310.5,,0.006420591038936568,310.626,0.47200000286102295,-0.6672797881383103
310.96551700000003,,0.006652781841745093,311.091,0.7710000276565552,-0.015724577868909163
311.431034,,0.00570218756390836,311.556,0.8100000023841858,0.06937007218410807
311.896552,,0.005311582166936816,312.022,0.7850000262260437,0.01502253386879246
312.362069,,0.005594396679271152,312.485,0.7720000147819519,-0.013193790179125663
312.827586,,0.005875553202566983,312.947,0.7820000052452087,0.008682717402727658
313.29310300000003,,0.005869012987786864,313.415,0.7870000004768372,0.01964785530825091
313.758621,,0.005421817839628992,313.877,0.7689999938011169,-0.019515664593095526
314.224138,,0.0039823887631583845,314.341,0.7889999747276306,0.024088566280263894
314.689655,,0.0012196958332841984,314.811,0.7870000004768372,0.01974180451359663
315.155172,,0.002054598860269102,315.276,0.7580000162124634,-0.04344919905202973
315.62068999999997,,0.004216244080361149,315.739,0.8130000233650208,0.07634651814322609
316.086207,,0.004279730381687884,316.205,0.7850000262260437,0.015297101271950074
316.551724,,0.0028438981928091142,316.671,0.7670000195503235,-0.02398141134911891
317.017241,,0.001382679372226356,317.136,0.7820000052452087,0.008621424679924064
317.482759,,0.0007121675483847605,317.601,0.777999997138977,-0.00018118743831313142
317.94827599999996,,0.0005573081265785406,318.066,0.7630000114440918,-0.03295712784740379
318.413793,,0.0005094147486036777,318.526,0.7870000004768372,0.019228975810835446
318.87931000000003,,0.0005743553489369741,318.992,0.7699999809265137,-0.017911213314115586
319.344828,,0.0004731298941129712,319.456,0.7889999747276306,0.023381722659184756
319.810345,,0.0006817875672439599,319.926,0.7820000052452087,0.008034887268176728
320.275862,,0.0030898863966584288,320.388,0.765999972820282,-0.026912334208430613
320.741379,,0.005027160318795023,320.851,0.7950000166893005,0.036189663862086635
321.20689699999997,,0.004146951578069068,321.315,0.7699999809265137,-0.018343380484607392
321.672414,,0.000454798123882346,321.785,0.7599999904632568,-0.04018340472148776
322.137931,,0.0030460485267965213,322.25,0.7990000247955322,0.0447446170787407
322.603448,,0.0036303855674117242,322.711,0.765999972820282,-0.027174827166513326
323.068966,,0.002051047772085185,323.177,0.7789999842643738,0.0011390579871656723
323.53448299999997,,0.0012718622712330923,323.644,0.7889999747276306,0.022931968324188277
324.0,,0.0025099113965405713,324.11,0.7630000114440918,-0.03369206447932214
324.465517,,0.004037095736241899,324.574,0.753000020980835,-0.055445650421065674
324.931034,,0.0039025746143868975,325.04,0.7990000247955322,0.04481568135772725
325.396552,,0.0022422217726163676,325.504,0.8529999852180481,0.1625174347367428
325.86206899999996,,0.00019959041833170785,325.97,0.7850000262260437,0.014434968641093539
326.327586,,0.0020646788326233578,326.433,0.7889999747276306,0.023221942550478332
326.793103,,0.004820246901283336,326.896,0.7630000114440918,-0.03334770604067755
327.258621,,0.006878217885680924,327.367,0.7590000033378601,-0.041988084613459584
327.724138,,0.006147899374359783,327.829,0.765999972820282,-0.02666722689434445
328.189655,,0.002576239249694749,328.295,0.7829999923706055,0.01043472303916593
328.655172,,0.0008194205119480416,328.761,0.7620000243186951,-0.035258946907897395
329.12068999999997,,0.0009438097340965133,329.226,0.7889999747276306,0.02361393630176338
329.586207,,0.001782875888599708,329.686,0.7620000243186951,-0.035169457730001935
330.051724,,0.0037494063061554294,330.151,0.7929999828338623,0.032398527001621304
330.517241,,0.002153082050247876,330.619,0.8159999847412109,0.08252809321651873
330.982759,,0.001995774398289342,331.084,0.7910000085830688,0.02807419421236889
331.44827599999996,,0.0051424766324188855,331.552,0.781000018119812,0.006291206377834406
331.913793,,0.0048474782689028805,332.01,0.7839999794960022,0.01282147643039161
332.37931,,0.001739364672034451,332.478,0.8970000147819519,0.25899705294693426
332.844828,,0.00151162767780244,332.94,0.7630000114440918,-0.03295743574376902
333.310345,,0.0023373280000095575,333.411,0.7649999856948853,-0.028621314184884183
333.77586199999996,,0.00019304437708704281,333.873,0.7839999794960022,0.012745107494555243
334.241379,,0.004809177866794238,334.341,0.7870000004768372,0.019248332276198734
334.706897,,0.00872689983707457,334.803,0.9440000057220459,0.36126323105293484
335.17241399999995,,0.009759437314435458,335.269,0.8650000095367432,0.18912211075411986
335.637931,,0.008357754959547126,335.732,0.765999972820282,-0.026588165853424793
336.103448,,0.007128758179258712,336.198,0.7900000214576721,0.02567501743846902
336.56896600000005,,0.007807502128115915,336.663,0.7870000004768372,0.019113087453339145
337.034483,,0.009045582512447874,337.128,0.625,-0.3338579717658882
337.5,,0.007874490790803533,337.592,0.7860000133514404,0.016868028162322926
337.965517,,0.0033775568079576724,338.058,0.7739999890327454,-0.009315533422402544
338.431034,,0.0017791230306658363,338.523,0.7870000004768372,0.01896781120621816
338.89655200000004,,0.004010811244902675,338.989,0.7870000004768372,0.01893052640213413
339.36206899999996,,0.0026258924605616516,339.452,0.7739999890327454,-0.009426434939938982
339.827586,,0.0001128383636081072,339.922,0.7739999890327454,-0.009457722242045543
340.293103,,0.001255630632128951,340.382,0.7860000133514404,0.01665888895211969
340.758621,,0.0017304791112666695,340.845,0.8119999766349792,0.07328224419441413
341.224138,,0.0023597348200021366,341.315,0.765999972820282,-0.02695029384634203
341.68965499999996,,0.0023870673143212033,341.777,0.7870000004768372,0.0187931489646418
342.155172,,7.117316588991565e-05,342.243,0.765999972820282,-0.026960525654757074
342.62069,,0.004316463341648313,342.711,0.6499999761581421,-0.27968190132067156
343.086207,,0.008016412453951124,343.176,0.7630000114440918,-0.033491025939826516
343.551724,,0.008682768681408042,343.641,0.7910000085830688,0.027519027483246992
344.01724099999996,,0.0067124826790361134,344.1,0.7480000257492065,-0.06614783141298104
344.48275900000004,,0.004329082187110726,344.567,0.7979999780654907,0.04280668712345592
344.948276,,0.0031513608773836572,345.032,0.7860000133514404,0.016693051035238816
345.413793,,0.0030988284351985353,345.504,0.765999972820282,-0.02684225482375139
345.87931,,0.0032007581704309855,345.962,0.7699999809265137,-0.01808371148804292
346.344828,,0.0028761559201640505,346.426,0.7039999961853027,-0.16182675960768558
346.81034500000004,,0.0022167310081486623,346.895,0.7850000262260437,0.01469362412942624
347.275862,,0.001300386127587701,347.356,1.0570000410079956,0.6073437356206114
347.741379,,8.140758327266503e-05,347.826,0.7590000033378601,-0.041824011682218054
348.206897,,0.0016399742701282628,348.285,0.7699999809265137,-0.017784957950854968
348.672414,,0.0021022068125378965,348.755,0.7599999904632568,-0.03950134455453329
349.13793100000004,,0.000356186894785183,349.22,0.6330000162124634,-0.31612870764347556
349.60344799999996,,0.0029069656272278804,349.685,0.7789999842643738,0.0020014645597660236
350.068966,,0.005386959411719957,350.15,0.7490000128746033,-0.06332336111752186
350.534483,,0.005280073605495828,350.614,0.7870000004768372,0.0194879612185178
351.0,,0.0028677517688263598,351.08,0.7680000066757202,-0.021896097994754234
351.465517,,4.8594103842511124e-05,351.545,0.7879999876022339,0.02167441710426801
351.93103399999995,,0.0011814158990300517,352.011,0.7860000133514404,0.01730212883135515
352.396552,,0.00015324899840874308,352.474,0.7680000066757202,-0.021941189175031267
352.862069,,0.003529001652016322,352.936,0.7850000262260437,0.015055770534724917
353.32758600000005,,0.007048721161439144,353.404,0.7879999876022339,0.02154022377107015
353.793103,,0.008549352173858174,353.867,0.7739999890327454,-0.009022175747143365
354.258621,,0.007365689365890988,354.33,0.7839999794960022,0.012694344425191247
354.72413800000004,,0.005129888650939337,354.8,0.7879999876022339,0.021332405442559856
355.189655,,0.004348037941895455,355.266,0.7670000195503235,-0.024500275061708498
355.655172,,0.005870251098649115,355.729,0.7850000262260437,0.01463166287582138
356.12069,,0.007937873591545443,356.195,0.765999972820282,-0.026846832645580115
356.586207,,0.007850040177283947,356.66,0.781000018119812,0.005751113232633592
357.05172400000004,,0.004429147019846976,357.126,0.7879999876022339,0.020924729756417515
357.517241,,0.0010022279153112938,357.585,0.777999997138977,-0.0009307614707772177
357.982759,,0.00570283640286449,358.051,0.7870000004768372,0.018618110922851587
358.448276,,0.007763536729365621,358.516,0.7870000004768372,0.018571343933244014
358.913793,,0.0077177036779347424,358.981,0.7710000276565552,-0.016319982267559832
359.37931000000003,,0.007576533626666924,359.445,0.7870000004768372,0.01852012564798667
359.844828,,0.007951671942937652,359.915,0.7879999876022339,0.020696512133625066
360.310345,,0.007129759204040477,360.378,0.7620000243186951,-0.03593426458687592
360.775862,,0.0039035597152709653,360.84,0.7850000262260437,0.014204367634497166
361.241379,,0.00020442509760191274,361.311,0.7820000052452087,0.007713532176299152
361.706897,,0.0006956805337213105,361.774,0.7609999775886536,-0.037978620782857436
362.172414,,0.0017925233165372646,362.239,0.781000018119812,0.005666452209668771
362.63793100000004,,0.004798290847902665,362.703,0.7879999876022339,0.021000022903228294
363.103448,,0.0053179779631647855,363.169,0.765999972820282,-0.02683811070870617
363.568966,,0.0033738989456712156,363.636,0.7839999794960022,0.012475948431622193
364.034483,,0.0016998383392156338,364.095,0.7850000262260437,0.014756715575625627
364.5,,0.0028254269759762666,364.567,0.7689999938011169,-0.019998970692146973
364.96551700000003,,0.006510516219821723,365.025,0.7730000019073486,-0.011184403433012148
365.431034,,0.00971675336922082,365.493,0.7839999794960022,0.012874832693550302
365.896552,,0.009173153710990012,365.955,0.7839999794960022,0.012960721536124287
366.362069,,0.004354208153229297,366.425,0.7699999809265137,-0.017465538991863
366.827586,,0.001831659695322358,366.888,0.7720000147819519,-0.013047373112095376
367.29310300000003,,0.005294942621673866,367.356,0.7609999775886536,-0.036968329560134926
367.758621,,0.003940689351496639,367.818,0.7089999914169312,-0.1502332910645037
368.224138,,0.0009408775790248037,368.284,0.7870000004768372,0.019704939597634336
368.689655,,0.005997345909972215,368.746,0.7739999890327454,-0.008633770236860273
369.155172,,0.008320323888644773,369.212,0.7860000133514404,0.017475502832928456
369.62068999999997,,0.006962393404567908,369.678,0.7570000290870667,-0.045757693462463625
370.086207,,0.0029428130125277864,370.143,0.8090000152587891,0.06746327921548284
370.55172400000004,,0.0013983336903200072,370.608,0.7839999794960022,0.012914649688383099
371.017241,,0.0034347784854113633,371.074,0.7879999876022339,0.021535739843712563
371.482759,,0.0019253486788205865,371.541,0.7789999842643738,0.001825244696333662
371.948276,,0.0016861715028878882,372.006,0.7680000066757202,-0.022249229966897946
372.413793,,0.0041220904684758026,372.467,0.8130000233650208,0.07567724477085291
372.87931000000003,,0.003142141511479488,372.937,0.781000018119812,0.005848371451422018
373.344828,,0.00036996042715329945,373.4,0.765999972820282,-0.026940299552730064
373.810345,,0.003569167196750676,373.862,0.7889999747276306,0.023065457722601053
374.275862,,0.0047375391944671965,374.33,0.7870000004768372,0.018614248688420165
374.741379,,0.004536763733691065,374.792,0.7630000114440918,-0.03375537098476421
375.20689699999997,,0.004411045981807005,375.258,0.7990000247955322,0.04460808891868894
375.672414,,0.004963060019041993,375.721,0.765999972820282,-0.02733888237923568
376.137931,,0.0061132358928516935,376.187,0.8050000071525574,0.05759541436455922
376.603448,,0.0076041420797123335,376.651,0.7990000247955322,0.04451066588764348
377.068966,,0.008744515951408603,377.117,0.7850000262260437,0.01401768479254861
377.53448299999997,,0.00843145472898292,377.582,0.8450000286102295,0.14476614427844006
378.0,,0.005983522947346129,378.047,0.8429999947547913,0.1404608534895801
378.465517,,0.001798460411652887,378.512,0.7950000166893005,0.03595903097890858
378.931034,,0.002750074741966678,378.978,0.7870000004768372,0.018620079957807463
379.396552,,0.005901595578993641,379.44,0.7720000147819519,-0.013956628644798743
379.862069,,0.006414352323029506,379.911,0.75,-0.06177549959442046
380.327586,,0.004464414541971393,380.374,0.7820000052452087,0.00805731858337045
380.79310300000003,,0.0016668682291178195,380.837,0.7770000100135803,-0.002718032822594805
381.258621,,0.00011495036562507476,381.307,0.7649999856948853,-0.028745384916412795
381.724138,,0.00014519400621872068,381.77,0.7879999876022339,0.021475185543238687
382.189655,,0.0008491841653891944,382.236,0.7680000066757202,-0.021993892337432062
382.655172,,0.0013973112799823024,382.701,0.7710000276565552,-0.015364979577832713
383.12068999999997,,0.000405665663358501,383.166,0.7870000004768372,0.019572795427754253
383.586207,,0.0017410355542749668,383.626,0.7580000162124634,-0.043544057324460095
384.051724,,0.003043990392434621,384.092,0.7850000262260437,0.015325974618638095
384.517241,,0.0018135897930248136,384.555,0.7760000228881836,-0.004253702648738552
384.982759,,0.0009200363661580704,385.021,0.7860000133514404,0.017542380412590472
385.44827599999996,,0.0020964519223745704,385.485,0.7839999794960022,0.01317614386037713
385.913793,,0.0003342089441653192,385.954,0.7649999856948853,-0.02824533039710903
386.37931,,0.0021912004548843853,386.415,0.7680000066757202,-0.021754527806056904
386.84482799999995,,0.002316299111982181,386.885,0.7900000214576721,0.026114184299480266
387.310345,,0.0005963401850068877,387.348,0.765999972820282,-0.026249170096844146
387.775862,,0.004405870856995119,387.811,0.7850000262260437,0.015057717353743649
388.241379,,0.00668856490807369,388.276,0.765999972820282,-0.02643367927483334
388.70689699999997,,0.006684684068942251,388.746,0.7770000100135803,-0.0025720779654051875
389.172414,,0.005123551877578493,389.205,0.7620000243186951,-0.03535928621233545
389.637931,,0.0030341348235661124,389.67,0.7630000114440918,-0.03328926631340582
390.103448,,0.0011232285203108265,390.136,0.7770000100135803,-0.0028947238872828523
390.56896600000005,,0.00015866742267721997,390.6,0.7860000133514404,0.01661242118617743
391.03448299999997,,0.0006705663402009759,391.065,0.7609999775886536,-0.037945749886473326
391.5,,0.0007472563541089359,391.53,0.7599999904632568,-0.040205586799827546
391.965517,,0.0008545758054482675,391.996,0.7879999876022339,0.020728309478441273
392.431034,,0.0011129019451031083,392.464,0.7870000004768372,0.01849725679381813
392.896552,,0.0015631226245260955,392.926,0.777999997138977,-0.0011454551650813697
393.36206899999996,,0.002621228449817862,393.396,0.7820000052452087,0.007552450142932729
393.827586,,0.004543904369377388,393.859,0.7689999938011169,-0.020768520315375415
394.293103,,0.006536520292946392,394.322,0.7839999794960022,0.01193053089269998
394.75862099999995,,0.007165478699306736,394.792,0.7870000004768372,0.018503349734426393
395.224138,,0.005855561944830796,395.25,0.8100000023841858,0.06866616110129527
395.68965499999996,,0.0035634129133546044,395.722,0.7839999794960022,0.012090811138494915
396.155172,,0.0019391138733584352,396.18,0.7620000243186951,-0.03575730108016644
396.62069,,0.0021390763292332433,396.652,0.765999972820282,-0.026952098355269093
397.086207,,0.004156601792131738,397.11,0.7760000228881836,-0.005069025276153707
397.551724,,0.0066230036410135215,397.575,0.7889999747276306,0.023353302321667813
398.017241,,0.007505963018926359,398.041,0.7570000290870667,-0.046262749735130275
398.48275900000004,,0.005942302800534236,398.508,0.781000018119812,0.006122563924314828
398.94827599999996,,0.0033892124382411833,398.973,0.7680000066757202,-0.022107755450345632
399.413793,,0.0021714202074084098,399.437,0.7839999794960022,0.012834771694829009
399.87931,,0.0028826254581626864,399.9,0.675000011920929,-0.22456567312669568
400.344828,,0.0038839453000839917,400.37,0.859000027179718,0.17636390797005178
400.810345,,0.003376914349501675,400.833,0.777999997138977,-6.087354317444176e-05
401.27586199999996,,0.0013855397375110079,401.299,0.7820000052452087,0.008686846195739093
401.741379,,0.0005400630822086615,401.762,0.765999972820282,-0.026153643259131366
402.206897,,0.0012692296495918178,402.228,0.6779999732971191,-0.21787437470335366
402.672414,,0.0013143743703872993,402.693,0.7860000133514404,0.017401398569619524
403.137931,,0.001976344508050247,403.159,0.765999972820282,-0.026205972819549547
403.60344799999996,,0.003536927669399845,403.626,0.7649999856948853,-0.028432073078898217
404.068966,,0.004706166684599676,404.092,0.765999972820282,-0.026312713861106517
404.534483,,0.004065473921473125,404.552,0.7860000133514404,0.017191806418042074
405.0,,0.00196731968468383,405.018,0.7860000133514404,0.017117041973110626
405.465517,,0.0006775262677746536,405.481,0.7680000066757202,-0.022177193045417713
405.931034,,0.002252843057877052,405.951,0.7279999852180481,-0.10940451496544636
406.39655200000004,,0.0061594327626569535,406.415,0.7860000133514404,0.01687481758155499
406.862069,,0.009277023179153458,406.878,0.7770000100135803,-0.002812812867340489
407.327586,,0.00870089943954288,407.341,0.7820000052452087,0.008006368182341841
407.793103,,0.004693397190836863,407.811,0.7860000133514404,0.016654759727349134
408.258621,,0.0005721415812962127,408.277,0.7570000290870667,-0.04658303854821894
408.72413800000004,,0.0005591958418359184,408.739,0.8199999928474426,0.09062550007498489
409.18965499999996,,0.0012743083609782371,409.205,0.7910000085830688,0.02741135483805774
409.655172,,0.003444505195158956,409.67,0.7480000257492065,-0.06629118887814572
410.12069,,0.0037596171023032486,410.136,0.7829999923706055,0.009952022624783258
410.586207,,0.0025723417264743092,410.597,0.7549999952316284,-0.05104867987750729
411.05172400000004,,0.0020512633278898353,411.062,0.7860000133514404,0.016501456837719967
411.51724099999996,,0.0037391409898658878,411.526,0.7889999747276306,0.023059613915639276
411.982759,,0.006854335530355671,411.992,0.7730000019073486,-0.011766849074333691
412.448276,,0.008912765175769452,412.456,0.777999997138977,-0.0008340139397686169
412.913793,,0.008143370499772077,412.925,0.75,-0.06179104412576445
413.37931,,0.005270265795826237,413.385,0.7649999856948853,-0.02906294865793086
413.844828,,0.0026226836138041917,413.855,0.7789999842643738,0.0014884733138954965
414.31034500000004,,0.0016025571810272205,414.315,0.7910000085830688,0.027684093062880596
414.775862,,0.0016153256695778059,414.785,0.7649999856948853,-0.028908882796033725
415.241379,,0.0014332351599844588,415.251,0.7870000004768372,0.019071819798804963
415.706897,,0.0006950035627418833,415.71,0.847000002861023,0.14983977771846468
416.172414,,0.0002489313211891317,416.176,0.7870000004768372,0.019168756445295643
416.63793100000004,,0.001142508642070087,416.64,0.781000018119812,0.0061413558027438725
417.103448,,0.001973261854229219,417.106,0.7850000262260437,0.014894598663361989
417.568966,,0.0028953233042470173,417.571,0.7630000114440918,-0.03300415341954402
418.034483,,0.0043309916600183735,418.037,0.7870000004768372,0.01930699473841659
418.5,,0.0064528132598903115,418.504,0.7689999938011169,-0.019893269282828648
418.96551700000003,,0.008214448157775363,418.969,0.7900000214576721,0.025865815230585478
419.43103399999995,,0.00782514367406894,419.43,0.7739999890327454,-0.008992963270864943
419.896552,,0.004921141671029676,419.9,0.7739999890327454,-0.00900079148123514
420.362069,,0.0014883957098092051,420.363,0.7839999794960022,0.012770847209920236
420.827586,,0.00027523913531842296,420.826,0.765999972820282,-0.026465854086139225
421.293103,,0.0004010771067861719,421.291,0.7570000290870667,-0.04610044817554436
421.758621,,0.0005513592048435648,421.755,0.7879999876022339,0.02140584383193149
422.22413800000004,,0.001578724113594104,422.221,0.7850000262260437,0.014835506429336441
422.689655,,0.0026771542555294467,422.686,0.7649999856948853,-0.028773457470876524
423.15517200000005,,0.0025403922897328283,423.152,0.7820000052452087,0.008227012338740996
423.62069,,0.0005250067498748645,423.619,0.7870000004768372,0.019084410339497117
424.086207,,0.0028299673992585378,424.085,0.7630000114440918,-0.03323712343735441
424.55172400000004,,0.00559899288675832,424.552,0.7870000004768372,0.01901886388524246
425.017241,,0.0054296073379332494,425.01,0.7839999794960022,0.012454857454312362
425.482759,,0.0018426791525048218,425.478,0.7950000166893005,0.03639674739457605
425.948276,,0.002703000052911427,425.94,0.7620000243186951,-0.03551721277948927
426.413793,,0.004952179728012278,426.411,0.7609999775886536,-0.037710622498984256
426.87931000000003,,0.003969617359885591,426.873,0.7870000004768372,0.018923397920969143
427.344828,,0.0017019117845302068,427.337,0.7680000066757202,-0.02247757480852083
427.810345,,0.0007833315185897763,427.807,0.7749999761581421,-0.007229799605919236
428.275862,,0.002146245001472901,428.265,0.7599999904632568,-0.03990895885860889
428.741379,,0.0044504702690780305,428.736,0.7649999856948853,-0.029012643676353016
429.20689699999997,,0.005475899740150265,429.202,0.7860000133514404,0.016744558296040414
429.672414,,0.004105383961702213,429.666,0.7839999794960022,0.012395546436837894
430.137931,,0.0010373856258676848,430.125,0.7850000262260437,0.014585386793257465
430.603448,,0.002255926652919312,430.597,0.7649999856948853,-0.028974745076095407
431.068966,,0.004787926415019766,431.055,0.765999972820282,-0.02678254502217685
431.534483,,0.006182789739759753,431.523,0.7699999809265137,-0.018054419877553914
432.0,,0.006304318754452072,431.988,0.7870000004768372,0.018996232927232518
432.46551700000003,,0.005387951609776218,432.452,0.8560000061988831,0.16933839006201007
432.931034,,0.0042122836300499305,432.921,0.4169999957084656,-0.7870771514766207
433.396552,,0.003631041715753242,433.382,0.7839999794960022,0.012486442554133673
433.862069,,0.003950090927981255,433.852,0.800000011920929,0.04733865497527385
434.327586,,0.004803684125744896,434.315,0.7670000195503235,-0.02456066598010213
434.79310300000003,,0.005503784637634245,434.777,0.7820000052452087,0.008117824567920495
435.258621,,0.0055871017300875,435.243,0.9890000224113464,0.4591044319797505
435.724138,,0.005106991159537194,435.711,0.7820000052452087,0.008142202762818442
436.189655,,0.004329599205688431,436.176,0.7860000133514404,0.01688304863891366
436.655172,,0.0034404646842119712,436.641,0.7950000166893005,0.036520943357036276
437.12068999999997,,0.0028829872099313623,437.107,0.7879999876022339,0.021303561942141308
437.586207,,0.0033997871076157623,437.567,0.7739999890327454,-0.009162603907065045
438.051724,,0.004925729733549379,438.032,0.7829999923706055,0.010480077580416613
438.517241,,0.005911230108236246,438.504,0.7630000114440918,-0.03305980784398268
438.982759,,0.004823484373534515,438.962,0.765999972820282,-0.026494584422805157
439.448276,,0.0021672059536145395,439.429,0.7699999809265137,-0.01775582681379362
439.913793,,6.733982524052606e-05,439.892,0.7910000085830688,0.028014193258354664
440.37931000000003,,0.00010971128399215392,440.355,0.7670000195503235,-0.02426149284667074
440.844828,,0.0010384924938156735,440.825,0.7870000004768372,0.01931586192602066
441.310345,,0.002020270347766591,441.291,0.7820000052452087,0.008419129295387847
441.775862,,0.001960992282552041,441.755,0.7710000276565552,-0.015557795194553746
442.241379,,0.0009565296408582759,442.22,0.7900000214576721,0.025816078296981543
442.70689699999997,,0.0004486281807449917,442.686,0.7870000004768372,0.019251637640985916
443.172414,,0.0017430136582808208,443.151,0.765999972820282,-0.02653619615169365
443.637931,,0.002559824471001927,443.611,0.7820000052452087,0.008278638224724695
444.103448,,0.0026467607157040908,444.077,0.7689999938011169,-0.020093910013162422
444.568966,,0.002048644725297094,444.542,0.7699999809265137,-0.017970643887051923
445.03448299999997,,0.0014894478913752257,445.007,0.7910000085830688,0.027722231746088063
445.5,,0.0022947733484015307,445.47,0.7689999938011169,-0.020268144482068474
445.965517,,0.005262023476635233,445.94,0.75,-0.06172259545333777
446.431034,,0.009235819559069103,446.4,0.7910000085830688,0.02754355932772243
446.896552,,0.01130045659818815,446.87,0.7649999856948853,-0.02915538549125457
447.36206899999996,,0.009246118360452877,447.333,0.6600000262260437,-0.257963099556445
447.827586,,0.004048505516992453,447.796,0.7789999842643738,0.0012507153441377863
448.29310300000003,,0.0005849433793907424,448.262,0.7820000052452087,0.0077503033007089
448.758621,,0.0013915270554032896,448.727,0.7670000195503235,-0.024952868172636974
449.224138,,0.001900244198161369,449.193,0.7870000004768372,0.018610964876503926
449.689655,,0.0069747722376906915,449.659,0.7649999856948853,-0.029312972708739882
450.155172,,0.011065830677325961,450.125,0.7910000085830688,0.02735441263435691
450.62068999999997,,0.012402451737284041,450.589,0.7850000262260437,0.01432151982874639
451.086207,,0.010503703000131214,451.055,0.7599999904632568,-0.04009015286610487
451.551724,,0.006280840715277494,451.515,0.7820000052452087,0.007908603786937122
452.017241,,0.0019053794943538528,451.981,0.7649999856948853,-0.029047963525347175
452.482759,,0.0004085781783593025,452.452,0.7620000243186951,-0.03549379084040724
452.94827599999996,,0.0001853140112741201,452.914,0.9279999732971191,0.3262614139726656
453.413793,,0.0008851386332887499,453.382,0.7889999747276306,0.02353858069868198
453.87931,,0.0006946594730752223,453.844,0.7820000052452087,0.008401357942548864
454.344828,,0.0010123929602435316,454.307,0.800000011920929,0.047727496959049355
454.810345,,0.002318612058133811,454.77,0.777999997138977,-9.926247215935862e-05
455.27586199999996,,0.0012591970370094052,455.235,0.765999972820282,-0.026151238036322737
455.741379,,0.001838641459781811,455.701,0.7900000214576721,0.02621241859995069
456.206897,,0.004420151410645307,456.166,0.7770000100135803,-0.002052881799908193
456.672414,,0.004205931268601496,456.633,0.7850000262260437,0.015412060048666808
457.137931,,0.0014477841205357742,457.099,0.7630000114440918,-0.03250642545740383
457.603448,,0.0014258647870041999,457.563,0.7480000257492065,-0.06520041434221949
458.06896600000005,,0.002165610880704286,458.029,0.7929999828338623,0.032797830718031516
458.53448299999997,,0.0005396180894172654,458.492,0.7720000147819519,-0.01301958605486994
459.0,,0.0016942284881689119,458.962,0.7850000262260437,0.015213869849483268
459.465517,,0.0021591099939683115,459.422,0.7900000214576721,0.02599750350976599
459.931034,,0.00034094994772467375,459.885,0.765999972820282,-0.026417237080942
460.39655200000004,,0.00466083455296645,460.356,0.777999997138977,-0.0004146199079824197
460.86206899999996,,0.0080836344695319,460.818,0.8230000138282776,0.09747453832588128
461.327586,,0.008704165405379424,461.284,0.7990000247955322,0.04503436147200473
461.793103,,0.00700518828663423,461.746,0.7689999938011169,-0.02047588240522273
462.258621,,0.005019855800696801,462.212,0.7850000262260437,0.01423763267225097
462.724138,,0.004244422392583666,462.678,0.7649999856948853,-0.029469909646779147
463.18965499999996,,0.004516832683933458,463.145,0.7870000004768372,0.01834122428251566
463.655172,,0.004673699179838604,463.611,0.7870000004768372,0.018242257374961615
464.12069,,0.0039169708288106595,464.07,0.7870000004768372,0.018167833002329853
464.58620699999994,,0.0023967158054438355,464.537,0.7870000004768372,0.018121135014591852
465.051724,,0.00074388934910474,465.003,0.7599999904632568,-0.04071956654655
465.517241,,0.0006212646882329185,465.466,0.7820000052452087,0.007223947239264561
465.98275900000004,,0.0017278067505130208,465.936,0.7879999876022339,0.020340217568905673
466.448276,,0.00267511265604371,466.4,0.7680000066757202,-0.02315742447000948
466.913793,,0.0030062295041012304,466.863,0.7870000004768372,0.018341171200492987
467.37931,,0.0018533566345922661,467.326,0.8820000290870667,0.2254456271105533
467.844828,,0.0008080443147128829,467.796,0.7720000147819519,-0.014046519793361219
468.31034500000004,,0.003458140880852949,468.261,0.8510000109672546,0.15824700734731947
468.77586199999996,,0.004419942390897656,468.72,0.800000011920929,0.04733136976270077
469.241379,,0.003810346429473838,469.186,0.7400000095367432,-0.08318480432391259
469.706897,,0.0032891949600305547,469.652,0.7870000004768372,0.019412713617310867
470.172414,,0.003815446521448303,470.118,0.7910000085830688,0.028320500483999665
470.63793100000004,,0.004307472427880484,470.585,0.777999997138977,0.00017749218837347352
471.10344799999996,,0.002771125559304711,471.05,0.7730000019073486,-0.01055682457425385
471.568966,,0.0014158894166667398,471.515,0.7910000085830688,0.02879142351780356
472.034483,,0.006408583318246879,471.982,0.7689999938011169,-0.01903750324656664
472.5,,0.00926903705251751,472.444,0.7870000004768372,0.020244278978228388
472.965517,,0.008685603475457541,472.907,0.43799999356269836,-0.740082676105851
473.43103399999995,,0.006051439991114603,473.375,0.7639999985694885,-0.02987367941921319
473.89655200000004,,0.0035735118976887416,473.837,0.7680000066757202,-0.021235514191176228
474.362069,,0.0019004474025050662,474.307,0.765999972820282,-0.025706424033608614
474.827586,,0.0001909103648280914,474.77,0.781000018119812,0.00682681536149976
475.293103,,0.0020191710155319006,475.235,0.765999972820282,-0.02602758764385421
475.758621,,0.003835450115499188,475.701,0.7680000066757202,-0.0218672140742289
476.22413800000004,,0.003857142462615361,476.167,0.7839999794960022,0.012778305626719982
476.689655,,0.0016564613553784377,476.626,0.7680000066757202,-0.02230124562754672
477.155172,,0.001548913506913149,477.092,0.7850000262260437,0.01451355510807645
477.62069,,0.0036377335174777484,477.556,0.7839999794960022,0.012119159774507395
478.086207,,0.0033478407730857477,478.022,0.7730000019073486,-0.012047721700567431
478.55172400000004,,0.0016353999581505616,478.485,0.7850000262260437,0.013914663000351319
479.01724099999996,,0.0009737533466503429,478.955,0.765999972820282,-0.027635025785890117
479.482759,,0.0025927207862689134,479.419,0.7739999890327454,-0.010330007448251773
479.948276,,0.004321698383277577,479.881,0.8069999814033508,0.06147690094828787
480.413793,,0.0020499528121903747,480.352,0.7879999876022339,0.020033757177719037
480.87931000000003,,0.005791000455924701,480.814,0.6729999780654907,-0.23052070908854463
481.344828,,0.015326085790295003,481.28,0.800000011920929,0.046195137671802985
481.810345,,0.01980978503673099,481.743,0.7839999794960022,0.011402603036948025
482.275862,,0.01586035154147614,482.208,0.7630000114440918,-0.03424509474409323
482.74137900000005,,0.006780981400504388,482.674,0.7870000004768372,0.018180327692678428
483.206897,,0.0009263013261509587,483.139,0.6729999780654907,-0.23001993039867438
483.672414,,0.0037789395500516143,483.6,0.7850000262260437,0.014175595926128309
484.13793100000004,,0.003293772920602231,484.065,0.7620000243186951,-0.035730038723135384
484.603448,,0.0027374644505392407,484.53,0.7649999856948853,-0.028979441601299876
485.068966,,0.003529337503732565,484.997,0.7870000004768372,0.019170287341886624
485.534483,,0.0047502203233029654,485.46,0.7789999842643738,0.001958850733059067
486.0,,0.004841368382154938,485.929,0.7730000019073486,-0.010903865628321047
486.46551700000003,,0.0032830030585254263,486.392,0.7870000004768372,0.019790789301804532
486.931034,,0.0010359939527520494,486.855,0.7689999938011169,-0.01925319762212198
487.396552,,0.0005578793344738543,487.326,0.7620000243186951,-0.034360061114489894
487.862069,,0.0014159168614130957,487.788,0.7950000166893005,0.03764605255341141
488.327586,,0.0027569574176959607,488.254,0.7860000133514404,0.018113136741880746
488.79310300000003,,0.005113869610086599,488.718,0.7839999794960022,0.013792483075264183
489.258621,,0.00713879374063154,489.183,0.7200000286102295,-0.12564539588162615
489.724138,,0.007345515254964322,489.648,0.7609999775886536,-0.03636830603433715
490.189655,,0.006334713599079058,490.114,0.7900000214576721,0.02672437026150426
490.655172,,0.00589632350329865,490.578,0.7870000004768372,0.020063727627275145
491.12069,,0.006164938970526142,491.044,0.7649999856948853,-0.02802381081874126
491.586207,,0.005228266688898388,491.511,0.7839999794960022,0.01318505636485793
492.05172400000004,,0.0019258393171172942,491.976,0.7720000147819519,-0.013166469584979225
492.517241,,0.002286644461545967,492.437,0.7870000004768372,0.019289805583913532
492.982759,,0.0050554015133163896,492.9,0.8119999766349792,0.07352481699712977
493.448276,,0.005790587065093667,493.367,0.7950000166893005,0.036257201888862126
493.913793,,0.005729858119374034,493.83,0.7490000128746033,-0.06418454512721179
494.37931000000003,,0.0060292753580138084,494.297,0.7649999856948853,-0.029537914555860873
494.844828,,0.006748193928218386,494.761,0.7850000262260437,0.013842549942789974
495.310345,,0.007371400332923488,495.226,0.7820000052452087,0.007140286465530124
495.775862,,0.007506247402549386,495.692,0.7870000004768372,0.017899401742963703
496.241379,,0.007075737077793419,496.158,0.7910000085830688,0.026516703152508415
496.70689699999997,,0.006226167193934436,496.626,0.7850000262260437,0.013387759942860431
497.172414,,0.005128588553867413,497.091,0.7670000195503235,-0.02584327735487554
497.637931,,0.003958258754991672,497.556,0.7689999938011169,-0.02145968128304713
498.103448,,0.003174523541606552,498.022,0.7870000004768372,0.01782352085509787
498.568966,,0.0034180731210517444,498.485,0.7739999890327454,-0.010391741066691735
499.03448299999997,,0.004692634265712809,498.947,0.7950000166893005,0.035503918810776046
499.5,,0.006079793666668545,499.415,0.7860000133514404,0.01607279744884835
499.96551700000003,,0.006887866713389196,499.878,0.7699999809265137,-0.01858186351507156
500.431034,,0.007574076985644459,500.341,0.7850000262260437,0.014322004575804306
500.89655200000004,,0.008572595095225465,500.811,0.7820000052452087,0.008023459661818068
501.362069,,0.008653917390673999,501.277,0.7630000114440918,-0.03312766658473202
501.827586,,0.0059935653760462,501.74,0.7860000133514404,0.017222177164010193
502.293103,,0.0012456060917336398,502.205,0.7620000243186951,-0.03483435892393126
502.758621,,0.0019119271625415457,502.67,0.7570000290870667,-0.045514383616825284
503.224138,,0.000590609916159992,503.136,0.7850000262260437,0.015676266899547927
503.68965499999996,,0.0035317366680299314,503.6,0.7649999856948853,-0.027738514438664392
504.15517200000005,,0.005693697469388136,504.065,0.7820000052452087,0.009421668726581827
504.62068999999997,,0.003425960777095,504.53,0.777999997138977,0.0007911549162607503
505.08620699999994,,0.0008720645012506417,504.995,0.765999972820282,-0.025310435655868144
505.55172400000004,,0.003238876482292565,505.456,0.7540000081062317,-0.05145597104480332
506.017241,,0.0027110648187556176,505.925,0.765999972820282,-0.025358677720610016
506.48275899999993,,0.001561308688164158,506.385,0.7739999890327454,-0.008018734470845203
506.948276,,0.0021291368448121185,506.855,0.7860000133514404,0.017996440388950333
507.413793,,0.004873393224405277,507.318,0.7850000262260437,0.015654327768299888
507.87931,,0.008777159230025273,507.781,0.7860000133514404,0.017639910139552142
508.344828,,0.011984445035974354,508.247,0.7689999938011169,-0.019614066205952442
508.810345,,0.012429339338054108,508.711,0.847000002861023,0.15008741661363495
509.27586199999996,,0.00956001835582712,509.177,0.7829999923706055,0.010413010756242687
509.74137900000005,,0.005510572631114601,509.644,0.7829999923706055,0.010171001017797695
510.20689699999997,,0.0032838156855181226,510.109,0.7789999842643738,0.001219349478582462
510.67241399999995,,0.003733951523431375,510.575,0.7670000195503235,-0.025149522496915707
511.13793100000004,,0.0052840930267217465,511.04,0.7900000214576721,0.024752980983993415
511.603448,,0.006222293549323235,511.5,0.765999972820282,-0.02771583708970739
512.0689659999999,,0.006012674692762794,511.966,0.7879999876022339,0.020064229364081407
512.534483,,0.004730386647738116,512.434,0.7870000004768372,0.017771301024324664
513.0,,0.0028494448362027403,512.897,0.7739999890327454,-0.01062579002228641
513.465517,,0.0016711745180696769,513.367,0.7630000114440918,-0.03462414641642459
513.931034,,0.002388032816940184,513.829,0.7689999938011169,-0.02154359349327626
514.396552,,0.004267890016639386,514.295,0.777999997138977,-0.0018850206673218673
514.862069,,0.005038219423531974,514.76,0.777999997138977,-0.0017932133851766567
515.327586,,0.0036247087964918715,515.225,0.7739999890327454,-0.010377491240889648
515.793103,,0.001359743471632936,515.685,0.7860000133514404,0.015931455471788366
516.258621,,0.000275158758246536,516.151,0.765999972820282,-0.027446667709834217
516.724138,,0.0019865095549364835,516.622,0.7699999809265137,-0.018513557746039407
517.189655,,0.005366327895958246,517.08,0.7710000276565552,-0.016099557024334663
517.655172,,0.009685939680029064,517.545,0.7870000004768372,0.01900407840065146
518.1206900000001,,0.011666001140311426,518.011,0.7689999938011169,-0.019963418006220524
518.5862070000001,,0.00909711492478593,518.482,0.765999972820282,-0.02625630122684569
519.051724,,0.00368913421043066,518.944,0.6909999847412109,-0.18942622791341976
519.517241,,0.0006231610248668726,519.407,0.7329999804496765,-0.0977176258368032
519.982759,,0.001831772199691294,519.87,0.7870000004768372,0.020106451700483027
520.448276,,0.0015109976868622104,520.341,0.8100000023841858,0.07036199676319725
520.9137929999999,,0.0023796589837367823,520.803,0.7910000085830688,0.029081081751501023
521.37931,,0.0049557089306588725,521.269,0.7689999938011169,-0.018773148475793776
521.844828,,0.007078773630382431,521.732,0.734000027179718,-0.09499123295983053
522.310345,,0.006486305918354527,522.198,0.8259999752044678,0.10543630638153705
522.7758620000001,,0.0033320572252708964,522.664,0.7860000133514404,0.018241889554460197
523.241379,,8.79034370467936e-05,523.129,0.7739999890327454,-0.007989623943811629
523.7068969999999,,0.0018727316868666082,523.597,0.7730000019073486,-0.010293831015407933
524.172414,,0.002229726469037629,524.055,0.7680000066757202,-0.02134735995312733
524.637931,,0.0024035137965469633,524.523,0.765999972820282,-0.02589536186599336
525.103448,,0.0025737036218925202,524.988,0.7879999876022339,0.021819775535750485
525.568966,,0.0018340711454864296,525.456,0.7870000004768372,0.019408495394919085
526.034483,,0.00011927307554858407,525.918,0.7839999794960022,0.012629508463827722
526.5,,0.001131119532912776,526.381,0.7839999794960022,0.01238318644692297
526.9655170000001,,0.0007213487650171708,526.851,0.7649999856948853,-0.029253953473992997
527.4310340000001,,0.0008800164543144988,527.312,0.753000020980835,-0.055630751525118406
527.8965519999999,,0.0024706533976890563,527.781,0.7820000052452087,0.007333358380846657
528.362069,,0.0035110445044732623,528.24,0.7689999938011169,-0.021182270948196667
528.827586,,0.0038116714781352714,528.712,0.7599999904632568,-0.04095403064712806
529.293103,,0.002847454101220234,529.17,0.765999972820282,-0.02801227275342154
529.7586210000001,,0.0006745718093389565,529.637,0.7649999856948853,-0.030283075625932642
530.224138,,0.0011078366470500018,530.103,0.7870000004768372,0.01759644942037967
530.689655,,0.0008319919981153713,530.57,0.7990000247955322,0.04373370162152805
531.155172,,0.0009931875620909432,531.035,0.7850000262260437,0.013271269704094563
531.62069,,0.0023603822393983916,531.501,0.765999972820282,-0.02804087338595702
532.086207,,0.002657292711411446,531.966,0.7839999794960022,0.011297889529470204
532.5517239999999,,0.0033031201853996836,532.429,0.7639999985694885,-0.03211478940299562
533.017241,,0.005160854210435641,532.892,0.8009999990463257,0.04868835828091443
533.482759,,0.0068795577506874424,533.355,0.7639999985694885,-0.031700993991398384
533.9482760000001,,0.006672771803919119,533.826,0.7599999904632568,-0.04017465498130522
534.413793,,0.004601067641642886,534.292,0.7860000133514404,0.016724030450514654
534.87931,,0.001995166401906535,534.755,0.765999972820282,-0.026589487357212227
535.344828,,0.0005529405123987507,535.221,0.7870000004768372,0.019419962285744864
535.810345,,0.0030930467324625315,535.681,0.7720000147819519,-0.013011373829804806
536.275862,,0.004453248299561835,536.147,0.7900000214576721,0.026436005038476297
536.7413789999999,,0.0025277810134588397,536.615,0.7850000262260437,0.015751027753123658
537.206897,,0.0024224488635480475,537.08,0.765999972820282,-0.02546516805891476
537.672414,,0.006245002079264217,537.545,0.7639999985694885,-0.02968051918376795
538.137931,,0.004727902937717814,538.01,0.7879999876022339,0.02270813712294183
538.6034480000001,,0.0013438291934245712,538.471,0.7710000276565552,-0.014271198010734324
539.0689659999999,,0.0067529495592010625,538.94,0.75,-0.060011286377435934
539.5344829999999,,0.007608877097803964,539.403,0.7910000085830688,0.029278050993137232
540.0,,0.0049880443708340836,539.866,0.7860000133514404,0.01830452102946088
540.465517,,0.002507109600989706,540.337,0.7710000276565552,-0.014497963018252697
540.931034,,0.0018921584434365042,540.799,0.765999972820282,-0.025553853148125447
541.396552,,0.0019688076866643317,541.265,0.7860000133514404,0.017821549667042944
541.862069,,0.0010155746247596418,541.729,0.7870000004768372,0.01977380694390903
542.327586,,0.0012053831100317359,542.195,0.7620000243186951,-0.03494082850248306
542.7931030000001,,0.003532963396816301,542.66,0.7699999809265137,-0.017775701040028836
543.258621,,0.004498487540015933,543.125,0.7870000004768372,0.018989896727713833
543.7241379999999,,0.00326338192614401,543.585,0.7670000195503235,-0.024853499336601043
544.189655,,0.0003065149865593332,544.05,0.7950000166893005,0.0358874755919602
544.655172,,0.0025935698803037912,544.515,0.7990000247955322,0.04435878136615558
545.12069,,0.0038220835922770486,544.98,0.7879999876022339,0.020175962961413156
545.5862070000001,,0.0036891717771730466,545.448,0.7789999842643738,0.0003823048474511898
546.051724,,0.003977195082281826,545.911,0.7689999938011169,-0.021553282876470296
546.517241,,0.005405019182533777,546.381,0.7730000019073486,-0.012947001817963056
546.982759,,0.006475550751117036,546.844,0.7850000262260437,0.013132850496924163
547.448276,,0.005548829774112379,547.307,0.777999997138977,-0.002134942830340444
547.9137929999999,,0.0033975342188748664,547.77,0.7820000052452087,0.006610011440242178
548.3793099999999,,0.002681321903987585,548.235,0.7649999856948853,-0.03035023957346321
548.844828,,0.004775849370084626,548.701,0.7850000262260437,0.013343842710442389
549.310345,,0.007867344225523792,549.166,0.7820000052452087,0.006969975088986878
549.775862,,0.008857365649111562,549.633,0.7889999747276306,0.022419409222936657
550.241379,,0.0069087894973653054,550.1,0.7699999809265137,-0.01874508449026873
550.706897,,0.004222053628508956,550.567,0.7670000195503235,-0.02502764264673058
551.172414,,0.003120865771129953,551.025,0.765999972820282,-0.0269375727512003
551.637931,,0.0032694080012967796,551.493,0.8100000023841858,0.06920017905385482
552.103448,,0.002359073600018454,551.955,0.7910000085830688,0.028084326804634078
552.568966,,0.0010191897113696405,552.426,0.7870000004768372,0.019641238249809963
553.034483,,0.005855860301219788,552.888,0.7860000133514404,0.01771848309526734
553.5,,0.009849404290152214,553.352,0.7870000004768372,0.020129437169944236
553.965517,,0.011463643767247074,553.822,0.8489999771118164,0.15540848966413734
554.4310340000001,,0.010716818793858487,554.28,0.7329999804496765,-0.09714759939108969
554.896552,,0.008354215818650782,554.75,0.765999972820282,-0.025128497456617955
555.3620689999999,,0.005018535449366802,555.215,0.7870000004768372,0.020698811611776086
555.827586,,0.0017083351472001712,555.681,0.7519999742507935,-0.05552822554143417
556.293103,,0.00038315399387031613,556.146,0.765999972820282,-0.025052941142207914
556.758621,,0.002695690892888397,556.611,0.7860000133514404,0.018443601898332673
557.224138,,0.007619714340236686,557.07,0.7860000133514404,0.01831949475372697
557.689655,,0.011405510296840933,557.542,0.7820000052452087,0.009437087134055456
558.155172,,0.01097044281523009,558.0,0.7990000247955322,0.046267775422021234
558.6206900000001,,0.006894624814805027,558.47,0.7919999957084656,0.030778698928512902
559.0862070000001,,0.002273442283402047,558.933,0.765999972820282,-0.026130145960798556
559.5517239999999,,0.0006067228215032597,559.396,0.7910000085830688,0.028054012241534334
560.017241,,0.0013955660799823653,559.866,0.7860000133514404,0.01686917980730209
560.482759,,0.0006332589365950843,560.326,0.7739999890327454,-0.00956689736498387
560.948276,,0.0005723269927566496,560.796,0.7680000066757202,-0.02292347152203222
561.413793,,0.00039743248672034054,561.255,0.7620000243186951,-0.03626445628731077
561.87931,,0.0021610671764200487,561.725,0.7699999809265137,-0.01908084916645123
562.344828,,0.0053668238306935805,562.191,0.7990000247955322,0.04388653716422874
562.8103450000001,,0.005767624427805848,562.656,0.777999997138977,-0.0020392268824924583
563.275862,,0.0017348515856550578,563.115,0.7820000052452087,0.006546111814591445
563.7413789999999,,0.004546582882240162,563.582,0.7649999856948853,-0.03057185655223456
564.206897,,0.00884155976505112,564.048,0.7860000133514404,0.015149880435921984
564.672414,,0.008391723449187793,564.515,0.7699999809265137,-0.01968624427145374
565.137931,,0.003942838082463458,564.981,0.7870000004768372,0.017425188091830048
565.603448,,0.0010960203538018488,565.441,0.7919999957084656,0.028443260595274827
566.068966,,0.0034078050984199335,565.911,0.7450000047683716,-0.07378180562925082
566.534483,,0.002264677188976397,566.374,0.7910000085830688,0.02664833141203445
567.0,,0.00023668791507635992,566.836,0.7760000228881836,-0.005783914591479634
567.465517,,0.001411313864854955,567.307,0.765999972820282,-0.027295039585544405
567.931034,,0.0004745834103532427,567.77,0.800000011920929,0.04707440861234841
568.396552,,0.001273335425845915,568.236,0.746999979019165,-0.0680877078509661
568.862069,,0.0023853824423104276,568.701,0.781000018119812,0.006293965820527129
569.327586,,0.002654346409639452,569.166,0.7020000219345093,-0.16552113019949558
569.793103,,0.0025414325249497965,569.626,0.7630000114440918,-0.032344867462215515
570.2586210000001,,0.002255623060103968,570.092,0.7910000085830688,0.02890943635390785
570.724138,,0.0020182702006391615,570.559,0.7990000247955322,0.046559004253812174
571.189655,,0.00240093007973428,571.025,0.7860000133514404,0.01841897350811605
571.655172,,0.0035088136722548724,571.485,0.7850000262260437,0.016378888420822593
572.12069,,0.0043502867196244755,571.955,0.7710000276565552,-0.014032494155562394
572.586207,,0.003876171257142471,572.418,0.7870000004768372,0.0208634877123024
573.051724,,0.0024254981378269472,572.881,0.7689999938011169,-0.018368054612333165
573.517241,,0.001538913552814674,573.352,0.949999988079071,0.3759012497382822
573.982759,,0.0023812670134705635,573.814,0.7850000262260437,0.01631254282620668
574.4482760000001,,0.004625506342175025,574.28,0.7699999809265137,-0.0165247731346049
574.913793,,0.006813864399864008,574.743,0.777999997138977,0.0007016888870460406
575.37931,,0.007580254367683513,575.208,0.7620000243186951,-0.034399552861077896
575.844828,,0.006527625134335498,575.673,0.7699999809265137,-0.017247101372259082
576.310345,,0.004309859453954249,576.139,0.7850000262260437,0.015130465367290114
576.775862,,0.002228347347471923,576.604,0.765999972820282,-0.026582807135063617
577.241379,,0.0014142797419546542,577.07,0.8180000185966492,0.08638155514593325
577.706897,,0.0018034511760855845,577.53,0.7870000004768372,0.018521862002137505
578.172414,,0.0021568819907435265,577.995,0.7699999809265137,-0.018823674772981403
578.6379310000001,,0.0016140792581910395,578.463,0.7730000019073486,-0.012574914472394129
579.1034480000001,,0.0006899455641018514,578.926,0.7739999890327454,-0.010653682088212369
579.5689659999999,,7.005002975196185e-05,579.396,0.7870000004768372,0.017449619501871454
580.034483,,0.00078806383473876,579.859,0.7599999904632568,-0.04154785722818542
580.5,,0.0027867229015203915,580.322,0.8140000104904175,0.0759765558075806
580.965517,,0.005396139694449624,580.785,0.765999972820282,-0.02866523294300386
581.431034,,0.0067184414320253455,581.25,0.7839999794960022,0.01054227154749434
581.896552,,0.00524126818340717,581.722,0.7820000052452087,0.006235848019246124
582.362069,,0.0011784060749708684,582.18,0.7710000276565552,-0.017620177922032677
582.827586,,0.003434850012750324,582.652,0.7699999809265137,-0.019634656442961276
583.2931030000001,,0.00567288062809555,583.11,0.7649999856948853,-0.03031299514469593
583.758621,,0.003597797396172922,583.575,0.8379999995231628,0.12898931820680737
584.2241379999999,,0.001880673222065266,584.04,0.7860000133514404,0.016000877868449923
584.689655,,0.00721367602404832,584.508,0.7870000004768372,0.018512016516843657
585.155172,,0.009017914486186714,584.973,0.7649999856948853,-0.029065595534889965
585.6206900000001,,0.006925478214663441,585.437,0.7940000295639038,0.034477535716127675
586.0862070000001,,0.003452359840496738,585.9,0.7720000147819519,-0.013091625057727303
586.551724,,0.0011882500410330971,586.367,0.7699999809265137,-0.01710012274684594
587.017241,,0.0006827110387136672,586.83,0.7860000133514404,0.018084090683792176
587.482759,,0.0010679799626297116,587.297,0.7689999938011169,-0.01866017079282323
587.948276,,0.0016793480185828883,587.761,0.800000011920929,0.04912894791195367
588.4137929999999,,0.0022551307325179813,588.227,0.7860000133514404,0.018829517128932244
588.87931,,0.0022587336244897097,588.692,0.7699999809265137,-0.01588345542113239
589.344828,,0.0012046173473025544,589.158,0.7820000052452087,0.01034405318640214
589.810345,,0.000461990147891072,589.623,0.7870000004768372,0.021256178958546118
590.2758620000001,,0.0017589825032166418,590.089,0.7480000257492065,-0.06375855984946524
590.741379,,0.002417532279234611,590.556,0.7699999809265137,-0.015942430157136527
591.2068969999999,,0.0029871463132090143,591.022,0.7870000004768372,0.020917215614279748
591.672414,,0.0038120826183420382,591.485,0.7630000114440918,-0.03160579029713934
592.137931,,0.004629954497053663,591.947,0.7870000004768372,0.02039475296876184
592.603448,,0.005106091019395488,592.415,0.7870000004768372,0.020064835072821197
593.068966,,0.005193667366120125,592.878,0.7850000262260437,0.015344773509156417
593.534483,,0.005049051316714046,593.341,0.7839999794960022,0.012780874158675229
594.0,,0.0048904231590069114,593.81,0.7739999890327454,-0.009401903820620722
594.4655170000001,,0.0046861989059389575,594.276,0.7839999794960022,0.01198877443400061
594.9310340000001,,0.003931946227182614,594.738,0.7720000147819519,-0.014538279472506396
595.3965519999999,,0.0023182922431764295,595.204,0.7860000133514404,0.015603639656400176
595.862069,,0.0006558757206780875,595.67,0.765999972820282,-0.028293398838270818
596.327586,,0.00031549804754925175,596.136,0.7910000085830688,0.02589427654338884
596.793103,,0.0014432634370900462,596.601,0.7820000052452087,0.006062394384108518
597.2586210000001,,0.002318648877174972,597.067,0.7630000114440918,-0.035494280058999954
597.724138,,0.0009209820741751924,597.526,0.7480000257492065,-0.06827031523182084
598.189655,,0.002935998571904753,597.992,0.7889999747276306,0.021027327450347452
598.655172,,0.0072049505540497175,598.46,0.7860000133514404,0.014536808290202957
599.12069,,0.009474220186979602,598.922,0.8100000023841858,0.06694239570423927
599.586207,,0.009198981507998924,599.385,0.6150000095367432,-0.3577091447531228
600.0517239999999,,0.007824137438754576,599.855,0.7870000004768372,0.01726206293349265
600.517241,,0.006788032469403971,600.318,0.8539999723434448,0.1635310481019535
600.982759,,0.006032635504160092,600.781,0.7860000133514404,0.015734671631961003
601.448276,,0.0047295702700926754,601.247,0.7720000147819519,-0.014374221636241108
601.913793,,0.0027921143708629875,601.711,0.765999972820282,-0.027026887422594213
602.37931,,0.0010765406229909,602.177,0.7820000052452087,0.008265400289042955
602.844828,,0.00048283154210645453,602.644,0.7910000085830688,0.028309233909640814
603.310345,,0.0013587784008624022,603.11,0.7889999747276306,0.024377364600976264
603.775862,,0.0034242097017168484,603.575,0.7630000114440918,-0.031865894844773875
604.2413789999999,,0.005751149743448375,604.041,0.7910000085830688,0.02950084766006142
604.706897,,0.006983342836903824,604.5,0.7609999775886536,-0.035542634810388656
605.172414,,0.0060492752524987405,604.966,0.5820000171661377,-0.42526732755223795
605.637931,,0.0030131768643350434,605.433,0.7910000085830688,0.030249547808132306
606.1034480000001,,0.0006119374990167941,605.895,0.7870000004768372,0.021638412796571402
606.5689659999999,,0.002785169113053962,606.363,0.7870000004768372,0.02166635765028055
607.0344829999999,,0.0027759147989903686,606.826,0.765999972820282,-0.024134744091430984
607.5,,0.0018588389886352089,607.292,0.765999972820282,-0.024261346893387183
607.965517,,0.0016114306786211429,607.755,0.7680000066757202,-0.020104858383926942
608.431034,,0.001989556158117636,608.221,0.781000018119812,0.007948296559056683
608.896552,,0.001965299472578522,608.688,0.7789999842643738,0.0032613094053781195
609.362069,,0.00167776789893431,609.154,0.7409999966621399,-0.0799083035444632
609.827586,,0.0026404885126081754,609.618,0.7609999775886536,-0.036757657035942186
610.293103,,0.005409147852464396,610.084,0.8420000076293945,0.1392633868690196
610.758621,,0.008013210181975719,610.548,0.8130000233650208,0.07562188782199641
611.2241379999999,,0.0077149907452424135,611.014,0.7870000004768372,0.01851879229254477
611.689655,,0.004269270687253366,611.482,0.7699999809265137,-0.018962124456994772
612.155172,,0.0006425318333639077,611.944,0.7699999809265137,-0.019379504125952157
612.62069,,2.490849575636864e-05,612.407,0.7870000004768372,0.017279207216346005
613.0862070000001,,0.002153214868040306,612.87,0.7990000247955322,0.0430960349432604
613.551724,,0.004093386864692115,613.338,0.824999988079071,0.09947643210213997
614.017241,,0.0033544984132078824,613.807,0.7850000262260437,0.012137360811496523
614.4827590000001,,0.0005666113383093579,614.265,0.753000020980835,-0.057696971682816185
614.948276,,0.0019251263876362292,614.737,0.7739999890327454,-0.011985058418391705
615.4137929999999,,0.002748530999230326,615.195,0.765999972820282,-0.029374454796307504
615.8793099999999,,0.0021688889967675174,615.666,0.7870000004768372,0.01649628322520131
616.344828,,0.0009583746094812066,616.125,0.781000018119812,0.003620114345016814
616.810345,,0.000341596695706841,616.592,0.7870000004768372,0.01695920919223697
617.275862,,0.0012881317257270794,617.058,0.7440000176429749,-0.07639210441068466
617.741379,,0.0015556478313962926,617.522,0.7620000243186951,-0.036793101296436655
618.206897,,0.0013266766453810038,617.988,0.7699999809265137,-0.018938947736094766
618.672414,,0.0012892702539567208,618.455,0.8610000014305115,0.1797750574364178
619.137931,,0.001937363604724258,618.918,0.7870000004768372,0.019032578175323576
619.603448,,0.0029062836352071906,619.381,0.7990000247955322,0.04565974199890078
620.068966,,0.0032370323736291315,619.851,0.765999972820282,-0.025762689867289135
620.534483,,0.002414270129847589,620.312,0.7850000262260437,0.01607978010617198
621.0,,0.0009735721368684749,620.781,0.8029999732971191,0.055705153158129427
621.465517,,0.0001218666837830029,621.247,0.7889999747276306,0.025563909150023843
621.9310340000001,,0.0006372395757035015,621.711,0.7739999890327454,-0.00681750726131897
622.396552,,0.0013123285000701816,622.17,0.7710000276565552,-0.013126877403963283
622.862069,,0.002788990923285056,622.637,0.75,-0.0587319261405744
623.327586,,0.004530861151660811,623.102,0.765999972820282,-0.0238122245966398
623.793103,,0.0052139939108916036,623.567,0.7919999957084656,0.032807189688927395
624.258621,,0.004200461049195395,624.033,0.7710000276565552,-0.013055589481633581
624.724138,,0.0022798793508590435,624.5,0.7820000052452087,0.010715380250402966
625.189655,,0.000786929867417487,624.966,0.7749999761581421,-0.00480698293556879
625.655172,,8.603865983146236e-05,625.426,0.781000018119812,0.007923423856891196
626.1206900000001,,0.0008453567074146399,625.896,0.7850000262260437,0.016236692882738765
626.5862070000001,,0.0030117045405239776,626.359,0.7680000066757202,-0.021249817231489516
627.0517239999999,,0.005677712316034489,626.822,0.7900000214576721,0.026196076707038524
627.5172409999999,,0.006793419868955995,627.288,0.7680000066757202,-0.022239188418560922
627.982759,,0.005407965371306112,627.751,0.7789999842643738,0.0012152866222311719
628.448276,,0.0029022559953142575,628.216,0.7730000019073486,-0.012357643135935337
628.913793,,0.0014080749454249703,628.681,0.7599999904632568,-0.04115676469509277
629.37931,,0.0015649842994882896,629.147,0.7770000100135803,-0.004557705696286573
629.844828,,0.0020904332725607596,629.612,0.796999990940094,0.03863006010261863
630.3103450000001,,0.0011281661825631327,630.077,0.7630000114440918,-0.03576394701897581
630.7758620000001,,0.0019931664334104323,630.545,0.7689999938011169,-0.02293763393983205
631.2413789999999,,0.005878392163903335,631.011,0.7860000133514404,0.013936083809553223
631.706897,,0.00799986219397385,631.474,0.7649999856948853,-0.03189101439262627
632.172414,,0.007034775795718515,631.936,0.7940000295639038,0.0313053390590261
632.637931,,0.00432308686330667,632.404,0.7910000085830688,0.024876319172579573
633.103448,,0.00256111043943904,632.866,0.7860000133514404,0.014179227951815528
633.568966,,0.003022255058803078,633.33,0.7870000004768372,0.016637493899400904
634.034483,,0.0045847341327002935,633.8,0.7820000052452087,0.006099230757987094
634.5,,0.005523156307234321,634.266,0.7789999842643738,-1.704703048127079e-05
634.9655170000001,,0.005485346758829694,634.729,0.7870000004768372,0.017884200564301005
635.431034,,0.005337373621222085,635.195,0.7739999890327454,-0.009927982934771117
635.8965519999999,,0.005687245967081856,635.66,0.7639999985694885,-0.031181710046212438
636.362069,,0.006124118488598079,636.125,0.7879999876022339,0.02164485926385748
636.827586,,0.005700120628174089,636.585,0.753000020980835,-0.05407874324090573
637.293103,,0.0038311442697888357,637.051,0.7889999747276306,0.024855370207738668
637.7586210000001,,0.00082530547543041,637.516,0.7910000085830688,0.029674776059739262
638.224138,,0.0022238230744717645,637.981,0.753000020980835,-0.05270678375634025
638.689655,,0.0040226146127489565,638.452,0.7739999890327454,-0.006616668916488186
639.155172,,0.0038349399460889987,638.914,0.7680000066757202,-0.019429110448550346
639.62069,,0.0021037059751245575,639.382,0.7680000066757202,-0.019256862374388665
640.086207,,0.00038463747972906757,639.844,0.7910000085830688,0.030931883935534876
640.551724,,0.0001313208875682795,640.308,1.0110000371932983,0.5102242939582614
641.017241,,0.0012385151249898227,640.77,0.7850000262260437,0.017752933467949226
641.482759,,0.0023069941630276297,641.236,0.7620000243186951,-0.03254141813099678
641.9482760000001,,0.0026999391776756144,641.701,0.7699999809265137,-0.015386813218510483
642.413793,,0.0035766393152517756,642.166,0.7850000262260437,0.01693701509173154
642.87931,,0.006128624973914564,642.633,0.7870000004768372,0.020867457919443257
643.344828,,0.009332034889556659,643.099,0.7889999747276306,0.024739719675996995
643.810345,,0.010448097127058057,643.563,0.7870000004768372,0.019853476554062614
644.275862,,0.007906711658148697,644.028,0.765999972820282,-0.02645612449221377
644.7413789999999,,0.00328799671480655,644.501,0.7860000133514404,0.01654625870575927
645.206897,,0.00017292682642895262,644.959,0.7889999747276306,0.022516193945612207
645.672414,,0.0008678866262995435,645.422,0.8130000233650208,0.07426080663848067
646.1379310000001,,0.004182861544412405,645.885,0.7919999957084656,0.028006058176537566
646.6034480000001,,0.006569842162237349,646.356,0.7829999923706055,0.00795018584141904
647.0689659999999,,0.005620262431542916,646.818,0.7710000276565552,-0.018573493944139794
647.534483,,0.002402590223187673,647.284,0.796999990940094,0.037771323337647635
648.0,,0.00014239903914188003,647.746,0.7689999938011169,-0.023440859134122992
648.465517,,0.0005817613332799558,648.212,0.7910000085830688,0.024376414780277966
648.931034,,0.0020867274832019624,648.677,0.7580000162124634,-0.04753109128156892
649.396552,,0.00175336370199938,649.143,0.7720000147819519,-0.016940416685611765
649.862069,,0.0010261762337932725,649.608,0.7739999890327454,-0.01239367819679248
650.327586,,0.0039554850563026525,650.074,0.7839999794960022,0.00967799687296857
650.7931030000001,,0.0047858501358000885,650.54,0.7910000085830688,0.025302413354215063
651.258621,,0.0038021271957402354,651.006,0.7760000228881836,-0.006925109531143904
651.7241379999999,,0.0027839217211446513,651.467,0.7879999876022339,0.019736084906952826
652.189655,,0.0024497611394320605,651.93,0.7689999938011169,-0.021090624056927434
652.655172,,0.0020472460717148367,652.4,0.7590000033378601,-0.042276657234555926
653.12069,,0.0010262336648506941,652.862,0.7749999761581421,-0.006803261759234097
653.5862070000001,,0.00010444235683675818,653.33,0.7990000247955322,0.046096629341581985
654.051724,,0.000642443332976704,653.792,0.7829999923706055,0.0118299685987575
654.517241,,0.00045014339257160295,654.258,0.7609999775886536,-0.035547539406836665
654.982759,,0.0003796695763048026,654.721,0.7789999842643738,0.0041641648362937935
655.448276,,0.001773901112634057,655.187,0.7639999985694885,-0.028091825850686678
655.9137929999999,,0.0031604854716414527,655.651,0.7620000243186951,-0.03211131394624025
656.37931,,0.003423678373663029,656.117,0.7889999747276306,0.026953122930808652
656.844828,,0.0021174702794217277,656.582,0.7820000052452087,0.011839667125827551
657.310345,,0.0003829749410538432,657.048,0.7710000276565552,-0.012097402126587406
657.7758620000001,,8.456338529512999e-05,657.515,0.7649999856948853,-0.025252831387995583
658.241379,,0.0010596536855387224,657.98,0.7950000166893005,0.03991347412217452
658.7068969999999,,0.0024945519976188866,658.441,0.6909999847412109,-0.18696521574486735
659.172414,,0.0028469353716198517,658.91,0.7860000133514404,0.019608155588644486
659.637931,,0.002101490468270098,659.374,0.7839999794960022,0.014765998242809964
660.103448,,0.0012040888970213512,659.836,0.5929999947547913,-0.4019150175936459
660.568966,,0.0007190724226353957,660.304,0.765999972820282,-0.02562951832905972
661.034483,,0.0003827223707009912,660.766,0.8640000224113464,0.1872191042669187
661.5,,0.00015114760819854434,661.233,0.7680000066757202,-0.022603594461896526
661.965517,,0.0007345738105996872,661.7,0.7990000247955322,0.04426828915350992
662.4310340000001,,0.0011501682032677178,662.165,0.7580000162124634,-0.04569763276591654
662.8965519999999,,0.0017193007787124964,662.63,0.7590000033378601,-0.04411654068747658
663.362069,,0.003056897148877794,663.095,0.7900000214576721,0.02288619464674045
663.827586,,0.0052417094076419035,663.555,0.7630000114440918,-0.03639328485208686
664.293103,,0.007434302757626356,664.021,0.7919999957084656,0.026425603853111494
