Trial: ,18
Threshold: ,0.0
Maximum EMG: ,0.05601640149332415
Success: ,True

EMG Time,Raw EMG,Filtered EMG,Force Time,Raw Force (V),Filtered Force (N)
0.0,samples,1.3141820444397773e-09,0.466,0.7760000228881836,0.023698206153469265
0.46551699999999996,time,1.5512479698638517e-09,0.939,0.7549999952316284,-0.022013382811938965
0.9310339999999999,value,1.7930232622588465e-09,1.397,0.7620000243186951,-0.006750240238090359
1.396552,,2.038849575506033e-09,1.86,0.7860000133514404,0.04552200892152553
1.862069,,2.2880256925137626e-09,2.33,0.7519999742507935,-0.02859459272879808
2.327586,,2.5398081729924244e-09,2.791,0.7620000243186951,-0.006877005044511151
2.793103,,2.793412179696597e-09,3.261,0.7480000257492065,-0.03747211845171273
3.258621,,3.04801248789709e-09,3.719,0.7730000019073486,0.016878083530054325
3.724138,,3.302744682398173e-09,4.189,0.7699999809265137,0.010208465394123857
4.189654999999999,,3.5567065459332368e-09,4.655,0.7749999761581421,0.0209551621958812
4.655172,,3.808959642255547e-09,5.119,0.7720000147819519,0.0142646404577372
5.12069,,4.058531096690068e-09,5.585,0.7580000162124634,-0.016394503822671207
5.586207,,4.304415576328002e-09,6.05,0.7620000243186951,-0.007836717083357812
6.051723999999999,,4.545577471428363e-09,6.515,0.7739999890327454,0.018156643865364037
6.517241,,4.780953278941297e-09,6.975,0.7310000061988831,-0.07566443564093084
6.982759,,5.009454188386973e-09,7.441,0.828000009059906,0.13554156705302875
7.448276,,5.22996886961274e-09,7.909,0.7839999794960022,0.03958030957539574
7.913793000000001,,5.441366461211102e-09,8.371,0.7710000276565552,0.01118300394998484
8.379309999999998,,5.642499757613289e-09,8.838,0.7699999809265137,0.008956124524397282
8.844828000000001,,5.832208592079336e-09,9.301,0.6269999742507935,-0.3026133235195767
9.310345,,6.0093234119873665e-09,9.768,0.6019999980926514,-0.3570814809691345
9.775862,,6.172669041984009e-09,10.23,0.7519999742507935,-0.030265839904028802
10.241379,,6.321068629696655e-09,10.696,0.7609999775886536,-0.010614027755323668
10.706897,,6.4533477678287126e-09,11.159,0.7480000257492065,-0.03886452914807219
11.172414,,6.568338785563483e-09,11.625,0.753000020980835,-0.027873406782591113
11.637931,,6.664885201293335e-09,12.09,0.7689999938011169,0.0071066281372272186
12.103447999999998,,6.74184632777104e-09,12.555,0.7739999890327454,0.018142862519693364
12.568966000000001,,6.798102019852417e-09,13.02,0.7239999771118164,-0.09062988712323303
13.034483,,6.832557554066632e-09,13.486,0.7580000162124634,-0.01638514256232536
13.5,,6.844148628315753e-09,13.953,0.765999972820282,0.0012206794504308607
13.965517,,6.831846469071792e-09,14.418,0.7580000162124634,-0.016030282232795217
14.431034,,6.7946630325107755e-09,14.879,0.746999979019165,-0.039821999263444464
14.896552,,6.731656285102966e-09,15.348,0.7649999856948853,-0.00044332592454039395
15.362069,,6.641935548269732e-09,15.812,0.7580000162124634,-0.015546492240735997
15.827586000000002,,6.524666890824596e-09,16.274,0.7739999890327454,0.019438772526342553
16.293103,,6.379078552042477e-09,16.746,0.7730000019073486,0.017362597175832727
16.758621,,6.2044663773510465e-09,17.208,0.7360000014305115,-0.06317380232693756
17.224138,,6.000199247815512e-09,17.673,0.7580000162124634,-0.015202749502518702
17.689655,,5.765724483797064e-09,18.138,0.7870000004768372,0.0479844993266476
18.155172,,5.500573202409979e-09,18.604,0.7710000276565552,0.013098524875253774
18.62069,,5.2043656076870686e-09,19.064,0.7879999876022339,0.05007401482547885
19.086207,,4.876816191692177e-09,19.53,0.7749999761581421,0.02165744199126194
19.551724,,4.517738824196012e-09,19.997,0.7739999890327454,0.019353984348961413
20.017241000000002,,4.12705170796206e-09,20.463,0.7480000257492065,-0.03744403549136648
20.482758999999998,,3.704782176177054e-09,20.931,0.7490000128746033,-0.03544389901626849
20.948276,,3.251071308109654e-09,21.393,0.7570000290870667,-0.018213699406373584
21.413793000000002,,2.766178338696001e-09,21.86,0.7580000162124634,-0.01624848924649317
21.87931,,2.2504848374357437e-09,22.323,0.7739999890327454,0.018388978366222285
22.344828,,1.704498631741254e-09,22.786,0.753000020980835,-0.027583831818898966
22.810344999999998,,1.1288574497200328e-09,23.249,0.7739999890327454,0.017953019348616765
23.275862,,5.243322572897434e-10,23.714,0.7730000019073486,0.015573554220279867
23.741379,,1.0816973546925824e-10,24.185,0.7699999809265137,0.008857553593818401
24.206897,,7.67602423723933e-10,24.65,0.753000020980835,-0.02833287782570254
24.672414,,1.4527785378728353e-09,25.116,0.7570000290870667,-0.01974041068335739
25.137931,,2.1623677786314966e-09,25.574,0.7549999952316284,-0.024184240331877865
25.603448,,2.8948953813611585e-09,26.039,0.8610000014305115,0.20670734686196832
26.068966,,3.6487411332958352e-09,26.504,0.7720000147819519,0.012808089185236293
26.534483,,4.42213886673008e-09,26.971,0.7689999938011169,0.006317699132813192
27.0,,5.21317645052942e-09,27.437,0.7609999775886536,-0.011023443152585544
27.465517,,6.019796301515069e-09,27.9,0.7820000052452087,0.03485680304846148
27.931034,,6.83979643635236e-09,28.37,0.7490000128746033,-0.03687293603014754
28.396552,,7.67083208353683e-09,28.831,0.7739999890327454,0.01779106354117917
28.862069,,8.510417873921793e-09,29.301,0.7739999890327454,0.018015681735173258
29.327586,,9.35593062696577e-09,29.764,0.7559999823570251,-0.020955079280820063
29.793103000000002,,1.0204612748496749e-08,30.227,0.7789999842643738,0.029411519826430838
30.258620999999998,,1.1053576254292975e-08,30.692,0.7730000019073486,0.01660258693993304
30.724138,,1.1899807432166934e-08,31.156,0.7739999890327454,0.019041446722075847
31.189655000000002,,1.2740172153511441e-08,31.622,0.7599999904632568,-0.011210652516533338
31.655172000000004,,1.357142184342521e-08,32.087,0.7590000033378601,-0.01316007022029798
32.12069,,1.4390200116581664e-08,32.552,0.7749999761581421,0.021900178085235495
32.586207,,1.5193050083941374e-08,33.019,0.7549999952316284,-0.021504670494596128
33.051724,,1.5976422333237766e-08,33.485,0.7739999890327454,0.020018046416494604
33.517241000000006,,1.673668358389076e-08,33.944,0.7649999856948853,0.0004944446905809849
33.982759,,1.7470126014627598e-08,34.409,0.753000020980835,-0.025612667174086442
34.448276,,1.8172977259617993e-08,34.879,0.7689999938011169,0.009232459176108326
34.913793,,1.8841411066367098e-08,35.341,0.7710000276565552,0.013526946487129354
35.37931,,1.9471558605959213e-08,35.805,0.7720000147819519,0.015594660468127623
35.844828,,2.00595204235139e-08,36.274,0.7570000290870667,-0.0172413977681202
36.310345,,2.060137901391009e-08,36.734,0.828000009059906,0.1372458877542803
36.775862,,2.109321200495977e-08,37.199,0.7770000100135803,0.025904557653435214
37.241378999999995,,2.1531105927278248e-08,37.665,0.7570000290870667,-0.01792640882893541
37.706897000000005,,2.1911170547110566e-08,38.13,0.7749999761581421,0.02100950697747878
38.172414,,2.2229553735341887e-08,38.596,0.7739999890327454,0.018538202532814404
38.637931,,2.2482456842852478e-08,39.06,0.7710000276565552,0.011705722633019708
39.103448,,2.266615054928445e-08,39.526,0.7490000128746033,-0.036516583875283413
39.568965999999996,,2.2776991149177795e-08,39.993,0.7739999890327454,0.017670918773311103
40.034483,,2.281143723631782e-08,40.459,0.8299999833106995,0.1394203101147968
40.5,,2.2766066744025563e-08,40.919,0.7580000162124634,-0.017664173525912583
40.965517,,2.263759429602881e-08,41.389,0.7630000114440918,-0.0069539146350678475
41.431034,,2.242288881948517e-08,41.853,1.0299999713897705,0.5746111482969677
41.896552,,2.2118991368702773e-08,42.315,0.7739999890327454,0.016801418211997078
42.362069000000005,,2.1723133105131137e-08,42.779,0.7990000247955322,0.07124924282216526
42.827586000000004,,2.1232753376287008e-08,43.249,0.7490000128746033,-0.037648735173934966
43.293103,,2.0645517833451333e-08,43.714,0.7910000085830688,0.053940506123444164
43.758621,,1.9959336525236883e-08,44.177,0.7739999890327454,0.01703876070038114
44.224138,,1.9172381901495598e-08,44.643,0.7590000033378601,-0.015460312638817645
44.689655,,1.8283106659524158e-08,45.109,0.7760000228881836,0.021796858542309547
45.155172,,1.729026136214985e-08,45.575,0.7450000047683716,-0.0454884386814678
45.620689999999996,,1.619291175505061e-08,46.034,0.7739999890327454,0.017970274493030333
46.086206999999995,,1.499045570859772e-08,46.5,0.7440000176429749,-0.04709438885782307
46.551724,,1.3682639707621313e-08,46.964,0.7730000019073486,0.01638929472114742
47.017241,,1.226957481080196e-08,47.429,0.753000020980835,-0.026881364127041046
47.482759,,1.0751751999900534e-08,47.897,0.7599999904632568,-0.011338161236208986
47.948276,,9.130056837767417e-09,48.36,0.7990000247955322,0.07390441305952157
48.413793,,7.4057833530350025e-09,48.83,0.8399999737739563,0.16348079475619204
48.879310000000004,,5.580647068608189e-09,49.293,0.7739999890327454,0.01991205062661685
49.344828,,3.6567970905395857e-09,49.757,0.7760000228881836,0.024453259968605076
49.810345,,1.636827173622718e-09,50.219,0.7739999890327454,0.020234578343661963
50.275862,,4.762143199296869e-10,50.685,0.7540000081062317,-0.02324964215793034
50.741379,,2.6788156520219077e-09,51.15,0.7580000162124634,-0.014499920327793386
51.206897,,4.9669942130808544e-09,51.615,0.7739999890327454,0.020338647779709774
51.672414,,7.336290381018971e-09,52.082,0.753000020980835,-0.02548693579235549
52.137931,,9.781762815142282e-09,52.547,0.7739999890327454,0.02013822424470971
52.603448,,1.2297985263748776e-08,53.013,0.7739999890327454,0.019963385189928153
53.068966,,1.4879044962168056e-08,53.478,0.7549999952316284,-0.021649145403145557
53.534483,,1.751854269563928e-08,53.943,0.7509999871253967,-0.030619770298245714
54.0,,2.020959459870363e-08,54.408,0.7599999904632568,-0.011298529711668635
54.465517,,2.2944835759693774e-08,54.871,0.7749999761581421,0.021073032920256033
54.931034,,2.5716425695431037e-08,55.334,0.753000020980835,-0.02717729132590754
55.396552,,2.8516055757387202e-08,55.805,0.7509999871253967,-0.03185774485476871
55.862069,,3.13349585263293e-08,56.267,0.7760000228881836,0.022292302003298077
56.327586,,3.416391924784087e-08,56.733,0.753000020980835,-0.028115973860448586
56.793102999999995,,3.699328935610186e-08,57.199,0.7990000247955322,0.07182912120668572
57.258621000000005,,3.981300212791277e-08,57.664,0.7739999890327454,0.01712581331226076
57.724138,,4.2612590503169335e-08,58.124,0.7570000290870667,-0.020105433143451326
58.189655,,4.5381207101835824e-08,58.589,0.7910000085830688,0.05382256603964656
58.655172,,4.8107646460934296e-08,59.056,0.7599999904632568,-0.013808403450208086
59.120689999999996,,5.078036950817023e-08,59.522,0.7739999890327454,0.016655822318287692
59.586207,,5.338753028156086e-08,59.987,0.7749999761581421,0.018854777741509683
60.051724,,5.5917004896831945e-08,60.453,0.7570000290870667,-0.020283743789998594
60.517241,,5.8356422756413206e-08,60.916,0.7730000019073486,0.01470583233891316
60.982758999999994,,6.069319998560716e-08,61.385,0.7570000290870667,-0.019970889597755576
61.448276,,6.291457507294478e-08,61.849,0.7739999890327454,0.017292715875375824
61.913793,,6.500764668289263e-08,62.312,0.7609999775886536,-0.010764652158684607
62.379310000000004,,6.695941359995868e-08,62.775,0.7739999890327454,0.01785354429606375
62.84482800000001,,6.875681675387818e-08,63.245,0.7739999890327454,0.01817131989987506
63.310345000000005,,7.038678326597099e-08,63.711,0.6779999732971191,-0.19065030410426892
63.775862000000004,,7.183627244697042e-08,64.174,0.7850000262260437,0.04279353603476086
64.241379,,7.309232366665811e-08,64.64,0.7760000228881836,0.02350570597439027
64.706897,,7.414210600552753e-08,65.104,0.7390000224113464,-0.056801113883947936
65.172414,,7.497296958846948e-08,65.57,0.7749999761581421,0.02190657823206207
65.637931,,7.557249849015944e-08,66.03,0.6370000243186951,-0.2785074957034288
66.103448,,7.592856509146003e-08,66.496,0.7570000290870667,-0.01687654981659166
66.56896599999999,,7.602938575576817e-08,66.961,0.7649999856948853,0.0006955952953193764
67.03448300000001,,7.586357768387116e-08,67.426,0.781000018119812,0.03564585180451168
67.5,,7.542021679556716e-08,67.89,0.7590000033378601,-0.012246191937392363
67.965517,,7.468889647609292e-08,68.359,0.7739999890327454,0.020416943177337256
68.431034,,7.365978701532428e-08,68.821,0.7509999871253967,-0.02976318076997497
68.896552,,7.232369555781634e-08,69.29,0.7739999890327454,0.020221898259209944
69.362069,,7.0672126372072e-08,69.753,0.7580000162124634,-0.014809200616589958
69.827586,,6.869734123801463e-08,70.215,0.7570000290870667,-0.01720464486253808
70.293103,,6.639241974253766e-08,70.681,0.7649999856948853,-3.0277477427472985e-05
70.75862099999999,,6.375131926425659e-08,71.146,0.7739999890327454,0.01929282095900305
71.22413800000001,,6.076893442024401e-08,71.611,0.7480000257492065,-0.03765844243070223
71.689655,,5.7441155739632476e-08,72.079,0.7720000147819519,0.014309521255132362
72.15517200000001,,5.376492732157213e-08,72.545,0.7570000290870667,-0.01869345807548747
72.62069,,4.973830322817588e-08,73.008,0.7269999980926514,-0.08437119174504515
73.086207,,4.5360502356824506e-08,73.474,0.7889999747276306,0.0504009698067984
73.551724,,4.063196153058371e-08,73.939,0.7789999842643738,0.028335100712894922
74.017241,,3.555438654055341e-08,74.405,0.7739999890327454,0.01719599051310581
74.482759,,3.013080086977392e-08,74.868,0.7490000128746033,-0.037476207250370965
74.94827599999999,,2.436559182489985e-08,75.33,0.7739999890327454,0.016829244783412182
75.41379300000001,,1.826455379926769e-08,75.801,0.7839999794960022,0.0385056137507961
75.87931,,1.1834928389271092e-08,76.263,0.7689999938011169,0.005770176229669449
76.344828,,5.085441085163758e-09,76.729,0.7749999761581421,0.018841986145463476
76.810345,,1.9736657424252058e-09,77.193,0.7630000114440918,-0.0072464452120079275
77.275862,,9.330603837812752e-09,77.659,0.7739999890327454,0.016827432118759866
77.741379,,1.6972014312764205e-08,78.119,0.7590000033378601,-0.01569334274170555
78.206897,,2.4882947428238422e-08,78.585,0.7749999761581421,0.019369289543117008
78.67241399999999,,3.304684717304445e-08,79.052,0.7760000228881836,0.021792013269257185
79.137931,,4.1445540901541163e-08,79.518,0.7730000019073486,0.015532743903167502
79.603448,,5.0059234285801e-08,79.983,0.7549999952316284,-0.023382072430389172
80.068966,,5.886651182974809e-08,80.448,0.7459999918937683,-0.042674633487002726
80.53448300000001,,6.784434318364643e-08,80.912,0.7730000019073486,0.01646919995826551
81.0,,7.696809548693501e-08,81.374,0.753000020980835,-0.026787349400346563
81.465517,,8.62115519557676e-08,81.842,0.7519999742507935,-0.02866306322448073
81.931034,,9.554693691870134e-08,82.304,0.777999997138977,0.028262837593000897
82.396552,,1.0494494748978237e-07,82.775,0.777999997138977,0.028514579961879383
82.86206899999999,,1.1437479205279262e-07,83.237,0.7739999890327454,0.02001562306121662
83.327586,,1.2380423571365013e-07,83.703,0.7599999904632568,-0.010312536822815927
83.79310299999999,,1.3319965285990016e-07,84.167,0.7519999742507935,-0.02761731899649869
84.258621,,1.4252608694690293e-07,84.633,0.765999972820282,0.0029558586424941746
84.72413800000001,,1.5174731760973262e-07,85.097,0.7739999890327454,0.020403312311490226
85.189655,,1.6082593517796754e-07,85.563,0.7739999890327454,0.020367765200292327
85.65517200000001,,1.6972342264750024e-07,86.028,0.7720000147819519,0.01592239862029497
86.12069,,1.7840024513925507e-07,86.493,0.7549999952316284,-0.02125318452345356
86.586207,,1.8681594684930743e-07,86.961,0.7440000176429749,-0.04540399218131883
87.051724,,1.9492925546839134e-07,87.419,0.7739999890327454,0.019727763753049576
87.517241,,2.026981940212095e-07,87.887,0.7440000176429749,-0.04589422168820237
87.98275899999999,,2.100802000473731e-07,88.349,0.7580000162124634,-0.01568321229911166
88.448276,,2.1703225201625546e-07,88.819,0.7570000290870667,-0.018170949583300698
88.913793,,2.2351100283760828e-07,89.282,0.7870000004768372,0.04687018837078021
89.37931,,2.29472920298533e-07,89.75,0.7820000052452087,0.03565987510584662
89.844828,,2.348744342253961e-07,90.212,0.7739999890327454,0.017924267021954376
90.310345,,2.3967209013660925e-07,90.678,0.753000020980835,-0.028114847048987965
90.775862,,2.4382270911895196e-07,91.145,0.7559999823570251,-0.02184023876347407
91.241379,,2.4728355362638743e-07,91.611,0.9380000233650208,0.3744497463141438
91.706897,,2.500124988662116e-07,92.075,0.7559999823570251,-0.022241918396843002
92.17241399999999,,2.51968209402987e-07,92.541,0.7739999890327454,0.01684501187258995
92.63793100000001,,2.5311032057615495e-07,93.001,0.7570000290870667,-0.020271759873916956
93.103448,,2.5339962429261054e-07,93.467,0.7739999890327454,0.016736275604784745
93.568966,,2.5279825872098547e-07,93.939,0.7480000257492065,-0.03988620657664611
94.03448300000001,,2.5126990138003775e-07,94.397,0.7490000128746033,-0.03763561723326158
94.5,,2.48779965079529e-07,94.86,0.777999997138977,0.025664574950122816
94.965517,,2.4529579613841096e-07,95.33,0.8379999995231628,0.15654897258638387
95.431034,,2.4078687427218574e-07,95.794,0.8730000257492065,0.23301172822175342
95.896552,,2.352250135090912e-07,96.256,0.7609999775886536,-0.010748563667409408
96.36206899999999,,2.285845634634416e-07,96.722,0.7760000228881836,0.02220757183609264
96.827586,,2.20842610264172e-07,97.184,0.7580000162124634,-0.01671425298791658
97.293103,,2.1197917640754842e-07,97.65,0.7559999823570251,-0.020769354303455313
97.758621,,2.0197741877526852e-07,98.116,0.7739999890327454,0.01874804491634744
98.224138,,1.9082382403294708e-07,98.581,0.7519999742507935,-0.028889687219815597
98.689655,,1.7850840059941443e-07,99.045,0.7480000257492065,-0.037329662902613414
99.155172,,1.6502486635451468e-07,99.511,0.7580000162124634,-0.015294888702242455
99.62069,,1.5037083123233421e-07,99.979,0.7540000081062317,-0.023794062129754916
100.086207,,1.3454797382817818e-07,100.444,0.7749999761581421,0.0221346871988077
100.551724,,1.1756221113130277e-07,100.905,0.753000020980835,-0.025660911947706196
101.017241,,9.942386048156173e-08,101.374,0.7310000061988831,-0.07350343644835752
101.482759,,8.014779283689291e-08,101.838,0.777999997138977,0.02893175426807795
101.948276,,5.975357643010715e-08,102.301,0.7699999809265137,0.011492846307479185
102.413793,,3.826560988789665e-08,102.764,0.781000018119812,0.03540171542478896
102.87931,,1.5713243882500534e-08,103.234,0.7580000162124634,-0.014808204504707698
103.344828,,7.869109612808896e-09,103.699,0.7739999890327454,0.019907592645610712
103.810345,,3.244188138918707e-08,104.159,0.7889999747276306,0.05240823288856341
104.275862,,5.796026330585372e-08,104.624,0.7590000033378601,-0.013160965645065253
104.741379,,8.437414173799877e-08,105.09,0.777999997138977,0.027998659732970957
105.206897,,1.1162804706020595e-07,105.555,0.7739999890327454,0.019031407673012334
105.672414,,1.396611200379802e-07,106.02,0.7739999890327454,0.018768334440922275
106.13793100000001,,1.684070959773861e-07,106.485,0.7519999742507935,-0.029428494660416256
106.603448,,1.977943074562211e-07,106.95,0.7480000257492065,-0.038406349533045614
107.068966,,2.2774570642948075e-07,107.416,0.7699999809265137,0.009270785127303508
107.534483,,2.581789064670571e-07,107.886,0.7620000243186951,-0.008393470694055294
108.0,,2.890062458425893e-07,108.349,0.7710000276565552,0.011003803614981392
108.46551699999999,,3.201348721491169e-07,108.812,0.75,-0.03492844620918992
108.931034,,3.514668490696405e-07,109.274,0.7739999890327454,0.01721315758402288
109.396552,,3.8289928587885737e-07,109.745,0.7739999890327454,0.017106050007282415
109.862069,,4.1432449019620804e-07,110.208,0.7509999871253967,-0.033068517777589894
110.32758600000001,,4.4563014444996057e-07,110.674,0.7739999890327454,0.017017256035451764
110.793103,,4.766995064474033e-07,111.139,0.7739999890327454,0.017037221479397575
111.258621,,5.074116343773628e-07,111.604,0.7580000162124634,-0.01775886004122952
111.724138,,5.376416364982681e-07,112.064,0.8339999914169312,0.14792162468418724
112.189655,,5.672609456879354e-07,112.53,0.765999972820282,-8.44542892318899e-05
112.655172,,5.96137618950244e-07,112.994,0.7739999890327454,0.017520399580562285
113.12069,,6.241366618890321e-07,113.46,0.753000020980835,-0.028028741724833023
113.586207,,6.511203780710021e-07,113.93,0.7609999775886536,-0.010376941541842473
114.051724,,6.76948743107336e-07,114.393,0.753000020980835,-0.027569811625135873
114.51724100000001,,7.014798031882658e-07,114.856,0.8510000109672546,0.18618245372757383
114.982759,,7.245700977062092e-07,115.319,0.753000020980835,-0.027077327752095415
115.448276,,7.460751055014911e-07,115.787,0.7950000166893005,0.06466883487188661
115.913793,,7.65849714160346e-07,116.249,0.7739999890327454,0.019147618405811972
116.37931,,7.837487116881117e-07,116.715,0.753000020980835,-0.026392731539559122
116.84482799999999,,7.996272997715242e-07,117.185,0.7990000247955322,0.07401094273719908
117.310345,,8.133416277331354e-07,117.651,0.7590000033378601,-0.012979150317423499
117.77586199999999,,8.247493461683801e-07,118.109,0.75,-0.032465909724316636
118.241379,,8.337101791420706e-07,118.574,0.7570000290870667,-0.017133099677425555
118.70689700000001,,8.4008651370644e-07,119.045,0.7739999890327454,0.01994564868039058
119.172414,,8.437440053876552e-07,119.504,0.7760000228881836,0.02430449003132642
119.63793100000001,,8.445521981723725e-07,119.971,0.7739999890327454,0.019909036934800353
120.103448,,8.423851574108038e-07,120.437,0.628000020980835,-0.29825254297407894
120.568966,,8.371221139383439e-07,120.901,0.777999997138977,0.0284252096066066
121.034483,,8.286481176044881e-07,121.371,0.7570000290870667,-0.01748014673351362
121.5,,8.168546982860152e-07,121.834,0.7590000033378601,-0.01330382749384128
121.96551699999999,,8.016405323516872e-07,122.297,0.7749999761581421,0.021352166651451714
122.431034,,7.829121124384934e-07,122.76,0.746999979019165,-0.03986737220989805
122.896552,,7.605844182952506e-07,123.23,0.7739999890327454,0.018730133818343656
123.362069,,7.34581586348635e-07,123.696,0.753000020980835,-0.02724932256263374
123.827586,,7.048375755500124e-07,124.159,0.7749999761581421,0.02045793040587606
124.293103,,6.712968269692339e-07,124.625,0.7509999871253967,-0.03204120946968343
124.758621,,6.339149145144251e-07,125.089,0.7490000128746033,-0.036593243554043704
125.22413800000001,,5.926591840752293e-07,125.556,0.777999997138977,0.02641494680213898
125.68965500000002,,5.475093783115098e-07,126.02,0.7739999890327454,0.017555536241798585
126.15517200000001,,4.984582442407049e-07,126.479,0.7710000276565552,0.010906756920585764
126.62069000000001,,4.4551212071538914e-07,126.945,0.8640000224113464,0.2134443480411819
127.086207,,3.8869150282866214e-07,127.411,0.7739999890327454,0.017328471519011478
127.55172400000001,,3.2803158023927767e-07,127.875,0.7730000019073486,0.015150464164810425
128.017241,,2.6358274637147195e-07,128.345,0.7699999809265137,0.008650336269655445
128.48275900000002,,1.9541107541674742e-07,128.808,0.7739999890327454,0.01743402969103376
128.948276,,1.2359876404692304e-07,129.271,0.7490000128746033,-0.03693314006603168
129.413793,,4.8244534740058936e-08,129.742,0.7480000257492065,-0.0389873989083859
129.87931,,3.0536002376131575e-08,130.204,0.7710000276565552,0.011266873954630113
130.344828,,1.1261003224460097e-07,130.67,0.6700000166893005,-0.20861621328752328
130.81034499999998,,1.9782726521847404e-07,131.134,0.7730000019073486,0.01595390276001397
131.275862,,2.8601971803743314e-07,131.6,0.75,-0.03398044173378375
131.741379,,3.7700154840852103e-07,132.064,0.7739999890327454,0.018483614284873467
132.206897,,4.705689460960062e-07,132.53,0.7739999890327454,0.01865767120406011
132.67241399999997,,5.665000833489939e-07,132.99,0.7509999871253967,-0.03128423839829701
133.13793099999998,,6.645551274061384e-07,133.456,0.7609999775886536,-0.009342724367697328
133.60344800000001,,7.64476317713867e-07,133.924,0.7739999890327454,0.019119171635758603
134.06896600000002,,8.659881103777329e-07,134.386,0.7739999890327454,0.019240395665167463
134.53448300000002,,9.687973922357043e-07,134.849,0.7609999775886536,-0.008981744423445438
135.0,,1.0725937667972155e-06,135.319,0.7680000066757202,0.0063458684717650655
135.465517,,1.1770499141325737e-06,135.782,0.7739999890327454,0.019470153308510253
135.931034,,1.2818220266237714e-06,136.245,1.0,0.5118766193270224
136.396552,,1.3865503222999024e-06,136.71,0.746999979019165,-0.03930716737546686
136.862069,,1.4908596372782798e-06,137.179,0.7839999794960022,0.041295487993367026
137.327586,,1.5943600986160985e-06,137.645,0.7480000257492065,-0.03716877269828173
137.793103,,1.6966478786472401e-06,138.105,0.7710000276565552,0.012882261713608293
138.258621,,1.7973060316348034e-06,138.57,0.7739999890327454,0.01933713344555239
138.724138,,1.8959054133124293e-06,139.038,0.7760000228881836,0.023593175557011292
139.189655,,1.992005683616806e-06,139.503,0.753000020980835,-0.026635054687264313
139.655172,,2.0851563926302947e-06,139.968,0.75,-0.03330605893512464
140.12069,,2.174898149456859e-06,140.434,0.765999972820282,0.0014048458129588557
140.586207,,2.26076387344694e-06,140.897,0.75,-0.0336091821582196
141.05172399999998,,2.3422801268681737e-06,141.359,0.7480000257492065,-0.03812660624686841
141.51724099999998,,2.4189685277895663e-06,141.828,0.7720000147819519,0.014000638534342864
141.982759,,2.4903472416076177e-06,142.29,0.7480000257492065,-0.03844264538092056
142.44827600000002,,2.5559325492947287e-06,142.761,0.7739999890327454,0.018055254227586227
142.913793,,2.6152404900938666e-06,143.223,0.7369999885559082,-0.06268903015432681
143.37931,,2.6677885760198334e-06,143.688,0.7580000162124634,-0.017055796135341982
143.844828,,2.713097575157553e-06,144.153,0.7480000257492065,-0.03894173727050696
144.310345,,2.7506933603726134e-06,144.618,0.7739999890327454,0.017625902805179783
144.77586200000002,,2.7801088196699812e-06,145.079,0.7590000033378601,-0.015105913576799872
145.241379,,2.800885824054512e-06,145.544,0.7739999890327454,0.017548506778761064
145.706897,,2.812577248362884e-06,146.015,0.7730000019073486,0.015372515081393569
146.172414,,2.8147490401521237e-06,146.474,0.7739999890327454,0.01758200136231452
146.637931,,2.8069823313463496e-06,146.946,0.7639999985694885,-0.004146276822699689
147.103448,,2.7888755869621416e-06,147.405,0.7609999775886536,-0.010598669146263888
147.568966,,2.7600467848554932e-06,147.875,0.7580000162124634,-0.017028096622420854
148.034483,,2.7201356200611766e-06,148.338,0.7739999890327454,0.017956786122621294
148.5,,2.6688057269300307e-06,148.801,0.7490000128746033,-0.03636605600194838
148.965517,,2.605746911912813e-06,149.271,0.7910000085830688,0.05529358425857276
149.43103399999998,,2.530677389492459e-06,149.729,0.7580000162124634,-0.016436182831927514
149.89655199999999,,2.4433460134315526e-06,150.2,0.7739999890327454,0.01859232923047545
150.362069,,2.34353449518022e-06,150.659,0.7440000176429749,-0.04659767032208662
150.82758600000003,,2.231059600983235e-06,151.124,0.753000020980835,-0.026826557269096954
151.293103,,2.105775318935637e-06,151.589,0.7870000004768372,0.04740043194987372
151.758621,,1.9675749869653487e-06,152.056,0.7620000243186951,-0.006926408717608238
152.224138,,1.8163933724709215e-06,152.522,0.7739999890327454,0.01933899124168464
152.68965500000002,,1.6522086941144388e-06,152.986,0.7730000019073486,0.017260857893298797
153.155172,,1.4750445760654953e-06,153.452,0.7739999890327454,0.01951601597207514
153.62069,,1.2849719248138297e-06,153.915,0.7770000100135803,0.02610233690333656
154.086207,,1.08211071851738e-06,154.385,0.7570000290870667,-0.017448372190219556
154.551724,,8.666316987309606e-07,154.849,0.7710000276565552,0.013045543781723417
155.017241,,6.387579542701385e-07,155.311,0.7580000162124634,-0.015313652158932994
155.482759,,3.987663869068619e-07,155.775,0.7379999756813049,-0.05895284108623032
155.948276,,1.4698904856959653e-07,156.245,0.7870000004768372,0.04770708172479008
156.413793,,1.1618566026730648e-07,156.71,0.7649999856948853,-0.00034150396217192845
156.87931,,3.9031194127102397e-07,157.173,0.7820000052452087,0.03655654645158721
157.34482799999998,,6.748857081924927e-07,157.639,0.7739999890327454,0.018971353219818844
157.81034499999998,,9.693438661134472e-07,158.105,0.7599999904632568,-0.011698635894394762
158.275862,,1.2730637698788519e-06,158.564,0.4779999852180481,-0.6262608734367369
158.741379,,1.585362871383381e-06,159.03,0.7990000247955322,0.07288870612719868
159.20689700000003,,1.905498565125056e-06,159.496,0.7580000162124634,-0.016634634971789755
159.672414,,2.2326682411390135e-06,159.96,0.7570000290870667,-0.01900305853107035
160.137931,,2.5660095540788175e-06,160.426,0.7689999938011169,0.006965187753495207
160.60344800000001,,2.9046009168209656e-06,160.89,0.8399999737739563,0.16149547098461214
161.06896600000002,,3.2474622265297406e-06,161.36,0.7580000162124634,-0.017279476645302244
161.534483,,3.5935558306338134e-06,161.823,0.7739999890327454,0.017483579810114714
162.0,,3.941787739632717e-06,162.286,0.7509999871253967,-0.032688424474636005
162.465517,,4.291009093070352e-06,162.754,0.7559999823570251,-0.021824460674753552
162.931034,,4.640017884384043e-06,163.216,0.7739999890327454,0.017396898514721596
163.396552,,4.9875609496615565e-06,163.682,0.7450000047683716,-0.045743098966630674
163.862069,,5.332336224615191e-06,164.149,0.7739999890327454,0.01751233124778944
164.327586,,5.67299527331219e-06,164.614,0.5419999957084656,-0.48783171139818965
164.793103,,6.008146091385003e-06,165.079,0.7369999885559082,-0.06287197356319749
165.258621,,6.336356185584303e-06,165.545,0.7580000162124634,-0.016976461232568824
165.72413799999998,,6.656155930633158e-06,166.008,0.7580000162124634,-0.016811325326045595
166.189655,,6.966042203393854e-06,166.474,0.7929999828338623,0.059624371739517984
166.655172,,7.264482293370948e-06,166.939,0.777999997138977,0.027141563919255342
167.12069,,7.549918087547108e-06,167.404,0.7739999890327454,0.018632082692218825
167.58620699999997,,7.820770526484038e-06,167.867,0.7559999823570251,-0.020377049121246677
168.051724,,8.075444327521475e-06,168.33,0.8069999814033508,0.09093606364311797
168.517241,,8.312332969775368e-06,168.794,0.8169999718666077,0.11291552152920216
168.98275900000002,,8.52982393447439e-06,169.264,0.7570000290870667,-0.01762525442521308
169.44827600000002,,8.726304192984947e-06,169.729,0.7739999890327454,0.019567227687070796
169.913793,,8.900165933661655e-06,170.193,0.7570000290870667,-0.017342804299816838
170.37931,,9.049812517426395e-06,170.658,0.7749999761581421,0.021966587546816845
170.844828,,9.17366465072774e-06,171.124,0.7739999890327454,0.019845471062179904
171.310345,,9.270166763267804e-06,171.589,0.7570000290870667,-0.01717280835879889
171.775862,,9.337793576609061e-06,172.053,0.6190000176429749,-0.31785116092613175
172.241379,,9.375056848493716e-06,172.519,0.7580000162124634,-0.015089852144327986
172.706897,,9.380512276426921e-06,172.986,0.609000027179718,-0.33982417527682673
173.172414,,9.352766542797222e-06,173.444,0.7480000257492065,-0.03714932063410879
173.637931,,9.290484482537709e-06,173.912,0.7519999742507935,-0.028626724516022172
174.103448,,9.192396353074311e-06,174.374,0.7570000290870667,-0.017950902457408234
174.568966,,9.057305185068509e-06,174.842,0.7559999823570251,-0.02036573804292941
175.034483,,8.884094191245695e-06,175.304,0.7200000286102295,-0.0990447525584654
175.5,,8.6717342094128e-06,175.772,0.781000018119812,0.033601127760630914
175.96551699999998,,8.419291154615093e-06,176.234,0.7730000019073486,0.015925806355448924
176.43103399999998,,8.125933454267818e-06,176.699,0.7580000162124634,-0.016985876733954658
176.896552,,7.790939439029198e-06,177.166,0.7710000276565552,0.01112575938581948
177.36206900000002,,7.413704661163177e-06,177.631,0.7490000128746033,-0.03698761241788034
177.827586,,6.993749111178795e-06,178.1,0.7609999775886536,-0.010993579146686909
178.293103,,6.530724302634238e-06,178.566,0.7699999809265137,0.008503083863136926
178.758621,,6.024420194163333e-06,179.03,0.7730000019073486,0.014970693173048447
179.224138,,5.474771917026313e-06,179.489,0.7730000019073486,0.014947709279862142
179.68965500000002,,4.881866275811206e-06,179.956,0.7710000276565552,0.010613746739499897
180.155172,,4.245947989322872e-06,180.422,0.7480000257492065,-0.039426808543419053
180.62069,,3.5674256381995076e-06,180.89,0.7519999742507935,-0.030601774470919073
181.086207,,2.8468772853970245e-06,181.353,0.7739999890327454,0.017477936710904245
181.551724,,2.085055735385702e-06,181.816,0.7549999952316284,-0.023732293671440998
182.01724099999998,,1.2828933977165519e-06,182.286,0.7749999761581421,0.020053695168054504
182.482759,,4.4150672054219267e-07,182.749,0.7919999957084656,0.05732672003278061
182.948276,,4.377998402760392e-07,183.212,0.777999997138977,0.027077685827595437
183.413793,,1.3535303506715443e-06,183.677,0.7580000162124634,-0.01623579620012003
183.87931,,2.3039944603824804e-06,184.142,0.7519999742507935,-0.02905043592352054
184.34482799999998,,3.287305030929715e-06,184.607,0.777999997138977,0.02784126556966499
184.81034499999998,,4.301376362451371e-06,185.075,0.7580000162124634,-0.01550301525048025
185.27586200000002,,5.343923051567936e-06,185.54,0.7730000019073486,0.017379807379447484
185.74137900000002,,6.412459511591632e-06,186.005,0.7739999890327454,0.019729547355211038
186.206897,,7.504300185384655e-06,186.464,0.7720000147819519,0.015506059268717981
186.672414,,8.616560480010168e-06,186.938,0.7480000257492065,-0.0366900849141933
187.137931,,9.746158451005183e-06,187.397,0.7480000257492065,-0.036645062708811814
187.60344800000001,,1.0889817262633672e-05,187.86,0.777999997138977,0.028711492714272587
188.06896600000002,,1.2044068448849983e-05,188.33,0.8209999799728394,0.12234451534281136
188.534483,,1.3205255997915816e-05,188.794,0.746999979019165,-0.038968186000165855
189.0,,1.436954128166814e-05,189.256,0.8119999766349792,0.10250958946835491
189.465517,,1.5532908848330748e-05,189.722,0.7739999890327454,0.01954920350535297
189.931034,,1.6691173095499075e-05,190.185,0.753000020980835,-0.026406734830781365
190.39655199999999,,1.78399858375079e-05,190.651,0.7739999890327454,0.01911306487131476
190.862069,,1.8974844778816038e-05,191.115,0.7739999890327454,0.01886156753035421
191.327586,,2.009110290231416e-05,191.581,0.75,-0.033689335681296964
191.793103,,2.1183978778584102e-05,192.046,0.753000020980835,-0.027421006978718142
192.25862099999998,,2.2248567799114496e-05,192.512,0.7739999890327454,0.01806721024563035
192.72413799999998,,2.327985433331262e-05,192.978,0.7559999823570251,-0.021398500334104956
193.189655,,2.4272724805851172e-05,193.444,0.7739999890327454,0.017588730767338332
193.655172,,2.522198168745728e-05,193.905,0.7630000114440918,-0.0065756520256137554
194.12069000000002,,2.6122358388695848e-05,194.374,0.7080000042915344,-0.12656596771469159
194.586207,,2.6968535042627895e-05,194.838,0.7739999890327454,0.01709950561029158
195.051724,,2.7755155158444694e-05,195.3,0.7480000257492065,-0.03962602770505954
195.517241,,2.8476843124298957e-05,195.764,0.7789999842643738,0.027879757406942755
195.98275900000002,,2.912822253358498e-05,196.234,0.7519999742507935,-0.030925899725477102
196.448276,,2.9703935304870425e-05,196.699,0.7749999761581421,0.019250960713892363
196.913793,,3.019866156156458e-05,197.159,0.75,-0.03509911179373585
197.37931,,3.06071402332329e-05,197.624,0.7599999904632568,-0.013151973825033315
197.844828,,3.092419033624784e-05,198.089,0.7860000133514404,0.043693810305329116
198.310345,,3.114473288721494e-05,198.555,0.7730000019073486,0.01560719597622812
198.775862,,3.126381339834393e-05,199.02,0.7739999890327454,0.018049366822439003
199.241379,,3.1276624899662645e-05,199.486,0.7720000147819519,0.01397482828529175
199.706897,,3.1178531428710884e-05,199.953,0.7549999952316284,-0.022769778782893574
200.172414,,3.096509192411827e-05,200.419,0.7760000228881836,0.023274463848114477
200.63793099999998,,3.063208445528105e-05,200.879,0.7620000243186951,-0.006943287801053223
201.103448,,3.0175530716223896e-05,201.35,0.753000020980835,-0.026286597554901293
201.568966,,2.959172070768204e-05,201.813,0.7739999890327454,0.01970176052112528
202.034483,,2.887723752748392e-05,202.275,0.7409999966621399,-0.051992515032163754
202.5,,2.8028982185473303e-05,202.745,0.7699999809265137,0.011346634310834956
202.965517,,2.7044198355501214e-05,203.208,0.7599999904632568,-0.010329452873395848
203.431034,,2.592049697346074e-05,203.674,0.7749999761581421,0.022409154107479897
203.896552,,2.465588058695142e-05,204.139,0.7739999890327454,0.020235965667536097
204.36206900000002,,2.3248767358963662e-05,204.604,0.7519999742507935,-0.027743196995932095
204.827586,,2.169801462498692e-05,205.064,0.7870000004768372,0.04840736008656964
205.293103,,2.0002941900188466e-05,205.529,0.7730000019073486,0.017754124704120522
205.758621,,1.8163353230801704e-05,206.001,0.7720000147819519,0.01537796772721357
206.224138,,1.617955878162401e-05,206.459,0.7749999761581421,0.021676569579602033
206.689655,,1.4052395549573829e-05,206.927,0.7590000033378601,-0.013451734156786004
207.155172,,1.1783247091614212e-05,207.39,0.9190000295639038,0.33484027979881215
207.62069,,9.374062154034854e-06,207.86,0.753000020980835,-0.02711778022996957
208.086207,,6.827372089115218e-06,208.323,0.7739999890327454,0.01832764595476799
208.551724,,4.146306944586502e-06,208.786,0.753000020980835,-0.027727186448156353
209.01724099999998,,1.3346101110874697e-06,209.256,0.7820000052452087,0.03516282916187701
209.482759,,1.6033485870138824e-06,209.715,0.7549999952316284,-0.02392963022267964
209.948276,,4.662561471467638e-06,210.184,0.7789999842643738,0.028119485131273544
210.413793,,7.837373373667763e-06,210.65,0.7519999742507935,-0.030904393136670587
210.87930999999998,,1.1121473893393369e-05,211.116,0.8100000023841858,0.09530229815333288
211.344828,,1.4507891662368629e-05,211.574,0.7739999890327454,0.016767474016217428
211.810345,,1.7988990719836387e-05,212.042,0.7720000147819519,0.012361837577182
212.27586200000002,,2.155646910444612e-05,212.507,0.7699999809265137,0.008012336893318884
212.741379,,2.5201359763365452e-05,212.971,0.7710000276565552,0.010255418419442181
213.206897,,2.891403387562658e-05,213.437,0.7739999890327454,0.016910660942680587
213.672414,,3.268420668230665e-05,213.905,0.753000020980835,-0.028669930371260453
214.137931,,3.6500945911207936e-05,214.367,0.7739999890327454,0.017299044707772118
214.60344800000001,,4.035268287824415e-05,214.83,0.7630000114440918,-0.006408306535335135
215.068966,,4.422722634175083e-05,215.3,0.7760000228881836,0.022204858930218944
215.534483,,4.811177917941814e-05,215.764,0.7609999775886536,-0.010160007625179629
216.0,,5.199295795049438e-05,216.226,0.7739999890327454,0.0184921013155093
216.465517,,5.5856815398329954e-05,216.692,0.7450000047683716,-0.04435477489874917
216.93103399999998,,5.9688865940228e-05,217.156,0.7739999890327454,0.01915363287361178
217.39655199999999,,6.347411418294699e-05,217.622,0.753000020980835,-0.02628662972544683
217.862069,,6.719708649306901e-05,218.087,0.7620000243186951,-0.0063935972005766915
218.327586,,7.084186564181648e-05,218.552,0.7739999890327454,0.0200003483001807
218.793103,,7.439212853378171e-05,219.019,0.7599999904632568,-0.010293094310131779
219.25862099999998,,7.783118701844375e-05,219.485,0.7730000019073486,0.018187618917126277
219.724138,,8.114203177230166e-05,219.949,0.7739999890327454,0.020470045789132914
220.18965500000002,,8.43073792279731e-05,220.415,0.7559999823570251,-0.018700014625122205
220.65517200000002,,8.73097215147133e-05,220.878,0.7739999890327454,0.020500930864856114
221.12069,,9.01313793625267e-05,221.341,0.753000020980835,-0.025325906864685287
221.586207,,9.275455790939807e-05,221.805,0.7710000276565552,0.013755693003721285
222.051724,,9.516140533819255e-05,222.275,0.7730000019073486,0.017923961860600683
222.517241,,9.73340742564942e-05,222.746,0.7789999842643738,0.030757852405114854
222.98275900000002,,9.925478571910647e-05,223.2,0.7490000128746033,-0.03488192549224448
223.448276,,0.0001009058957791606,223.666,0.7739999890327454,0.019269204029888663
223.913793,,0.00010226996443980827,224.134,0.7680000066757202,0.005857270599731223
224.37931,,0.00010332982686435562,224.599,0.7519999742507935,-0.02935609708904145
224.844828,,0.00010406866668846856,225.065,0.8199999928474426,0.1184337055038513
225.31034499999998,,0.0001044700912637914,225.53,0.7730000019073486,0.01568768999909507
225.775862,,0.00010451820864801861,225.99,0.7390000224113464,-0.05871736844045615
226.241379,,0.00010419770614219455,226.456,0.7739999890327454,0.017231502665490023
226.706897,,0.00010349393016183988,226.919,0.7459999918937683,-0.04403752378397181
227.172414,,0.00010239296721446975,227.389,0.7609999775886536,-0.011579359601286438
227.63793099999998,,0.00010088172574223357,227.849,0.8389999866485596,0.15818776418931077
228.103448,,9.894801857482618e-05,228.319,0.7609999775886536,-0.011853105086597995
228.56896600000002,,9.658064572455599e-05,228.783,0.7950000166893005,0.06217903042206607
229.03448300000002,,9.37694772425659e-05,229.245,0.7549999952316284,-0.02494406260856471
229.5,,9.05055358427497e-05,229.711,0.777999997138977,0.02525201786413426
229.965517,,8.67810789879534e-05,230.181,0.753000020980835,-0.029065416792582167
230.431034,,8.258968012166061e-05,230.639,0.7549999952316284,-0.02450245134286765
230.896552,,7.792630871759794e-05,231.105,0.7739999890327454,0.017148633176730353
231.362069,,7.278740880962459e-05,231.571,0.7549999952316284,-0.02394497316359847
231.827586,,6.71709756549569e-05,232.038,0.7739999890327454,0.01778515697799362
232.293103,,6.107663017528599e-05,232.504,0.7490000128746033,-0.03632021656718239
232.758621,,5.4505690812742683e-05,232.968,0.7559999823570251,-0.020695185960516577
233.224138,,4.746124243101076e-05,233.434,0.7739999890327454,0.018897672546822824
233.689655,,3.994820188625218e-05,233.897,0.7490000128746033,-0.035199818758684574
234.155172,,3.197337988794989e-05,234.359,0.8489999771118164,0.18301528714884935
234.62069,,2.3545538766355757e-05,234.827,0.7860000133514404,0.04608360829279418
235.086207,,1.4675445761014778e-05,235.289,0.7739999890327454,0.020224960150257567
235.55172399999998,,5.375921443879467e-06,235.76,0.7710000276565552,0.013925554161702287
236.01724099999998,,4.3381171091120414e-06,236.223,0.7519999742507935,-0.02728957420577503
236.482759,,1.4449618782390477e-05,236.688,0.7559999823570251,-0.018459468045148135
236.94827600000002,,2.4939366902285863e-05,237.149,0.7509999871253967,-0.029305410464422012
237.413793,,3.5785954112352896e-05,237.614,0.7609999775886536,-0.007541737751581055
237.87931,,4.6965764012968615e-05,238.079,0.7739999890327454,0.02068856040268369
238.344828,,5.845295992797857e-05,238.545,0.7739999890327454,0.020530046990377953
238.810345,,7.021948115186878e-05,239.012,0.7730000019073486,0.018131189338347096
239.27586200000002,,8.223504702000956e-05,239.478,0.7620000243186951,-0.006109790364127458
239.741379,,9.446716913192403e-05,239.942,0.7739999890327454,0.019710246218853558
240.206897,,0.00010688117204325317,240.407,0.7540000081062317,-0.02422470248515897
240.672414,,0.00011944022272610151,240.875,0.7559999823570251,-0.020257433340571104
241.137931,,0.0001321053690797365,241.338,0.7639999985694885,-0.0032344914517975745
241.603448,,0.00014483558775417197,241.801,0.746999979019165,-0.040681741015186894
242.068966,,0.00015758784152798745,242.264,0.7749999761581421,0.019919059162374245
242.534483,,0.00017031714645882444,242.729,0.7570000290870667,-0.01967621326276888
243.0,,0.00018297664900036512,243.201,0.75,-0.03527322311992311
243.465517,,0.00019551771325325597,243.666,0.7540000081062317,-0.026861253037416984
243.93103399999998,,0.0002078900184894081,244.13,0.7590000033378601,-0.0162170571197709
244.39655199999999,,0.00022004166705941907,244.589,0.7450000047683716,-0.046905406263283766
244.862069,,0.00023191930276155422,245.06,0.7450000047683716,-0.04702497872428324
245.327586,,0.0002434682397178427,245.526,0.7699999809265137,0.007393849212241002
245.793103,,0.00025463260176843535,245.991,0.7910000085830688,0.05317388142214374
246.258621,,0.00026535547235949776,246.45,0.7549999952316284,-0.025153121333399503
246.724138,,0.00027557905486264153,246.919,0.765999972820282,-0.0010109200861733545
247.18965500000002,,0.0002852448432253014,247.382,0.7480000257492065,-0.039982167594582
247.655172,,0.0002942938028116329,247.85,0.746999979019165,-0.04185688506389745
248.12069,,0.0003026665612525227,248.312,0.7739999890327454,0.017321628313687616
248.586207,,0.0003103036090812717,248.775,0.753000020980835,-0.028034000399014925
249.051724,,0.0003171455098885365,249.245,0.7739999890327454,0.018142670204690067
249.517241,,0.0003231331196863108,249.711,0.7559999823570251,-0.020631624857909432
249.982759,,0.00032820781512622553,250.173,0.7749999761581421,0.02120692712618169
250.44827600000002,,0.00033231173017237407,250.639,0.7730000019073486,0.017283312579585618
250.913793,,0.000335388000783356,251.104,0.7559999823570251,-0.019344347378805214
251.37931000000003,,0.00033738101711242995,251.57,0.6790000200271606,-0.18673010085320782
251.844828,,0.0003382366826887258,252.035,0.7749999761581421,0.0227378324104724
252.31034499999998,,0.0003379026799965696,252.501,0.7749999761581421,0.022995051144413744
252.77586200000002,,0.0003363287418242825,252.96,0.7590000033378601,-0.011673412603418393
253.241379,,0.000333466927708474,253.426,0.7689999938011169,0.010228788516069334
253.706897,,0.00032927190475500975,253.894,0.777999997138977,0.029874332042829396
254.172414,,0.0003237012320737409,254.356,0.753000020980835,-0.024633919537023395
254.63793099999998,,0.0003167156480210003,254.819,0.7710000276565552,0.014460157839975087
255.10344800000001,,0.00030827935940197363,255.289,0.753000020980835,-0.02495374881096887
255.56896600000002,,0.0002983603317443286,255.749,0.7710000276565552,0.01399265059367899
256.03448299999997,,0.00028693057971505007,256.219,0.7739999890327454,0.02019623343242312
256.5,,0.00027396645671482535,256.685,0.7620000243186951,-0.006332798341110632
256.965517,,0.00025944894264923695,257.15,0.7559999823570251,-0.019832228032809488
257.431034,,0.00024336392884332327,257.615,0.7680000066757202,0.005854629942054266
257.896552,,0.00022570249903473857,258.075,0.7739999890327454,0.01845423236513342
258.362069,,0.00020646120535070477,258.54,0.7590000033378601,-0.01469842772451507
258.827586,,0.00018564233814771214,259.005,0.843999981880188,0.1700287266864307
259.29310300000003,,0.00016325418857313274,259.47,0.7699999809265137,0.008381316450465906
259.758621,,0.00013931130269198284,259.942,0.7820000052452087,0.034140687495072326
260.224138,,0.00011383472600298463,260.4,0.7739999890327454,0.016380751159283082
260.689655,,8.685223714600216e-05,260.864,0.7480000257492065,-0.04053116749731952
261.155172,,5.839856959289339e-05,261.333,0.765999972820282,-0.00151139106828879
261.62068999999997,,2.8515620127916588e-05,261.797,0.7749999761581421,0.01797877432391235
262.086207,,2.7473570587761846e-06,262.26,0.7570000290870667,-0.021271923984711658
262.551724,,3.533357186138935e-05,262.725,0.7950000166893005,0.061565987148911705
263.017241,,6.917853657694217e-05,263.196,0.7480000257492065,-0.040697569401801935
263.482759,,0.00010420992227813648,263.654,0.7540000081062317,-0.02741352722184339
263.94827599999996,,0.0001403474343295639,264.119,0.753000020980835,-0.029307294745173327
264.413793,,0.000177502708028777,264.585,0.7749999761581421,0.018972777234559944
264.87931,,0.00021557922550386808,265.049,0.765999972820282,-0.00022965323275463134
265.34482799999995,,0.0002544722552820486,265.514,0.7730000019073486,0.015470220799384538
265.810345,,0.0002940688157913792,265.979,0.7760000228881836,0.02248615844223105
266.27586199999996,,0.00033424766327364865,266.445,0.7580000162124634,-0.016233369950386958
266.741379,,0.0003748793041812138,266.915,0.7480000257492065,-0.03752320477085757
267.206897,,0.0004158260333148439,267.378,0.7620000243186951,-0.006540532798677304
267.672414,,0.0004569420006203275,267.845,0.7580000162124634,-0.01480304128620895
268.137931,,0.0004980733083219917,268.308,0.7739999890327454,0.020464444157548105
268.603448,,0.0005390581355261806,268.776,0.7739999890327454,0.020818504305078044
269.06896600000005,,0.0005797268861975757,269.239,0.7559999823570251,-0.01810936965594135
269.53448299999997,,0.0006199023646103006,269.704,0.7739999890327454,0.02131840972718607
270.0,,0.0006593999912682417,270.167,0.7480000257492065,-0.03519715627049696
270.465517,,0.0006980280623341665,270.633,0.7649999856948853,0.0018813875471496856
270.931034,,0.000735588029180873,271.097,0.7549999952316284,-0.01995300564241445
271.396552,,0.0007718747738560484,271.562,0.7760000228881836,0.025662465262656902
271.86206899999996,,0.0008066769097146195,272.027,0.781000018119812,0.03633543131082112
272.327586,,0.0008397771805760306,272.493,0.7480000257492065,-0.03585821026996212
272.793103,,0.0008709529567719797,272.957,0.7490000128746033,-0.03404839562688817
273.258621,,0.0008999766756913799,273.423,0.7480000257492065,-0.036656267637164834
273.724138,,0.0009266161081144807,273.886,0.7739999890327454,0.01951197150616048
274.18965499999996,,0.0009506346682305909,274.356,0.7749999761581421,0.021181899988554652
274.655172,,0.000971792184200542,274.82,0.7580000162124634,-0.01638040106945254
275.12069,,0.000989846012420896,275.282,0.7820000052452087,0.03538083589573686
275.586207,,0.0010045515435082042,275.746,0.7580000162124634,-0.01741790385957367
276.051724,,0.0010156615789843207,276.215,0.7210000157356262,-0.0985095002334641
276.517241,,0.0010229261183855524,276.674,0.753000020980835,-0.02923107944639341
276.98275900000004,,0.0010260948538928368,277.141,0.7730000019073486,0.013961252263728588
277.448276,,0.0010249210360349834,277.607,0.7549999952316284,-0.025564264933950358
277.913793,,0.0010191609179348534,278.072,0.765999972820282,-0.0018283320919642194
278.37931,,0.0010085669021991097,278.537,0.7739999890327454,0.015460179527254663
278.844828,,0.0009928848013572855,279.005,0.7770000100135803,0.021949364970234937
279.31034500000004,,0.0009718673699572914,279.47,0.7480000257492065,-0.04118255569736306
279.77586199999996,,0.0009452923951103221,279.931,0.765999972820282,-0.001823991418538363
280.241379,,0.0009129509974361505,280.4,0.75,-0.036449116879259696
280.706897,,0.0008746028239851228,280.86,0.7730000019073486,0.013976890821227154
281.172414,,0.0008299661094409168,281.33,0.7730000019073486,0.01436928201303989
281.637931,,0.0007788036480145602,281.793,0.7570000290870667,-0.020032683705984315
282.10344799999996,,0.000721013587192622,282.256,0.7950000166893005,0.06326288249410346
282.568966,,0.0006565268586474407,282.722,0.7739999890327454,0.018054220221932697
283.034483,,0.0005850404524592931,283.184,0.753000020980835,-0.02713508848824587
283.5,,0.0005060173440925529,283.65,0.7739999890327454,0.01918003325442738
283.965517,,0.00041923666526733056,284.116,0.7739999890327454,0.019727995588230823
284.431034,,0.00032523447754786,284.581,0.7519999742507935,-0.027686902762537394
284.89655200000004,,0.00022452581880212877,285.045,0.7820000052452087,0.03813920146413074
285.362069,,0.0001160795044484728,285.51,0.753000020980835,-0.024638377962209836
285.827586,,2.2971640502757376e-06,285.976,0.7739999890327454,0.02144011397128727
286.293103,,0.0001305136922529162,286.442,0.7400000095367432,-0.05239421763429862
286.758621,,0.00026423805350526145,286.905,0.8370000123977661,0.15908023565466314
287.22413800000004,,0.0004004161897888065,287.374,0.6079999804496765,-0.3397856544764509
287.689655,,0.0005457002169091987,287.834,0.777999997138977,0.030523408337558216
288.155172,,0.0007118206075324689,288.304,0.7580000162124634,-0.013214021615268055
288.62069,,0.0008945627567858997,288.768,0.7620000243186951,-0.00475992727181482
289.086207,,0.0010665114804315327,289.23,0.7570000290870667,-0.016002451939935124
289.55172400000004,,0.001214491646645039,289.695,0.777999997138977,0.02932168663240978
290.01724099999996,,0.0013843521779474653,290.159,0.7480000257492065,-0.03653036138087894
290.482759,,0.001639701389088735,290.625,0.7739999890327454,0.019571211293782444
290.948276,,0.0019369027892181124,291.09,0.7699999809265137,0.010279589905402354
291.413793,,0.0021102113145662687,291.556,0.7559999823570251,-0.020814624207009382
291.87931,,0.002116955997032317,292.023,0.765999972820282,0.000380336148049016
292.344828,,0.0022636670815038853,292.489,0.7609999775886536,-0.011084592814926103
292.81034500000004,,0.0028822256370212773,292.953,0.7580000162124634,-0.018154729202493048
293.275862,,0.003606437703780167,293.419,0.781000018119812,0.031474170866518325
293.74137900000005,,0.003461320368547204,293.879,0.7900000214576721,0.050672188245409165
294.206897,,0.0024255546388173314,294.349,0.7480000257492065,-0.04115784248847737
294.672414,,0.0025053473042887975,294.812,0.7749999761581421,0.01743132434689421
295.13793100000004,,0.005378944588804232,295.275,0.765999972820282,-0.002310652543386299
295.603448,,0.00815902170897036,295.745,0.7730000019073486,0.012910766722562778
296.068966,,0.004144774193860616,296.208,0.7630000114440918,-0.008798749672646322
296.534483,,0.009092572632544704,296.674,0.7739999890327454,0.0153474460039737
297.0,,0.024069227320137568,297.134,0.7480000257492065,-0.041017532082953764
297.46551700000003,,0.029966045321929598,297.599,0.7739999890327454,0.01599731619958148
297.931034,,0.024234905696018997,298.064,0.7760000228881836,0.02080448231879673
298.396552,,0.013975626802338013,298.53,0.7630000114440918,-0.0070016226031885615
298.862069,,0.006579697387815806,298.998,0.7480000257492065,-0.03911473666603572
299.327586,,0.002868439309233962,299.464,0.7850000262260437,0.042094801102799395
299.79310300000003,,0.0006430115884683766,299.927,0.7620000243186951,-0.007399293126941596
300.258621,,0.006276756643177263,300.39,0.7620000243186951,-0.006788107218924406
300.724138,,0.013334073238001357,300.86,0.7379999756813049,-0.05848792315364508
301.189655,,0.019891899886828962,301.323,0.7760000228881836,0.024847105237206984
301.65517200000005,,0.0248736820215027,301.786,0.7960000038146973,0.06890914539419304
302.12069,,0.028456987466615995,302.249,0.765999972820282,0.0039672252113160346
302.586207,,0.031021040709535656,302.715,0.753000020980835,-0.02402306546311997
303.05172400000004,,0.03200455526443813,303.185,0.8050000071525574,0.08950249766116351
303.517241,,0.0302279407774077,303.651,0.7480000257492065,-0.03454786833623397
303.982759,,0.02565261313743027,304.109,0.7549999952316284,-0.019273592905245416
304.448276,,0.020308056010644813,304.574,0.7730000019073486,0.019855419180081497
304.913793,,0.016559482270244348,305.042,0.7739999890327454,0.02183987702554715
305.37931000000003,,0.014308047980201483,305.508,0.7369999885559082,-0.05906660429766321
305.844828,,0.010684565526603428,305.975,0.765999972820282,0.0037232821916139353
306.310345,,0.0031805292862706084,306.441,0.753000020980835,-0.025072624429685605
306.775862,,0.007134189421370236,306.904,0.6890000104904175,-0.1650493226364816
307.241379,,0.016174189693295135,307.367,0.7490000128746033,-0.034928045780290774
307.70689699999997,,0.020717830112964554,307.83,0.746999979019165,-0.03991830087034609
308.172414,,0.021057337060598896,308.301,0.7760000228881836,0.022615698127333994
308.637931,,0.019487284332788297,308.764,0.7480000257492065,-0.03902682368816211
309.103448,,0.017244115610428268,309.227,0.7739999890327454,0.017004143328538873
309.568966,,0.014211889213452735,309.692,0.7559999823570251,-0.022779557857484697
310.034483,,0.01098792503083927,310.156,0.7710000276565552,0.009396047782796367
310.5,,0.009238747389743824,310.621,0.7559999823570251,-0.023708392822328797
310.96551700000003,,0.009536964905018971,311.086,0.7490000128746033,-0.0392907661056017
311.431034,,0.010378142510744674,311.552,0.777999997138977,0.02366150291244136
311.896552,,0.010227141242822193,312.016,0.753000020980835,-0.030921852519226946
312.362069,,0.00951722630382625,312.481,0.7699999809265137,0.006113243784638742
312.827586,,0.009701026087493169,312.946,0.777999997138977,0.02365673174598642
313.29310300000003,,0.0111084496685808,313.411,0.7839999794960022,0.03695653526339831
313.758621,,0.012791114956072266,313.879,0.859000027179718,0.200692003056482
314.224138,,0.013996492326116368,314.341,0.753000020980835,-0.029808729158069265
314.689655,,0.014714169775170503,314.805,0.7739999890327454,0.016462735284806497
315.155172,,0.014918208682759634,315.274,0.7739999890327454,0.017049082710167224
315.62068999999997,,0.014253494667189125,315.734,0.7739999890327454,0.017683992889388506
316.086207,,0.012653945968420533,316.199,0.7440000176429749,-0.04701235635343229
316.551724,,0.01052811570048779,316.664,0.753000020980835,-0.026735001961754996
317.017241,,0.008008759477822407,317.131,0.75,-0.03261630907256025
317.482759,,0.0047104998185741416,317.596,0.753000020980835,-0.025460848468143032
317.94827599999996,,0.0007920832615547375,318.06,0.621999979019165,-0.31030154327932047
318.413793,,0.002431929432655646,318.526,0.7580000162124634,-0.013519595565359406
318.87931000000003,,0.003959940873526039,318.991,0.7739999890327454,0.021735331635859223
319.344828,,0.004845158224490522,319.456,0.7730000019073486,0.019855253500784258
319.810345,,0.0071353810489477145,319.919,0.7549999952316284,-0.019169222621797433
320.275862,,0.010773044866505972,320.389,0.7749999761581421,0.024481417553119562
320.741379,,0.01281438289579182,320.851,0.7730000019073486,0.02008632143237144
321.20689699999997,,0.010639475355380519,321.321,0.7739999890327454,0.02211300672673015
321.672414,,0.005115711464506175,321.782,0.765999972820282,0.004422255042919985
322.137931,,0.00045156012801504967,322.245,0.753000020980835,-0.02426370602445663
322.603448,,0.00381831742274262,322.711,0.7739999890327454,0.021033039441209576
323.068966,,0.004993157120926292,323.181,0.7559999823570251,-0.018714494604541058
323.53448299999997,,0.004505140426990529,323.64,0.7739999890327454,0.019908767681838906
324.0,,0.00237888113289135,324.104,0.7820000052452087,0.03670366455347415
324.465517,,0.0006368567078182681,324.57,0.7739999890327454,0.018618204469801874
324.931034,,0.0023708913896085225,325.035,0.75,-0.03432791401384807
325.396552,,0.0011959180141866241,325.5,0.7570000290870667,-0.019718872407761597
325.86206899999996,,0.0017014923840570112,325.965,0.7490000128746033,-0.03775326467962597
326.327586,,0.0032297294253941324,326.43,0.7739999890327454,0.01616311836784708
326.793103,,0.0017331690022369373,326.901,0.746999979019165,-0.043137589213847374
327.258621,,0.001438145280446587,327.363,0.7760000228881836,0.01965359596722848
327.724138,,0.003978390426861517,327.827,0.777999997138977,0.02372124022084709
328.189655,,0.005355245538563572,328.289,0.7739999890327454,0.01482673017516977
328.655172,,0.006758641267056559,328.76,0.7739999890327454,0.014762048607708508
329.12068999999997,,0.008861204466536066,329.223,0.7480000257492065,-0.041830723032588585
329.586207,,0.010663956852061911,329.688,0.7789999842643738,0.025874117242708702
330.051724,,0.010782996148390156,330.153,0.878000020980835,0.24183949684558712
330.517241,,0.009306440478218945,330.618,0.7739999890327454,0.015644881850858352
330.982759,,0.007952114205418569,331.082,0.7699999809265137,0.007407077908530835
331.44827599999996,,0.008424343734006527,331.548,0.7739999890327454,0.01667341283628167
331.913793,,0.010766886904086182,332.013,0.7789999842643738,0.02817621927081446
332.37931,,0.013460046548553647,332.478,0.7559999823570251,-0.02128447908754101
332.844828,,0.015110166579678393,332.945,0.7519999742507935,-0.029333226752189516
333.310345,,0.015613990589210976,333.411,0.8159999847412109,0.11076375307956343
333.77586199999996,,0.01541295861274142,333.871,0.753000020980835,-0.025849592926746063
334.241379,,0.014412129000575369,334.334,0.7900000214576721,0.055359576958709154
334.706897,,0.012535939964326337,334.801,0.7940000295639038,0.06461267020686554
335.17241399999995,,0.010603858998012193,335.271,0.7369999885559082,-0.05910957958091221
335.637931,,0.009252422107222444,335.729,0.7770000100135803,0.0284040160813376
336.103448,,0.007428001118944224,336.2,0.7450000047683716,-0.04105001884488449
336.56896600000005,,0.0036123244192748064,336.659,0.7580000162124634,-0.012577927609473615
337.034483,,0.001490860270744828,337.126,0.7480000257492065,-0.034332729683797844
337.5,,0.0052433253305221176,337.592,0.796999990940094,0.0723346867634473
337.965517,,0.0064957271358208985,338.057,0.7739999890327454,0.022025524044647266
338.431034,,0.007111815795211815,338.523,0.7480000257492065,-0.03492744511616604
338.89655200000004,,0.009204267447665272,338.99,0.7739999890327454,0.021310063413072438
339.36206899999996,,0.01225227216138837,339.456,0.765999972820282,0.003387580288894992
339.827586,,0.014262043257631285,339.916,0.7760000228881836,0.02461083076214896
340.293103,,0.014729282809613305,340.385,0.765999972820282,0.0022084696026240225
340.758621,,0.014810915983021316,340.846,0.7570000290870667,-0.018048518292022257
341.224138,,0.015109035046010124,341.315,0.7739999890327454,0.018325731383174122
341.68965499999996,,0.014962120167596252,341.779,0.7549999952316284,-0.0237239270122469
342.155172,,0.013860615588565207,342.241,0.777999997138977,0.025757511864033716
342.62069,,0.01217459846769203,342.707,0.7490000128746033,-0.03800342625333378
343.086207,,0.01032128814378765,343.17,0.7799999713897705,0.02901980381225602
343.551724,,0.008213653753380724,343.636,0.746999979019165,-0.04330906062928556
344.01724099999996,,0.0056664906468968405,344.101,0.7599999904632568,-0.01532564736549209
344.48275900000004,,0.0026227519172326193,344.567,0.7739999890327454,0.014941448176428314
344.948276,,0.0009894551833573187,345.034,0.7720000147819519,0.010463256190791753
345.413793,,0.004891516603822563,345.5,0.7730000019073486,0.012637884438244804
345.87931,,0.007932768183999746,345.964,0.7739999890327454,0.014929529857496286
346.344828,,0.008689517629987913,346.43,0.7570000290870667,-0.02188126627074905
346.81034500000004,,0.006927704833173054,346.893,0.7730000019073486,0.013308865124280412
347.275862,,0.004126328219570989,347.356,0.7559999823570251,-0.023301253806570176
347.741379,,0.002280492157016292,347.819,0.7699999809265137,0.007708462877330111
348.206897,,0.002237135358433563,348.289,0.824999988079071,0.12810976935091195
348.672414,,0.003088595782606689,348.753,0.753000020980835,-0.028127457787478445
349.13793100000004,,0.0029848393576545943,349.215,0.7680000066757202,0.005206517249264667
349.60344799999996,,0.0008441532279486416,349.681,0.7820000052452087,0.03636960543885877
350.068966,,0.0023120803939348333,350.146,0.7419999837875366,-0.0501274086325641
350.534483,,0.004058818667564964,350.611,0.7509999871253967,-0.029904985053172548
351.0,,0.0031316997212579483,351.078,0.7369999885559082,-0.05984583795750211
351.465517,,0.0010412119118218134,351.544,0.7580000162124634,-0.013605683218813093
351.93103399999995,,0.0006419247946883762,352.009,0.7820000052452087,0.03908437274643662
352.396552,,0.0031442596117728008,352.474,0.7739999890327454,0.02196037925935889
352.862069,,0.00672973297035582,352.941,0.777999997138977,0.030873789358950226
353.32758600000005,,0.008183203919032898,353.399,0.7829999923706055,0.04185338331729801
353.793103,,0.006096422017208306,353.868,0.7739999890327454,0.022216948528588784
354.258621,,0.002453127254540515,354.33,0.746999979019165,-0.03674990949149405
354.72413800000004,,0.000592710076839001,354.801,0.7730000019073486,0.019640845069687853
355.189655,,0.0015492015109428142,355.263,0.7549999952316284,-0.019931749674292256
355.655172,,0.0030829428867014453,355.729,0.7739999890327454,0.021014363154283736
356.12069,,0.002634923213634553,356.193,0.7570000290870667,-0.016547967454070982
356.586207,,0.0005208098037251105,356.658,0.7760000228881836,0.024260371026409853
357.05172400000004,,0.0005904751638248114,357.123,0.7739999890327454,0.019275146267909837
357.517241,,0.0008135158202458785,357.589,0.7480000257492065,-0.03801991325688814
357.982759,,0.0030216469860437287,358.049,0.7739999890327454,0.017972051193069456
358.448276,,0.003076246934928052,358.515,0.7559999823570251,-0.02187847910680959
358.913793,,0.0003190185873930426,358.979,0.7689999938011169,0.005847085416280609
359.37931000000003,,0.0028315276264802786,359.445,0.7580000162124634,-0.018658358973507438
359.844828,,0.0036318093479557633,359.915,0.7609999775886536,-0.012589505185916547
360.310345,,0.001974796283265417,360.377,0.796999990940094,0.06546341887805382
360.775862,,0.0004147108793967272,360.845,0.7699999809265137,0.006362645206651525
361.241379,,0.0014358130175498498,361.308,0.9390000104904175,0.37438989799555117
361.706897,,0.004865685907877846,361.771,0.7720000147819519,0.010511296680718873
362.172414,,0.008069382842453666,362.234,0.746999979019165,-0.043881390519763835
362.63793100000004,,0.008512861807579951,362.7,0.753000020980835,-0.03062466535680688
363.103448,,0.005782212293931184,363.166,0.8809999823570251,0.24853416719466498
363.568966,,0.001363990192193043,363.632,0.7590000033378601,-0.01686902953074215
364.034483,,0.0026329511114847218,364.1,0.7739999890327454,0.016288173010463553
364.5,,0.0043793482430882335,364.566,0.7739999890327454,0.016834073531149782
364.96551700000003,,0.0030195745219069987,365.03,0.7710000276565552,0.010895256973408665
365.431034,,0.0007581543488710113,365.496,0.75,-0.03422775745086182
365.896552,,0.005151944060113553,365.961,0.753000020980835,-0.0270521376443095
366.362069,,0.008565793444893775,366.419,0.7580000162124634,-0.015528634566889481
366.827586,,0.010274826875219245,366.887,0.7480000257492065,-0.03671383401813371
367.29310300000003,,0.009959565917279662,367.349,0.7649999856948853,0.0008767763817352573
367.758621,,0.007536155280918714,367.819,0.7580000162124634,-0.01388437543667934
368.224138,,0.003979507432702033,368.282,0.7900000214576721,0.05624313486285826
368.689655,,0.0015923478613141734,368.75,0.777999997138977,0.030419861608447132
369.155172,,0.00241687678696237,369.212,0.7360000014305115,-0.06086314705376933
369.62068999999997,,0.006214023316322005,369.678,0.7760000228881836,0.026395396736119073
370.086207,,0.010476778445433977,370.145,0.7889999747276306,0.054720552772277255
370.55172400000004,,0.01260594149414553,370.604,0.7870000004768372,0.050258121229594166
371.017241,,0.011829865121175537,371.071,0.8100000023841858,0.1001582904120126
371.482759,,0.008985206256391981,371.537,0.7730000019073486,0.01924304641049504
371.948276,,0.005028805901602997,372.001,0.7770000100135803,0.027565022300514736
372.413793,,0.000389688823576636,372.467,0.5960000157356262,-0.3672418843863193
372.87931000000003,,0.00452106160473949,372.931,0.7739999890327454,0.020019145381434955
373.344828,,0.009123371652514554,373.4,0.7580000162124634,-0.015424492423810568
373.810345,,0.013232323820226764,373.864,0.7860000133514404,0.04496753671673189
374.275862,,0.01703106409897458,374.326,0.7609999775886536,-0.010114030225783896
374.741379,,0.02004677768507709,374.794,0.8259999752044678,0.13089808265327316
375.20689699999997,,0.020856457632657678,375.257,0.7739999890327454,0.017043306756550938
375.672414,,0.01857864943590561,375.723,0.753000020980835,-0.02922178145193485
376.137931,,0.014360114538507402,376.185,0.7739999890327454,0.016082275450153463
376.603448,,0.010595416050404089,376.651,0.7490000128746033,-0.038751767655982886
377.068966,,0.008553396188593467,377.116,0.7549999952316284,-0.02595742678223459
377.53448299999997,,0.007242337302250373,377.582,0.7789999842643738,0.026151422989090532
378.0,,0.004793523808420568,378.046,0.7879999876022339,0.04568566692033023
378.465517,,0.0006797590779982831,378.512,0.7580000162124634,-0.019640263823850142
378.931034,,0.0035996184112526202,378.979,0.7820000052452087,0.0327857240503013
379.396552,,0.005917559673438451,379.444,0.7649999856948853,-0.004012908388287464
379.862069,,0.005670615390191088,379.905,0.7749999761581421,0.018103945658723218
380.327586,,0.004770991410500459,380.375,0.7609999775886536,-0.01198597283640257
380.79310300000003,,0.006201850806513212,380.838,0.7720000147819519,0.012457637183119707
381.258621,,0.010903491538373567,381.3,0.75,-0.034942812480460175
381.724138,,0.016164928032897995,381.768,0.753000020980835,-0.027843044472136126
382.189655,,0.017983840163723796,382.23,0.8740000128746033,0.23635517488037647
382.655172,,0.015253656541434056,382.696,0.722000002861023,-0.09421667537648779
383.12068999999997,,0.010805819564409264,383.16,0.7739999890327454,0.019636160605858235
383.586207,,0.008028129734826374,383.625,0.6169999837875366,-0.32189001823922747
384.051724,,0.007385916999581409,384.09,0.7739999890327454,0.020620121924315234
384.517241,,0.006821548789352221,384.556,0.75,-0.031276452793382516
384.982759,,0.00470543771132337,385.02,0.7580000162124634,-0.013536991987032725
385.44827599999996,,0.0014756793758422325,385.486,0.7739999890327454,0.021541878259249393
385.913793,,0.0013157865344574123,385.953,0.7739999890327454,0.021667273864159065
386.37931,,0.002811350134482339,386.419,0.7760000228881836,0.026052042051672962
386.84482799999995,,0.0036055412537813044,386.882,0.7699999809265137,0.012909294617526178
387.310345,,0.005053656121392519,387.345,0.777999997138977,0.030172503123673533
387.775862,,0.00794860470253882,387.813,0.765999972820282,0.0037732170942344776
388.241379,,0.011669668559467208,388.275,0.7559999823570251,-0.018349986573943808
388.70689699999997,,0.014442823190924837,388.745,0.7509999871253967,-0.029650835663263958
389.172414,,0.014620270390559787,389.208,0.7860000133514404,0.04613698902175192
389.637931,,0.012110371892207098,389.674,0.777999997138977,0.028201497289049075
390.103448,,0.00861553810759404,390.139,0.8209999799728394,0.12135310488604473
390.56896600000005,,0.006210145429287928,390.604,0.753000020980835,-0.027332324438205553
391.03448299999997,,0.005665053159581076,391.064,0.7720000147819519,0.01353291993343554
391.5,,0.006190817958351641,391.53,0.75,-0.034902771238682295
391.965517,,0.006371222827644169,392.001,0.7559999823570251,-0.022297403111041923
392.431034,,0.005079709796551454,392.459,0.7630000114440918,-0.007460208501216056
392.896552,,0.0021466438165768462,392.927,0.777999997138977,0.02487233211156979
393.36206899999996,,0.0012606325986200166,393.39,0.7749999761581421,0.01806642672286576
393.827586,,0.0033797368318162603,393.86,0.781000018119812,0.030953917677334047
394.293103,,0.0035115621153854444,394.323,0.7639999985694885,-0.006177248420288701
394.75862099999995,,0.002618399691809199,394.79,0.7609999775886536,-0.01271522595913735
395.224138,,0.0021118322404015005,395.252,0.6759999990463257,-0.1978128754561365
395.68965499999996,,0.0026264842561939954,395.718,0.7609999775886536,-0.012455754949435877
396.155172,,0.003948051291109662,396.18,0.7789999842643738,0.027012501489938976
396.62069,,0.005121538266891718,396.646,0.8109999895095825,0.09705700835018563
397.086207,,0.004581279234002471,397.112,0.7860000133514404,0.04298418643018016
397.551724,,0.0016356246978077376,397.578,0.7630000114440918,-0.006679162031056247
398.017241,,0.0017197818395242156,398.045,0.7770000100135803,0.024304438699969018
398.48275900000004,,0.0020566201042251206,398.511,0.7519999742507935,-0.0296581252210803
398.94827599999996,,0.0014600081882665645,398.975,0.753000020980835,-0.026970946930308992
399.413793,,0.005585864467544038,399.434,0.7519999742507935,-0.02865296319046406
399.87931,,0.006659529604501853,399.901,0.746999979019165,-0.03907670192356274
400.344828,,0.004691670663936328,400.371,0.7699999809265137,0.011460264090228241
400.810345,,0.002547270616216038,400.834,0.75,-0.031738769058809
401.27586199999996,,0.0019603898791522786,401.296,0.7739999890327454,0.0208574502155388
401.741379,,0.0020495616499838333,401.764,0.7760000228881836,0.02544964884367876
402.206897,,0.0015695040271169094,402.227,0.8100000023841858,0.0996790295384609
402.672414,,0.0008608832456060035,402.693,0.7739999890327454,0.021319816740578923
403.137931,,0.0008352297236938201,403.156,0.7480000257492065,-0.035338916834028455
403.60344799999996,,0.00117807767107593,403.622,0.7699999809265137,0.012490884133107408
404.068966,,0.000799217851415526,404.086,0.7870000004768372,0.049345383213926695
404.534483,,0.00017303161059914962,404.552,0.7739999890327454,0.0207650809647556
405.0,,3.561815796934061e-05,405.02,0.7739999890327454,0.0204402380004119
405.465517,,0.0027320619609264877,405.485,0.7540000081062317,-0.023514732637815724
405.931034,,0.006626473197242874,405.945,0.7739999890327454,0.019630783421289717
406.39655200000004,,0.008564680839660253,406.411,0.7480000257492065,-0.03747343976278902
406.862069,,0.006698710320383095,406.879,0.7519999742507935,-0.02923644181866533
407.327586,,0.0025436943631929375,407.341,0.7570000290870667,-0.01882389868892255
407.793103,,0.0005393217680107618,407.809,0.7609999775886536,-0.010578203575908092
408.258621,,0.000635294823941266,408.271,0.7739999890327454,0.01730259508251789
408.72413800000004,,0.001366526707182443,408.742,0.7739999890327454,0.01690230537145231
409.18965499999996,,0.0032503692086134845,409.204,0.7749999761581421,0.018734598577667964
409.655172,,0.0033883541484673384,409.67,0.8349999785423279,0.1491729065772228
410.12069,,0.0012251096131575658,410.135,0.7570000290870667,-0.020967395712525726
410.586207,,0.002923655441931881,410.6,0.7699999809265137,0.00722844341795649
411.05172400000004,,0.007724879066444802,411.06,0.7699999809265137,0.007183663804307575
411.51724099999996,,0.011105220072543154,411.525,0.7580000162124634,-0.018922248892856017
411.982759,,0.011651955656097338,411.99,0.7519999742507935,-0.03187614190892872
412.448276,,0.009737944528877142,412.456,0.7739999890327454,0.01624832346033195
412.913793,,0.00688732447255192,412.924,0.7739999890327454,0.016512717373046767
413.37931,,0.004330469657110163,413.386,0.753000020980835,-0.028912858694271223
413.844828,,0.002579565871057539,413.849,0.777999997138977,0.02593005183628054
414.31034500000004,,0.001968748479598899,414.319,0.7599999904632568,-0.012870010810582894
414.775862,,0.0027644557368397956,414.782,0.7710000276565552,0.011536578938107953
415.241379,,0.004527137863066891,415.245,0.8399999737739563,0.16231781900290382
415.706897,,0.0058563371497230695,415.711,0.7730000019073486,0.016803400366298436
416.172414,,0.005284123808882135,416.174,0.7570000290870667,-0.017615235869316858
416.63793100000004,,0.0025536225443707353,416.639,0.7770000100135803,0.026366851817001866
417.103448,,0.0010633164143825152,417.104,0.7739999890327454,0.020197144745722588
417.568966,,0.0038070453328308816,417.57,0.7620000243186951,-0.005634388907617906
418.034483,,0.004950993943826071,418.035,0.7580000162124634,-0.0141010306904605
418.5,,0.005381386962111436,418.501,0.777999997138977,0.02964824155357569
418.96551700000003,,0.0064497490267580665,418.968,0.8389999866485596,0.16264718931029273
419.43103399999995,,0.008094008924087284,419.434,0.7739999890327454,0.021060055526343054
419.896552,,0.008489716892223142,419.897,0.7599999904632568,-0.009494267233894996
420.362069,,0.006048515847454356,420.359,0.7739999890327454,0.020875799408337226
420.827586,,0.0016051965220607845,420.827,0.7739999890327454,0.020671696896157273
421.293103,,0.0018994450148123849,421.289,0.7490000128746033,-0.03406514710626198
421.758621,,0.0021039287728446274,421.76,0.6309999823570251,-0.29147737876972224
422.22413800000004,,0.0005109043972573236,422.223,0.7570000290870667,-0.017351645035757007
422.689655,,0.003163305182562735,422.688,0.7429999709129333,-0.04827483235075786
423.15517200000005,,0.0036480215454297296,423.153,0.7730000019073486,0.016641151811833815
423.62069,,0.002481726529694565,423.618,0.7699999809265137,0.009655280234555969
424.086207,,0.001843048642930311,424.083,0.7369999885559082,-0.06268189468575246
424.55172400000004,,0.0026136638739705305,424.549,0.8420000076293945,0.16565759497025778
425.017241,,0.003202773153261289,425.015,0.7509999871253967,-0.03298017644465346
425.482759,,0.0015125785401797548,425.474,0.7540000081062317,-0.02677606782283208
425.948276,,0.002410157091912665,425.945,0.7580000162124634,-0.0183356809932629
426.413793,,0.006040201787128794,426.411,0.7739999890327454,0.01631509332621046
426.87931000000003,,0.006681835888338486,426.871,0.7639999985694885,-0.005605448534088486
427.344828,,0.004080291521406016,427.341,0.7739999890327454,0.016124464752795324
427.810345,,0.0007462075107749607,427.805,0.7739999890327454,0.016146990392550013
428.275862,,0.000335620275917544,428.267,0.7599999904632568,-0.014253748882612785
428.741379,,0.0016376744002361858,428.733,0.7519999742507935,-0.03150918645880156
429.20689699999997,,0.004790666910046257,429.199,0.7710000276565552,0.010126247893211829
429.672414,,0.006545961429902144,429.664,0.753000020980835,-0.02878922801259445
430.137931,,0.005976939470578864,430.13,0.781000018119812,0.03256258203924899
430.603448,,0.004182921925123215,430.589,0.7820000052452087,0.03512940348793456
431.068966,,0.0025982225139392847,431.06,0.7739999890327454,0.018114564086366195
431.534483,,0.0014990713483029573,431.526,0.7519999742507935,-0.029389457514092214
432.0,,0.00040710469362490256,431.99,0.7699999809265137,0.010249885056761856
432.46551700000003,,0.0006730429651273728,432.456,0.5659999847412109,-0.43379086050380383
432.931034,,0.0011957941065899261,432.916,0.753000020980835,-0.026016348604799663
433.396552,,0.0010587946830936082,433.386,0.7739999890327454,0.02005768022773612
433.862069,,0.0008332290930669159,433.849,0.7519999742507935,-0.027600718175954553
434.327586,,0.0008619445854480203,434.311,0.777999997138977,0.029257466933285726
434.79310300000003,,0.0006630216320609275,434.779,0.7889999747276306,0.05337166305390283
435.258621,,0.0006136713967007508,435.242,0.7559999823570251,-0.018442715810755097
435.724138,,0.003318323088956483,435.708,0.765999972820282,0.003353822747784337
436.189655,,0.00654615039892022,436.171,0.7720000147819519,0.01636498738936184
436.655172,,0.00794490489759649,436.636,0.7549999952316284,-0.02080126743718444
437.12068999999997,,0.00517913766473389,437.101,0.7609999775886536,-0.007922764892418386
437.586207,,0.0013025932541930415,437.567,0.7739999890327454,0.020148905948349553
438.051724,,0.007557705692005516,438.031,0.7689999938011169,0.008956305067023364
438.517241,,0.009649480175553317,438.497,0.7559999823570251,-0.019704449646287467
438.982759,,0.007761920004426138,438.964,0.7870000004768372,0.047467491969598784
439.448276,,0.005661895308520408,439.43,0.7519999742507935,-0.029167394404827122
439.913793,,0.006309182980366138,439.89,0.7739999890327454,0.018376815579937682
440.37931000000003,,0.009393963497041455,440.36,0.7770000100135803,0.02453516504406032
440.844828,,0.013059125230770963,440.823,0.75,-0.034645675308292705
441.310345,,0.016142359820610522,441.285,0.7599999904632568,-0.01318576414081224
441.775862,,0.018016378980946247,441.753,0.7609999775886536,-0.011292984737743341
442.241379,,0.017845271274001453,442.215,0.7739999890327454,0.0167935833542244
442.70689699999997,,0.015389807909121003,442.681,0.7620000243186951,-0.009528681317766737
443.172414,,0.011853214448434676,443.146,0.7480000257492065,-0.040146186581959314
443.637931,,0.00876224265308586,443.612,0.7749999761581421,0.018625960843932
444.103448,,0.006228562817134095,444.079,0.7559999823570251,-0.022752913524357026
444.568966,,0.003089698768924936,444.545,0.7739999890327454,0.01654415277368845
445.03448299999997,,0.0013860612781785506,445.004,0.7519999742507935,-0.03124199122768801
445.5,,0.006558964889254365,445.47,0.7730000019073486,0.014711598352823055
445.965517,,0.011151077911581512,445.942,0.765999972820282,-0.0002859310422122169
446.431034,,0.014516287585718863,446.4,0.7730000019073486,0.015260833930234861
446.896552,,0.017089975125360143,446.868,0.7739999890327454,0.017769149353516287
447.36206899999996,,0.019654886251922143,447.331,0.7720000147819519,0.01376456108962861
447.827586,,0.02224506994448791,447.794,0.7649999856948853,-0.001122006667223285
448.29310300000003,,0.02400955495759629,448.264,0.7749999761581421,0.021028090729655956
448.758621,,0.02419886904307568,448.729,0.753000020980835,-0.026550660490732972
449.224138,,0.02282159786345986,449.193,0.7739999890327454,0.0195287548724135
449.689655,,0.020019015608796285,449.659,0.7490000128746033,-0.03464357180580506
450.155172,,0.01532482990377071,450.119,0.7699999809265137,0.01135853267309615
450.62068999999997,,0.008398501526965679,450.585,0.722000002861023,-0.09301764511604144
451.086207,,0.0005556005501201301,451.05,0.7519999742507935,-0.027517720927238545
451.551724,,0.005382558212940695,451.516,0.7749999761581421,0.022669918158299187
452.017241,,0.007587454859169046,451.982,0.7580000162124634,-0.014351036007754673
452.482759,,0.007183294772766512,452.448,0.7739999890327454,0.02046068688287607
452.94827599999996,,0.006866603048041648,452.909,0.7580000162124634,-0.01450486442451108
453.413793,,0.007785660345908497,453.378,0.7689999938011169,0.009296211006997675
453.87931,,0.008671463206245799,453.842,0.7739999890327454,0.019974534642361638
454.344828,,0.007978659991708383,454.304,0.7739999890327454,0.01971638556107902
454.810345,,0.005938881701204814,454.775,0.777999997138977,0.028138352583976314
455.27586199999996,,0.004206165507278715,455.237,0.753000020980835,-0.026645707533181722
455.741379,,0.004081324853258596,455.703,0.7739999890327454,0.018772576519028174
456.206897,,0.0054525075190003805,456.167,0.7580000162124634,-0.016423697999745735
456.672414,,0.007132651008806905,456.633,0.7739999890327454,0.01810289722267781
457.137931,,0.007871837808911385,457.097,0.7739999890327454,0.01778818060640753
457.603448,,0.00717081967361286,457.563,0.7559999823570251,-0.021715380902629332
458.06896600000005,,0.005360293534572392,458.03,0.7720000147819519,0.012890639779702713
458.53448299999997,,0.0030281666662172347,458.496,0.7570000290870667,-0.019998352278294933
459.0,,0.0006746411630970556,458.96,0.7580000162124634,-0.017979783665603537
459.465517,,0.0009483009274976339,459.419,0.7570000290870667,-0.02026476825415169
459.931034,,0.000851963689424843,459.886,0.753000020980835,-0.029029158126075247
460.39655200000004,,0.0010140486056088895,460.356,0.7739999890327454,0.016730631471917008
460.86206899999996,,0.0028482194123389906,460.82,0.781000018119812,0.03204764942237682
461.327586,,0.0022598817868793287,461.282,0.7739999890327454,0.016919640965428247
461.793103,,0.0011070657478225061,461.745,0.781000018119812,0.032344718692465524
462.258621,,0.0047403477989510735,462.215,0.7599999904632568,-0.013186869236742895
462.724138,,0.005667534349591106,462.674,0.7590000033378601,-0.015107825959740256
463.18965499999996,,0.003496378798013175,463.139,0.7570000290870667,-0.019178865609206154
463.655172,,0.0004861932968310854,463.604,0.7730000019073486,0.015985019407795696
464.12069,,0.0011384675141425694,464.071,0.7889999747276306,0.051159184161711335
464.58620699999994,,0.001078569371225819,464.537,0.7739999890327454,0.018796003327027508
465.051724,,0.0002583687526034382,465.001,0.7720000147819519,0.014745492867745728
465.517241,,0.0006555287560542432,465.466,0.7609999775886536,-0.008933175635700275
465.98275900000004,,0.00155398358964575,465.938,0.753000020980835,-0.026105608039820816
466.448276,,0.0023652008478337837,466.396,0.753000020980835,-0.025887407644399806
466.913793,,0.0028459133678322445,466.864,0.75,-0.03225062693128399
467.37931,,0.0028388035211957072,467.326,0.7730000019073486,0.017980762701624835
467.844828,,0.002523928617464738,467.79,0.7519999742507935,-0.027701920903852154
468.31034500000004,,0.002317871106458479,468.26,0.7730000019073486,0.018063603987756215
468.77586199999996,,0.002422298452652133,468.726,0.7910000085830688,0.05723870566919164
469.241379,,0.002458314211288206,469.189,0.7739999890327454,0.020109104881824703
469.706897,,0.0017102208309500014,469.655,0.7580000162124634,-0.014890878070711034
470.172414,,0.00015160857911242627,470.119,0.7570000290870667,-0.01725629427213113
470.63793100000004,,0.002672609548809782,470.585,0.7739999890327454,0.019555053672170367
471.10344799999996,,0.005009694838494845,471.05,0.7739999890327454,0.019298827838202633
471.568966,,0.006560920258439798,471.515,0.7509999871253967,-0.031088577248558326
472.034483,,0.007043037002662494,471.975,0.7739999890327454,0.01872836544524776
472.5,,0.006261535417198567,472.441,0.7549999952316284,-0.022961875206796593
472.965517,,0.004353601224780031,472.904,0.7739999890327454,0.018142270402944208
473.43103399999995,,0.0021772039776740346,473.374,0.7620000243186951,-0.008276402938185495
473.89655200000004,,0.0007811939875985899,473.835,0.7480000257492065,-0.03902879746673976
474.362069,,0.00029866797877638694,474.305,0.7720000147819519,0.013038778508419478
474.827586,,5.1826585776237576e-05,474.768,0.765999972820282,-0.00021441665281809802
475.293103,,0.0005556917223369712,475.23,0.7770000100135803,0.02361442665449371
475.758621,,0.00018645543748442274,475.696,0.7480000257492065,-0.03965403212155766
476.22413800000004,,0.0021266852026254916,476.16,0.7730000019073486,0.014775304220692594
476.689655,,0.005634659078621983,476.625,0.753000020980835,-0.02878277777482132
477.155172,,0.007891615148861376,477.09,0.75,-0.035253354137489985
477.62069,,0.006940787615424445,477.555,0.753000020980835,-0.02860424765018771
478.086207,,0.003137914699709858,478.02,0.7739999890327454,0.01730463733533162
478.55172400000004,,0.0011450517345398064,478.487,0.7720000147819519,0.013144391516630795
479.01724099999996,,0.0034810152219832665,478.953,0.7749999761581421,0.01991069974685833
479.482759,,0.0033715737888387882,479.419,0.7239999771118164,-0.09094506434096027
479.948276,,0.002590591282092107,479.882,0.7739999890327454,0.018258320056902075
480.413793,,0.0032941960619493533,480.345,0.7570000290870667,-0.018500450710830948
480.87931000000003,,0.005525647239398504,480.816,0.7609999775886536,-0.009509175688852543
481.344828,,0.006894958045141382,481.278,0.7559999823570251,-0.020136223352339652
481.810345,,0.005112805358950808,481.742,0.7360000014305115,-0.06346262148218546
482.275862,,0.0007263803097872206,482.204,0.8529999852180481,0.19165969205325514
482.74137900000005,,0.0030972455075341868,482.67,0.7739999890327454,0.019736169630661608
483.206897,,0.0037133292221760397,483.135,0.7749999761581421,0.022067120509160695
483.672414,,0.0016263531359984238,483.6,0.7450000047683716,-0.04318427065057262
484.13793100000004,,0.00037504429018381545,484.067,0.7739999890327454,0.02005625031220197
484.603448,,0.0004346093178017898,484.533,0.753000020980835,-0.02568558928154507
485.068966,,0.0006527787733175518,484.997,0.7519999742507935,-0.027905073286489987
485.534483,,0.0009552296980659506,485.463,0.7730000019073486,0.017756860131477682
486.0,,6.550096840330022e-05,485.931,0.7749999761581421,0.021979194581791563
486.46551700000003,,0.0011056117818120863,486.393,0.7710000276565552,0.013089583842155647
486.931034,,0.001005516348527906,486.86,0.7739999890327454,0.01941586803591144
487.396552,,0.0005560673748304675,487.323,0.753000020980835,-0.026573168379414626
487.862069,,0.001726041035461762,487.786,0.7760000228881836,0.02327790942191686
488.327586,,0.005202642614154443,488.249,0.7450000047683716,-0.04453015729504188
488.79310300000003,,0.009297430093973031,488.714,0.7620000243186951,-0.007766590797937402
489.258621,,0.011434145677734644,489.184,0.7519999742507935,-0.0298214877862019
489.724138,,0.010448867850987758,489.65,0.7549999952316284,-0.023539775619662313
490.189655,,0.007484918651764607,490.109,0.7739999890327454,0.01762290506503709
490.655172,,0.004837055462028267,490.574,0.7739999890327454,0.017422273665495133
491.12069,,0.0037961844069552635,491.042,0.7739999890327454,0.017259576335204203
491.586207,,0.003536405434764597,491.508,0.7799999713897705,0.030212080289474724
492.05172400000004,,0.002279017706086972,491.972,0.753000020980835,-0.02868378132211039
492.517241,,0.000543016821195481,492.438,0.7409999966621399,-0.05485197973478929
492.982759,,0.0036535446793273404,492.901,0.75,-0.0352204502284654
493.448276,,0.005468453201944196,493.37,0.7739999890327454,0.017138576351988725
493.913793,,0.0057883516324533126,493.831,0.7609999775886536,-0.011066154816804947
494.37931000000003,,0.005567061149522642,494.3,0.7789999842643738,0.028309982943527014
494.844828,,0.005170584447498009,494.761,0.7739999890327454,0.017614954678213647
495.310345,,0.0036299532079180925,495.23,0.753000020980835,-0.02790739828957138
495.775862,,0.0002757078079787741,495.696,0.7749999761581421,0.020274984319972673
496.241379,,0.003292747508915801,496.16,0.8429999947547913,0.16869174803423348
496.70689699999997,,0.004055153184304722,496.626,0.7720000147819519,0.014285382644952823
497.172414,,0.0008831228287399824,497.09,0.7730000019073486,0.016740162245800435
497.637931,,0.003648306798518527,497.549,0.7739999890327454,0.019182866419600667
498.103448,,0.0054577465417172365,498.015,0.8029999732971191,0.08260737180613617
498.568966,,0.0029981176175784283,498.481,0.7710000276565552,0.013106313483394243
499.03448299999997,,0.0011688661263654758,498.945,0.7770000100135803,0.02635776336268565
499.5,,0.0030567978767970932,499.411,0.7570000290870667,-0.01707851709919766
499.96551700000003,,0.0014446895069208537,499.879,0.753000020980835,-0.02570485647176749
500.431034,,0.0011264321126552108,500.341,0.7789999842643738,0.030976680955244158
500.89655200000004,,0.0017682044714898814,500.809,0.7990000247955322,0.07453485357402759
501.362069,,0.0007842927260549022,501.271,0.7710000276565552,0.013467201449582534
501.827586,,0.0008211176469439396,501.737,0.7720000147819519,0.015531127620381254
502.293103,,0.0030568431909172677,502.2,0.781000018119812,0.03497841166464741
502.758621,,0.005710790778993637,502.666,0.7620000243186951,-0.006617139835698746
503.224138,,0.006475103778856025,503.131,0.7590000033378601,-0.013389035134467389
503.68965499999996,,0.005090200811191146,503.597,0.7720000147819519,0.014670420302098437
504.15517200000005,,0.0029589853905101866,504.064,0.7889999747276306,0.051426746030331545
504.62068999999997,,0.0012448745601473601,504.53,0.7739999890327454,0.018458768695877845
505.08620699999994,,0.0001542035585698031,504.994,0.777999997138977,0.026886948878949702
505.55172400000004,,0.0004436859171152354,505.46,0.7480000257492065,-0.03874813842217815
506.017241,,0.00042211931996948216,505.923,0.7760000228881836,0.021997906733474196
506.48275899999993,,0.0006174371371270044,506.386,0.7549999952316284,-0.023981561065319144
506.948276,,0.0029416473373524267,506.849,0.7739999890327454,0.017221260302389844
507.413793,,0.006046994194066668,507.319,0.7570000290870667,-0.01996425175947449
507.87931,,0.008393902722928323,507.779,0.753000020980835,-0.028779568228257446
508.344828,,0.00829612903939114,508.249,0.7739999890327454,0.016922805224905885
508.810345,,0.005469615268335108,508.715,0.7480000257492065,-0.039717406535890926
509.27586199999996,,0.0014941696916077683,509.177,0.7760000228881836,0.021343349233069617
509.74137900000005,,0.0015294264975849066,509.643,0.7710000276565552,0.010561638475603331
510.20689699999997,,0.0026793131119354774,510.108,0.7519999742507935,-0.030671665994398016
510.67241399999995,,0.002535308362310662,510.574,0.753000020980835,-0.028287911673821525
511.13793100000004,,0.002212894307337073,511.038,0.9049999713897705,0.30311157583450427
511.603448,,0.002520172590604817,511.504,0.7490000128746033,-0.036477913791029465
512.0689659999999,,0.0038595052682753013,511.964,0.7549999952316284,-0.023103681908441125
512.534483,,0.006099221469615291,512.43,0.7739999890327454,0.018603245067403344
513.0,,0.008110457890265751,512.9,0.7739999890327454,0.018916396899111745
513.465517,,0.008243457705976717,513.363,0.7689999938011169,0.008326527063007922
513.931034,,0.006221843071422458,513.831,0.7480000257492065,-0.037142380133053425
514.396552,,0.004092798441863376,514.294,0.7850000262260437,0.043719692826285045
514.862069,,0.004188932480215538,514.757,0.5720000267028809,-0.420122870935267
515.327586,,0.00633820548364756,515.219,0.7570000290870667,-0.016916445818481958
515.793103,,0.008092393380399764,515.685,0.7739999890327454,0.020221304128750308
516.258621,,0.007565904663828254,516.149,0.7739999890327454,0.02026725355999102
516.724138,,0.005058277207949223,516.615,0.7590000033378601,-0.012422955784845514
517.189655,,0.0019392625099335626,517.082,0.7599999904632568,-0.010311626993890455
517.655172,,0.0009824681957603268,517.548,0.7490000128746033,-0.03439917829046698
518.1206900000001,,0.0036145469120494904,518.013,0.7580000162124634,-0.014965270509433828
518.5862070000001,,0.005877129940605023,518.478,0.7739999890327454,0.01967368921402153
519.051724,,0.007478576740871417,518.945,0.7639999985694885,-0.0023698548731749345
519.517241,,0.008204035124271473,519.404,0.8489999771118164,0.1825304105192134
519.982759,,0.008093790949513997,519.871,0.7850000262260437,0.04279535829067434
520.448276,,0.007458483109969223,520.334,0.7739999890327454,0.018520534135081933
520.9137929999999,,0.006854015704121966,520.805,0.7749999761581421,0.020389943997726
521.37931,,0.0067027861663679685,521.267,0.7480000257492065,-0.038733003975680094
521.844828,,0.00664331608025339,521.734,0.7760000228881836,0.021988544652800684
522.310345,,0.005615118173455265,522.199,0.7739999890327454,0.017379074024467853
522.7758620000001,,0.003074836302618509,522.665,0.7580000162124634,-0.017694450119386775
523.241379,,0.00013203236538467217,523.13,0.7760000228881836,0.021349720553209287
523.7068969999999,,0.002764667860114896,523.589,0.7739999890327454,0.016870500336432715
524.172414,,0.004947820959169264,524.061,0.746999979019165,-0.042021365093759484
524.637931,,0.008084504064405678,524.519,0.753000020980835,-0.02896270555752368
525.103448,,0.012696815146138227,524.986,0.7739999890327454,0.016831281941055494
525.568966,,0.016964453902292984,525.452,0.75,-0.03535877107600489
526.034483,,0.01790783532827882,525.919,0.7549999952316284,-0.024316241887491305
526.5,,0.014035487028310329,526.382,0.7739999890327454,0.017274715758813352
526.9655170000001,,0.006874359617775013,526.845,0.7480000257492065,-0.039131853649051584
527.4310340000001,,0.00020669133879388634,527.315,0.7739999890327454,0.017785220799219768
527.8965519999999,,0.005074252096295404,527.779,0.7739999890327454,0.01808348385681947
528.362069,,0.00861769782796525,528.241,0.7620000243186951,-0.007745137245907776
528.827586,,0.012928924605478153,528.707,0.7549999952316284,-0.02267442008307602
529.293103,,0.01801724851303668,529.17,0.7739999890327454,0.019037063114342844
529.7586210000001,,0.021338360012402423,529.636,0.753000020980835,-0.02641149458166435
530.224138,,0.020611713792507622,530.101,0.7689999938011169,0.00872578187131912
530.689655,,0.016042682521451752,530.567,0.7739999890327454,0.01986515648897387
531.155172,,0.009430304629419895,531.034,0.7649999856948853,0.00046290365716395235
531.62069,,0.0021803419915072354,531.5,0.4860000014305115,-0.6072273935281332
532.086207,,0.004950496570172563,531.964,0.7789999842643738,0.031206694848260857
532.5517239999999,,0.0108975299168324,532.43,0.75,-0.03194465360658599
533.017241,,0.01430881277912459,532.89,0.7730000019073486,0.01813739548880825
533.482759,,0.014640459977659212,533.359,0.8399999737739563,0.16402625139401336
533.9482760000001,,0.012701265730434605,533.82,0.7519999742507935,-0.0278251734172372
534.413793,,0.010075198776905981,534.289,0.7749999761581421,0.022106308053871388
534.87931,,0.008122453066811947,534.75,0.7609999775886536,-0.008614865199512023
535.344828,,0.007132878064318101,535.219,0.7020000219345093,-0.13741210009288224
535.810345,,0.006170628809745092,535.685,0.7590000033378601,-0.013516443185816452
536.275862,,0.004143979173728671,536.145,0.7739999890327454,0.018856035600292396
536.7413789999999,,0.001195328198107006,536.611,0.7310000061988831,-0.07514247586936178
537.206897,,0.001455154428374998,537.075,0.7519999742507935,-0.029707899888805032
537.672414,,0.0030390735476246915,537.541,0.7739999890327454,0.01791546573935867
538.137931,,0.003864472985149023,538.006,0.781000018119812,0.032880194938893964
538.6034480000001,,0.004401845493733085,538.471,0.7649999856948853,-0.002233709869670246
539.0689659999999,,0.00469559458251934,538.939,0.7739999890327454,0.01715681046921977
539.5344829999999,,0.004877126717466895,539.404,0.7549999952316284,-0.024410297455447982
540.0,,0.005301691158167873,539.867,0.7720000147819519,0.012503634535238145
540.465517,,0.00579128577103061,540.33,0.7950000166893005,0.062543511313198
540.931034,,0.005542469809979768,540.798,0.7609999775886536,-0.011543071944140339
541.396552,,0.004215550153142727,541.259,0.765999972820282,-0.0006061875322756641
541.862069,,0.00245607069366734,541.725,0.7760000228881836,0.02127827791699314
542.327586,,0.000957117868225702,542.195,0.7789999842643738,0.027963440755791248
542.7931030000001,,0.00034321191926017097,542.654,0.7739999890327454,0.017266215034046323
543.258621,,0.0017244067537242717,543.123,0.7710000276565552,0.010966478147697507
543.7241379999999,,0.0029960109484649705,543.589,0.7559999823570251,-0.02144526659408617
544.189655,,0.0038535318451478956,544.052,0.7540000081062317,-0.025511749791525963
544.655172,,0.004407173623293505,544.518,0.7609999775886536,-0.009957378771953001
545.12069,,0.004887331437967275,544.982,0.746999979019165,-0.040151136654360965
545.5862070000001,,0.005227000914339237,545.448,0.7739999890327454,0.0189735864717582
546.051724,,0.005244468422289254,545.909,0.781000018119812,0.03451063848920565
546.517241,,0.004825418514914049,546.379,0.7350000143051147,-0.06544456130043132
546.982759,,0.003789040266652561,546.842,0.7760000228881836,0.02410999256731401
547.448276,,0.00210381172194118,547.304,0.7730000019073486,0.017764694617385533
547.9137929999999,,0.0003297419450379663,547.775,0.7429999709129333,-0.04744909437030899
548.3793099999999,,0.0007006459116916982,548.237,0.7570000290870667,-0.01685234968016501
548.844828,,0.0007587183965423332,548.703,0.7739999890327454,0.02022743291265619
549.310345,,0.00042411091152985973,549.167,0.7739999890327454,0.020217403170487716
549.775862,,0.00043348458811573714,549.633,0.7739999890327454,0.02015542285930554
550.241379,,0.0010544536629033543,550.097,0.7739999890327454,0.02004369716618481
550.706897,,0.001977922789438551,550.563,0.7549999952316284,-0.0215087117410926
551.172414,,0.0026078347703933752,551.03,0.7549999952316284,-0.021708699057625753
551.637931,,0.0024312974671799495,551.496,0.7580000162124634,-0.015408416378112324
552.103448,,0.001129975918178839,551.961,0.8230000138282776,0.12594125901767464
552.568966,,0.0014699527627779585,552.419,0.7860000133514404,0.0450520781542224
553.034483,,0.005127304674640564,552.89,0.7950000166893005,0.0643729273609233
553.5,,0.008746811950190943,553.352,0.765999972820282,0.0009051968539382252
553.965517,,0.01058867609988589,553.82,0.7720000147819519,0.013698615750577878
554.4310340000001,,0.009264734242961939,554.282,0.7519999742507935,-0.03013693828949251
554.896552,,0.004728771712005096,554.745,0.7739999890327454,0.01755476907975019
555.3620689999999,,0.0013892669750049757,555.215,0.7580000162124634,-0.017510894168297375
555.827586,,0.006432219218687524,555.674,0.7559999823570251,-0.022038287621508664
556.293103,,0.008474792401486578,556.139,0.7739999890327454,0.017049769071048226
556.758621,,0.008048952326221145,556.605,0.7609999775886536,-0.011353783874452964
557.224138,,0.007686968409253614,557.072,0.7739999890327454,0.01693658079670038
557.689655,,0.009179135565625546,557.538,0.7549999952316284,-0.02444014990373746
558.155172,,0.01161488646991147,558.005,0.753000020980835,-0.028731331894672526
558.6206900000001,,0.012663873304765306,558.464,0.7559999823570251,-0.022083507651487325
559.0862070000001,,0.011387321080177034,558.938,0.9800000190734863,0.4660925355518568
559.5517239999999,,0.008869979945135806,559.397,0.7680000066757202,0.004423327334505447
560.017241,,0.006098386309341025,559.86,0.753000020980835,-0.028016751381337524
560.482759,,0.002484493724306338,560.33,0.7739999890327454,0.017997579054291273
560.948276,,0.002574853735843827,560.793,0.6460000276565552,-0.26059399081706675
561.413793,,0.007430286584894267,561.256,0.777999997138977,0.027265016585178187
561.87931,,0.008917733942204575,561.722,0.753000020980835,-0.02692849180678963
562.344828,,0.005621940653426977,562.184,0.7739999890327454,0.01908454208301841
562.8103450000001,,0.0004480275965087281,562.65,0.7620000243186951,-0.006816803806071577
563.275862,,0.00579876487445388,563.116,0.7680000066757202,0.006471044318472348
563.7413789999999,,0.008456624756186458,563.582,0.7739999890327454,0.01972617601054818
564.206897,,0.00865891095661644,564.049,0.7739999890327454,0.019871684058905777
564.672414,,0.007295284771374145,564.515,0.7519999742507935,-0.02795537130779401
565.137931,,0.00479108786123715,564.975,0.7739999890327454,0.020032703592212025
565.603448,,0.001644818283976018,565.441,0.7730000019073486,0.01786533312554488
566.068966,,0.0009580688322847178,565.909,0.746999979019165,-0.038814916177746635
566.534483,,0.001837771015492496,566.371,0.8130000233650208,0.10489587720372809
567.0,,0.0008842753606380469,566.834,0.7739999890327454,0.019807608681298352
567.465517,,0.0009295276413769041,567.304,0.7789999842643738,0.03054317721163812
567.931034,,0.002376915142369124,567.764,0.7570000290870667,-0.017577296820867307
568.396552,,0.0026298119261451078,568.234,0.7739999890327454,0.019242415189277422
568.862069,,0.001477012095586431,568.699,0.7409999966621399,-0.05289069959727191
569.327586,,0.0006499415886779426,569.166,0.7770000100135803,0.025289753317558554
569.793103,,0.002919402504503361,569.624,0.7739999890327454,0.01849808672379431
570.2586210000001,,0.004610115376895869,570.09,0.7480000257492065,-0.038399098530142846
570.724138,,0.005419853942589386,570.556,0.7839999794960022,0.03979050071130355
571.189655,,0.0054223269055707155,571.02,0.781000018119812,0.03303188028160422
571.655172,,0.005050684373084326,571.486,0.7590000033378601,-0.015095378393810917
572.12069,,0.004933719137537105,571.953,0.7860000133514404,0.043562553093369094
572.586207,,0.0051417191141386,572.419,0.7369999885559082,-0.06332106255625256
573.051724,,0.004813394828011321,572.879,0.7689999938011169,0.006304841856916005
573.517241,,0.0034792914972965267,573.349,0.753000020980835,-0.028603001935491514
573.982759,,0.002565097450096315,573.812,0.777999997138977,0.025856744168606175
574.4482760000001,,0.004059313779002699,574.274,0.7570000290870667,-0.01985800895022499
574.913793,,0.007276068374637264,574.745,0.753000020980835,-0.028494373365612575
575.37931,,0.008608014891574579,575.208,0.7739999890327454,0.01737406013566248
575.844828,,0.005798947946923263,575.674,0.7699999809265137,0.008811738704575932
576.310345,,0.0014594656861648034,576.138,0.7459999918937683,-0.04329320750913965
576.775862,,0.0006375521576718025,576.604,0.46399998664855957,-0.6574714029196161
577.241379,,0.004981341559785777,577.064,0.7590000033378601,-0.014562251579458032
577.706897,,0.01074632524614405,577.53,0.7580000162124634,-0.016526822303359362
578.172414,,0.012949876890786787,577.994,0.7559999823570251,-0.020664205087198337
578.6379310000001,,0.01034157160226159,578.46,0.7739999890327454,0.018771555320052962
579.1034480000001,,0.005734876835783271,578.93,0.7749999761581421,0.021164835361229466
579.5689659999999,,0.002503568151817647,579.393,0.7739999890327454,0.01918981926584568
580.034483,,0.0016541033256542751,579.861,0.7630000114440918,-0.0045886924419668886
580.5,,0.0018213395119813514,580.323,0.7570000290870667,-0.01749684440650418
580.965517,,0.0013039300332220868,580.786,0.7680000066757202,0.006604160606622701
581.431034,,0.00011072506475702558,581.249,0.7490000128746033,-0.03468602511494068
581.896552,,0.0014359102522710616,581.715,0.7739999890327454,0.01984943185955064
582.362069,,0.0024859776987713783,582.185,0.722000002861023,-0.09340834209703842
582.827586,,0.00458891188845329,582.651,0.7730000019073486,0.017695866618329018
583.2931030000001,,0.008439022151028566,583.109,0.7739999890327454,0.019829791861501578
583.758621,,0.0120817312932668,583.575,0.7549999952316284,-0.021645213182344157
584.2241379999999,,0.012523643579975595,584.042,0.7739999890327454,0.01963427347357297
584.689655,,0.009319223806895175,584.507,0.746999979019165,-0.03933528513385884
585.155172,,0.005441103475958713,584.971,0.6460000276565552,-0.2595544529505608
585.6206900000001,,0.004209425330312575,585.437,0.7599999904632568,-0.011391113554646452
586.0862070000001,,0.005780322371395709,585.905,0.7720000147819519,0.014531707611812593
586.551724,,0.007023823310395643,586.367,0.7620000243186951,-0.007485363056140524
587.017241,,0.005070077703426206,586.83,0.7599999904632568,-0.01207636795639897
587.482759,,0.0008600920368666725,587.3,0.7490000128746033,-0.036271786218643014
587.948276,,0.0015486899807243683,587.764,0.7599999904632568,-0.012527238504255057
588.4137929999999,,0.00037283825212644115,588.227,0.7639999985694885,-0.004016664775334432
588.87931,,0.004464858326072066,588.692,0.902999997138977,0.29863695282215585
589.344828,,0.006128259829565549,589.156,0.7549999952316284,-0.023948709136425203
589.810345,,0.0030654952804890436,589.622,0.7739999890327454,0.017334528135062192
590.2758620000001,,0.0030660619889380045,590.087,0.7699999809265137,0.008544113553032827
590.741379,,0.00891865670790337,590.552,0.7559999823570251,-0.021995645837267812
591.2068969999999,,0.01203262358417521,591.019,0.7739999890327454,0.017219077940939593
591.672414,,0.011574570183785318,591.485,0.753000020980835,-0.02849598443705349
592.137931,,0.008192159799614572,591.949,0.7580000162124634,-0.01753040933631113
592.603448,,0.0038137739762057954,592.415,0.828000009059906,0.13508202515301387
593.068966,,0.0007515099595308227,592.878,0.753000020980835,-0.028176923869161163
593.534483,,8.06446988732645e-05,593.341,0.7720000147819519,0.01338447553276471
594.0,,0.0009106688067908789,593.809,0.7699999809265137,0.00921582961780763
594.4655170000001,,0.0016678136590401959,594.271,0.7739999890327454,0.01813561705152884
594.9310340000001,,0.0019198747916819145,594.742,0.7739999890327454,0.018351359987200826
595.3965519999999,,0.0023218614173836864,595.204,0.7580000162124634,-0.01628713190371655
595.862069,,0.0029066318523370033,595.67,0.7559999823570251,-0.02042753048635572
596.327586,,0.002472581916888724,596.134,0.7540000081062317,-0.024577245955542518
596.793103,,9.588875129346314e-05,596.599,0.7590000033378601,-0.013491773305180407
597.2586210000001,,0.003525053029938544,597.064,0.8240000009536743,0.12829341678211298
597.724138,,0.006755622285389278,597.529,0.7739999890327454,0.019511526644303154
598.189655,,0.008471053814440285,597.994,0.7739999890327454,0.01963493866617667
598.655172,,0.008303051266400307,598.459,0.7480000257492065,-0.0369184325228075
599.12069,,0.006001314462179715,598.923,0.7599999904632568,-0.010718465188922218
599.586207,,0.0015590059363460383,599.386,0.7480000257492065,-0.03684276595358615
600.0517239999999,,0.003730072990371793,599.849,0.7739999890327454,0.019784557263823003
600.517241,,0.007154941881136016,600.319,0.796999990940094,0.06984106743452857
600.982759,,0.006615943888863968,600.779,0.7580000162124634,-0.015211217667835852
601.448276,,0.0028814630780881565,601.249,0.7730000019073486,0.017352750942154604
601.913793,,0.0009607932663155535,601.714,0.7519999742507935,-0.028542495475084854
602.37931,,0.002582956865471639,602.177,0.7820000052452087,0.03664997960631475
602.844828,,0.0023279791956834738,602.643,0.7720000147819519,0.014678348731183963
603.310345,,0.0018379793176011813,603.108,0.7480000257492065,-0.03780736059608574
603.775862,,0.0017433610802465335,603.574,0.7720000147819519,0.014274111174971526
604.2413789999999,,0.0016698208739707896,604.038,0.7580000162124634,-0.016434908083050957
604.706897,,0.001991293175938078,604.504,0.7739999890327454,0.018219795429461998
605.172414,,0.003965833629645887,604.964,0.7599999904632568,-0.012474753520829994
605.637931,,0.007519995641149957,605.43,0.7739999890327454,0.017848530510928336
606.1034480000001,,0.010221172950888481,605.897,0.7720000147819519,0.013334357298577088
606.5689659999999,,0.009909761560750414,606.359,0.7710000276565552,0.011024205409829312
607.0344829999999,,0.007720867064827178,606.827,0.7429999709129333,-0.05008121899305147
607.5,,0.006674894465360136,607.289,0.75,-0.0349034682824007
607.965517,,0.007353081857243008,607.76,0.7519999742507935,-0.030587087105151095
608.431034,,0.007137697860259765,608.223,0.7480000257492065,-0.03930922228182278
608.896552,,0.004390395453186635,608.688,0.7749999761581421,0.019540328194574717
609.362069,,0.0011208783866176353,609.152,0.7710000276565552,0.01088585228421809
609.827586,,6.296094325156132e-05,609.618,0.7490000128746033,-0.0369523532089399
610.293103,,0.000125453156310464,610.083,0.75,-0.03465303268934541
610.758621,,0.0009573914067408369,610.548,0.7580000162124634,-0.017078158083596338
611.2241379999999,,0.0034473398214134696,611.013,1.0390000343322754,0.5952943698507474
611.689655,,0.004450013120756629,611.478,0.7739999890327454,0.018151373565059317
612.155172,,0.002240504604576201,611.946,0.7730000019073486,0.016188238141006325
612.62069,,0.0010931997177436362,612.404,0.7699999809265137,0.009872297535681961
613.0862070000001,,0.0023317309534866253,612.871,0.7720000147819519,0.014447347279787998
613.551724,,0.0012110120730273281,613.341,0.7549999952316284,-0.02238147295536163
614.017241,,0.00034566734052188903,613.801,0.765999972820282,0.001775656750797659
614.4827590000001,,0.001436574470541291,614.264,0.765999972820282,0.0019457044704414943
614.948276,,0.0030279226975662176,614.729,0.7730000019073486,0.017339572472284587
615.4137929999999,,0.0024786425312099693,615.201,0.7820000052452087,0.03706004977185584
615.8793099999999,,0.0008482825736525322,615.659,0.7739999890327454,0.019709818120523567
616.344828,,0.005146681544108914,616.126,0.7820000052452087,0.0371821597140585
616.810345,,0.00836816817119373,616.592,0.7599999904632568,-0.010742361437197069
617.275862,,0.009963117008183546,617.057,0.7739999890327454,0.019726768830477807
617.741379,,0.010496265893966614,617.522,0.7509999871253967,-0.03045104188426735
618.206897,,0.010389880143398061,617.987,0.753000020980835,-0.02619772214277797
618.672414,,0.009578889161405839,618.453,0.7739999890327454,0.019418055858564723
619.137931,,0.008097720286931539,618.916,0.7490000128746033,-0.035210887101782766
619.603448,,0.006376448950921159,619.385,0.7760000228881836,0.02342811836977158
620.068966,,0.004802806798477646,619.849,0.9470000267028809,0.3957804456673109
620.534483,,0.00336881220472292,620.312,0.7739999890327454,0.018674990873266163
621.0,,0.0019202177285939379,620.775,0.7850000262260437,0.042441726956048816
621.465517,,0.0004324322205634849,621.245,0.7289999723434448,-0.07975870500505057
621.9310340000001,,0.0010619449087662155,621.711,0.7820000052452087,0.035521181132269486
622.396552,,0.002372545582812355,622.174,0.75,-0.03437097988932123
622.862069,,0.0028169240740580593,622.639,0.7509999871253967,-0.032349560539717985
623.327586,,0.0015580104515709745,623.104,0.7739999890327454,0.017624828819402714
623.793103,,0.0013071101087812965,623.57,0.4790000021457672,-0.625189221972805
624.258621,,0.004361661923591161,624.03,0.7879999876022339,0.047921467552026406
624.724138,,0.005971619527245365,624.496,1.00600004196167,0.5228091548677121
625.189655,,0.0055532997686314105,624.961,0.7590000033378601,-0.01532988575438009
625.655172,,0.0035868232241956497,625.427,0.8360000252723694,0.15245570535302963
626.1206900000001,,0.0009711526155013526,625.89,0.7730000019073486,0.01526856784554568
626.5862070000001,,0.0010879160326808823,626.359,0.7739999890327454,0.017550146182948916
627.0517239999999,,0.0012223333111567821,626.82,0.75,-0.03460424756464628
627.5172409999999,,0.0008361239621194505,627.289,0.7739999890327454,0.01784198438256493
627.982759,,0.003151006853356298,627.753,0.7990000247955322,0.07248836785771505
628.448276,,0.0030178086977157596,628.215,0.7710000276565552,0.011682852648928103
628.913793,,0.00010362395487370676,628.681,0.7599999904632568,-0.01207611504012815
629.37931,,0.002746933280260399,629.146,0.7549999952316284,-0.022761008457395038
629.844828,,0.0026188868025719815,629.611,0.777999997138977,0.027551893626310445
630.3103450000001,,0.0002328110002400778,630.076,0.7739999890327454,0.01903123941904324
630.7758620000001,,0.0030903214464815818,630.542,0.7639999985694885,-0.002577164673266215
631.2413789999999,,0.0039871604608366735,631.008,0.7770000100135803,0.025901804203102095
631.706897,,0.0029483033040634617,631.474,0.7730000019073486,0.01731758333312926
632.172414,,0.0005408968584362645,631.939,0.7409999966621399,-0.05229936655417748
632.637931,,0.002998356879871899,632.405,0.9020000100135803,0.29853123781709184
633.103448,,0.006828347908899079,632.868,0.8259999752044678,0.13299206049251414
633.568966,,0.00923668754944232,633.331,0.9210000038146973,0.33997293698206404
634.034483,,0.009244370848682858,633.794,0.7350000143051147,-0.06527764989467316
634.5,,0.007645239581014292,634.263,0.7739999890327454,0.019632597170544094
634.9655170000001,,0.005740829860908287,634.729,0.8370000123977661,0.15679586229060938
635.431034,,0.00386478440138001,635.193,0.765999972820282,0.001989511853258587
635.8965519999999,,0.0019655276228465078,635.659,0.7480000257492065,-0.03737714949131886
636.362069,,0.0007926536478343091,636.124,0.7519999742507935,-0.02884028069491406
636.827586,,0.0012221299974263676,636.59,0.7739999890327454,0.018891378638182636
637.293103,,0.002622965401110933,637.049,0.7490000128746033,-0.035788030134714405
637.7586210000001,,0.003040973080466502,637.515,0.7760000228881836,0.022814303045460668
638.224138,,0.0013541925388911784,637.982,0.7570000290870667,-0.018802071603833428
638.689655,,0.001310423584462926,638.448,0.7739999890327454,0.01801920272436721
639.155172,,0.002694539086926859,638.916,0.7699999809265137,0.009102494258554684
639.62069,,0.0016832694599008143,639.378,0.7559999823570251,-0.021580537560177762
640.086207,,0.0009507153549148915,639.842,0.7739999890327454,0.017479212788343242
640.551724,,0.0038655851027973587,640.304,0.8690000176429749,0.2243285469886288
641.017241,,0.0064240641684279965,640.772,0.7450000047683716,-0.045906968716402353
641.482759,,0.008430217685274355,641.235,0.7739999890327454,0.01723096614769563
641.9482760000001,,0.009385264179713493,641.7,0.7739999890327454,0.0172287461740981
642.413793,,0.00863571672285367,642.166,0.7480000257492065,-0.03937709073542394
642.87931,,0.00602449719602926,642.631,0.7850000262260437,0.041311999101446006
643.344828,,0.0021621763485158377,643.097,0.7730000019073486,0.015285938316516687
643.810345,,0.001699931206056678,643.563,0.7519999742507935,-0.03031271311432525
644.275862,,0.004154114932029862,644.028,0.753000020980835,-0.027951101893360246
644.7413789999999,,0.004660363794217226,644.493,0.8339999914169312,0.14872784338784661
645.206897,,0.004335538599249159,644.96,0.753000020980835,-0.027513449664626214
645.672414,,0.00514703229582645,645.419,0.8199999928474426,0.11869871286688874
646.1379310000001,,0.007837705397805187,645.886,0.7990000247955322,0.07319636912935663
646.6034480000001,,0.010885238914842377,646.356,0.7699999809265137,0.010263152466866484
647.0689659999999,,0.011893268958469136,646.819,0.777999997138977,0.027929232645788022
647.534483,,0.009946004298257498,647.282,0.7950000166893005,0.06518462000208904
648.0,,0.006414940146822151,647.75,0.7490000128746033,-0.03484082024714323
648.465517,,0.0035922705790177416,648.213,0.7749999761581421,0.02196311699200556
648.931034,,0.002746423458922012,648.678,0.7590000033378601,-0.012775041313709708
649.396552,,0.0034026286466353325,649.145,0.7720000147819519,0.015624494629706774
649.862069,,0.004169237775105206,649.611,0.6990000009536743,-0.143387034032025
650.327586,,0.004036732205659077,650.076,0.7580000162124634,-0.014866716643091159
650.7931030000001,,0.0029666135343795782,650.534,0.7549999952316284,-0.02147154727483003
651.258621,,0.0015355793444068826,651.0,0.7760000228881836,0.02416582102458873
651.7241379999999,,0.00027903517675031703,651.466,0.746999979019165,-0.03917129119201482
652.189655,,0.0006192133821699351,651.938,0.7559999823570251,-0.01975719820525319
652.655172,,0.0012529580787393598,652.397,0.7739999890327454,0.01923338345390326
653.12069,,0.0018710845818610553,652.86,0.7580000162124634,-0.015873746943871916
653.5862070000001,,0.002801223662983334,653.33,0.7730000019073486,0.016541436036390557
654.051724,,0.00417680786807093,653.793,0.7950000166893005,0.06420066589126139
654.517241,,0.005565224178438161,654.256,0.7739999890327454,0.018180759640911752
654.982759,,0.006203505884751226,654.722,0.7549999952316284,-0.02347098903045757
655.448276,,0.005941411862066524,655.184,0.7789999842643738,0.028577593556525255
655.9137929999999,,0.005567384267061628,655.65,0.7919999957084656,0.056688088263018396
656.37931,,0.005654421138568363,656.116,0.7789999842643738,0.02818827031680584
656.844828,,0.005445732353959877,656.582,0.7739999890327454,0.017157770977929084
657.310345,,0.003670986787288417,657.049,0.7739999890327454,0.017064691781854307
657.7758620000001,,0.0003958347992715983,657.514,0.7710000276565552,0.010482902199372661
658.241379,,0.0026104874076174384,657.979,0.7739999890327454,0.017021554752944305
658.7068969999999,,0.003466224039898123,658.445,0.7490000128746033,-0.037393465389262893
659.172414,,0.001866896698361107,658.908,0.7739999890327454,0.01717036295904482
659.637931,,0.0006572184921841986,659.371,0.7599999904632568,-0.013189314665057978
660.103448,,0.0019432257390222954,659.834,0.7739999890327454,0.017492816555036362
660.568966,,0.0009616550851605857,660.304,0.7699999809265137,0.008993470127434323
661.034483,,0.001283210932003094,660.767,0.7580000162124634,-0.01690757428076804
661.5,,0.0027460325909565613,661.23,0.7739999890327454,0.018212997098166973
661.965517,,0.002312076890501355,661.696,0.5759999752044678,-0.4128893315262062
662.4310340000001,,0.0005343383419717904,662.16,0.7739999890327454,0.01874968571107285
662.8965519999999,,0.0014886448290466635,662.625,0.7559999823570251,-0.0202081705973427
663.362069,,0.0032722733031952003,663.09,0.7480000257492065,-0.03739295201579613
663.827586,,0.00465710400981908,663.556,0.7749999761581421,0.02165371884582936
664.293103,,0.005054776293539106,664.023,0.7590000033378601,-0.01300865589392912
664.7586210000001,,0.0038233632689392786,664.488,0.7599999904632568,-0.010667440864746327
665.224138,,0.0013377010596122754,664.953,0.7990000247955322,0.07442464839925446
665.689655,,0.0008576308518119756,665.419,0.7490000128746033,-0.034424400513839916
666.155172,,0.0011302688577192834,665.879,0.7749999761581421,0.022259232429515517
666.62069,,0.0009184246675365288,666.349,0.7739999890327454,0.02007348286768611
