Trial: ,19
Threshold: ,0.0
Maximum EMG: ,0.05429268424131052
Success: ,True

EMG Time,Raw EMG,Filtered EMG,Force Time,Raw Force (V),Filtered Force (N)
0.0,samples,2.8535875552435177e-07,0.466,0.7630000114440918,-0.0040243755462010325
0.46551699999999996,time,2.9111071698755764e-07,0.935,0.8119999766349792,0.10207024584693739
0.9310339999999999,value,2.960735188287539e-07,1.397,0.7739999890327454,0.018678456850668577
1.396552,,3.001953907975204e-07,1.861,0.7459999918937683,-0.0428528502871422
1.862069,,3.0342532404235603e-07,2.331,0.7570000290870667,-0.01932745020686346
2.327586,,3.057132857987123e-07,2.794,0.7710000276565552,0.010837467645329833
2.793103,,3.070104398699262e-07,3.257,0.7699999809265137,0.008437981880046463
3.258621,,3.072693723653987e-07,3.722,0.753000020980835,-0.028696819098566348
3.724138,,3.064443221184946e-07,4.185,0.7730000019073486,0.014904642744629914
4.189654999999999,,3.044914151650149e-07,4.651,0.75,-0.035049538268882616
4.655172,,3.013689026218843e-07,5.117,0.7739999890327454,0.017514924290990844
5.12069,,2.9703740126505663e-07,5.583,0.7519999742507935,-0.030024144488206686
5.586207,,2.9146013606574554e-07,6.05,0.7720000147819519,0.014043059359166912
6.051723999999999,,2.8460318390511156e-07,6.515,0.753000020980835,-0.026768984326856888
6.517241,,2.7643571764965583e-07,6.98,0.7459999918937683,-0.041367172167051124
6.982759,,2.6693024973296776e-07,7.446,0.7739999890327454,0.020337664006772987
7.448276,,2.5606287435433636e-07,7.906,0.7559999823570251,-0.01814601600589258
7.913793000000001,,2.4381350737124933e-07,8.376,0.7789999842643738,0.03270207380759338
8.379309999999998,,2.3016612293116306e-07,8.838,0.7519999742507935,-0.02539804344529436
8.844828000000001,,2.151089858583203e-07,9.301,0.7720000147819519,0.018860008755573147
9.310345,,1.9863487878401625e-07,9.765,0.7519999742507935,-0.024088147919201913
9.775862,,1.8074132298376055e-07,10.235,0.7149999737739563,-0.10415412363476531
10.241379,,1.6143079186244587e-07,10.7,0.7580000162124634,-0.010027209326531564
10.706897,,1.407109160091075e-07,11.165,0.7620000243186951,-0.0009801369035528722
11.172414,,1.185946787263308e-07,11.63,0.7789999842643738,0.0362672263392654
11.637931,,9.510060092602641e-08,12.095,0.7770000100135803,0.03199186184749642
12.103447999999998,,7.025291427332868e-08,12.554,0.7710000276565552,0.018870218148479837
12.568966000000001,,4.4081721453965115e-08,13.02,0.753000020980835,-0.020526772300320954
13.034483,,1.6623142437767414e-08,13.486,0.7739999890327454,0.024916421052121628
13.5,,1.2080554387779235e-08,13.951,0.765999972820282,0.00706080502827343
13.965517,,4.198083733475997e-08,14.417,0.7609999775886536,-0.004364377277854799
14.431034,,7.302281389412251e-08,14.879,0.777999997138977,0.03205095978932053
14.896552,,1.0514515167444606e-07,15.349,0.753000020980835,-0.023108040714203956
15.362069,,1.3828001887919614e-07,15.813,0.7630000114440918,-0.002064958128299597
15.827586000000002,,1.7235304537843583e-07,16.276,0.7649999856948853,0.0015209039802973705
16.293103,,2.0728330540316628e-07,16.741,0.7480000257492065,-0.03629183386758327
16.758621,,2.429833228578066e-07,17.205,0.7730000019073486,0.017417945130920817
17.224138,,2.7935910020870076e-07,17.671,0.765999972820282,0.0014542941621977007
17.689655,,3.163101718638802e-07,18.135,0.7710000276565552,0.01170055640609455
18.155172,,3.537296829115445e-07,18.6,0.75,-0.03461226696736679
18.62069,,3.915044940318044e-07,19.064,0.7689999938011169,0.006324401476633817
19.086207,,4.295153133381216e-07,19.53,0.753000020980835,-0.028873328223946306
19.551724,,4.67636855841566e-07,19.995,0.7860000133514404,0.04281250828708469
20.017241000000002,,5.057380311624936e-07,20.461,0.7620000243186951,-0.009547047704776055
20.482758999999998,,5.436821600405445e-07,20.924,0.7559999823570251,-0.02255081375133814
20.948276,,5.813272201150076e-07,21.394,0.7490000128746033,-0.03759493377858804
21.413793000000002,,6.185261213636639e-07,21.857,0.7739999890327454,0.017210300338436325
21.87931,,6.551270114992679e-07,22.32,0.7509999871253967,-0.032436159150766954
22.344828,,6.90973611528977e-07,22.791,0.5889999866485596,-0.3848083614191964
22.810344999999998,,7.259055815833981e-07,23.253,0.7570000290870667,-0.018139834894985683
23.275862,,7.597589170186394e-07,23.719,0.7739999890327454,0.019623086367298526
23.741379,,7.923663746870021e-07,24.182,0.7490000128746033,-0.034064763927002174
24.206897,,8.235579291599165e-07,24.648,0.781000018119812,0.03645936081142563
24.672414,,8.531612585706251e-07,25.113,0.7689999938011169,0.011127958793215608
25.137931,,8.810022596241805e-07,25.579,0.7620000243186951,-0.003329735742577623
25.603448,,9.06905591198836e-07,26.043,0.7590000033378601,-0.009117544070020007
26.068966,,9.306952458361233e-07,26.509,0.7739999890327454,0.024242551880750685
26.534483,,9.521951482871635e-07,26.976,0.753000020980835,-0.020917661010604376
27.0,,9.71229780150375e-07,27.434,0.7559999823570251,-0.013898737677675653
27.465517,,9.876248295010783e-07,27.902,0.7570000290870667,-0.011361117428913107
27.931034,,1.0012078642769357e-06,28.364,0.7720000147819519,0.021541693404821434
28.396552,,1.0118090280451097e-06,28.832,0.7760000228881836,0.030336412056474173
28.862069,,1.0192617566379085e-06,29.295,0.7409999966621399,-0.04598307794821985
29.327586,,1.0234035140039557e-06,29.765,0.7829999923706055,0.04530707384228168
29.793103000000002,,1.0240765454820452e-06,30.227,0.7519999742507935,-0.022584905214218274
30.258620999999998,,1.0211286465653115e-06,30.693,0.7519999742507935,-0.023070099017456228
30.724138,,1.0144139450846881e-06,31.158,0.7739999890327454,0.024257277423462606
31.189655000000002,,1.0037936946033522e-06,31.623,0.7720000147819519,0.01919766214291178
31.655172000000004,,9.89137076678524e-07,32.084,0.7689999938011169,0.011880839571253514
32.12069,,9.703220095141689e-07,32.55,0.7649999856948853,0.0023299583289507026
32.586207,,9.472359603984172e-07,33.016,0.7739999890327454,0.021071177621757448
33.051724,,9.197767591934755e-07,33.483,0.75,-0.03208733452937634
33.517241000000006,,8.878534100240525e-07,33.954,0.7480000257492065,-0.037294054955082534
33.982759,,8.513868981934889e-07,34.412,0.7540000081062317,-0.025024472146286576
34.448276,,8.103109892454822e-07,34.876,0.8389999866485596,0.15943230033163305
34.913793,,7.645730169841876e-07,35.346,0.7730000019073486,0.015011923132399544
35.37931,,7.14134657167182e-07,35.809,0.7559999823570251,-0.022537187235284174
35.844828,,6.58972683494945e-07,36.272,0.777999997138977,0.025013607186531395
36.310345,,5.990797024377997e-07,36.737,0.75,-0.03622308218722723
36.775862,,5.344648633672861e-07,37.199,0.7609999775886536,-0.012339747966576192
37.241378999999995,,4.651545403943838e-07,37.665,0.7739999890327454,0.01605744576345396
37.706897000000005,,3.911929822624678e-07,38.131,0.7580000162124634,-0.01857041350716853
38.172414,,3.1264292659901423e-07,38.597,0.8299999833106995,0.13867355846423612
38.637931,,2.295861747974836e-07,39.061,0.7760000228881836,0.02154951661999365
39.103448,,1.421241237801024e-07,39.527,0.765999972820282,0.00041157181696716005
39.568965999999996,,5.037825088402668e-08,39.994,0.7699999809265137,0.00988022625926518
40.034483,,4.5509451881831154e-08,40.46,0.7760000228881836,0.023789320884076374
40.5,,1.4537609794365055e-07,40.921,0.777999997138977,0.029041991426913896
40.965517,,2.4903758433507933e-07,41.39,0.7829999923706055,0.04086220862158409
41.431034,,3.5628833158991e-07,41.854,0.6710000038146973,-0.20221802240661083
41.896552,,4.6690108894768556e-07,42.316,0.7580000162124634,-0.011776441371253206
42.362069000000005,,5.806268083872343e-07,42.779,0.7409999966621399,-0.0479705786900016
42.827586000000004,,6.971945909096242e-07,43.249,0.7739999890327454,0.024687287970887425
43.293103,,8.16311708382284e-07,43.715,0.7490000128746033,-0.029120108294126375
43.758621,,9.376637041297497e-07,44.179,0.7820000052452087,0.04331009026282092
44.224138,,1.060914575313399e-06,44.645,0.75,-0.026012695793466656
44.689655,,1.1857070399824233e-06,45.109,0.7400000095367432,-0.04755950793685751
45.155172,,1.3116628915009756e-06,45.574,0.7570000290870667,-0.010445913368322153
45.620689999999996,,1.4383834428618312e-06,46.039,0.7739999890327454,0.026501972285251328
46.086206999999995,,1.5654500631849434e-06,46.505,0.7739999890327454,0.026250109962618506
46.551724,,1.692424808469974e-06,46.965,0.7559999823570251,-0.013373497624709216
47.017241,,1.8188511484253004e-06,47.431,0.7710000276565552,0.018753534583476984
47.482759,,1.944254790932271e-06,47.898,0.7770000100135803,0.031144027204944837
47.948276,,2.0681446054228177e-06,48.36,0.7739999890327454,0.023818545052390852
48.413793,,2.1900136461511902e-06,48.824,0.7739999890327454,0.022944291851710305
48.879310000000004,,2.309340276026891e-06,49.294,0.7570000290870667,-0.015026005565523469
49.344828,,2.4255893913462826e-06,49.754,0.753000020980835,-0.024705796058478544
49.810345,,2.538213747415295e-06,50.224,0.765999972820282,0.0026484241185807554
50.275862,,2.6466553846957257e-06,50.69,0.7490000128746033,-0.03533009855807659
50.741379,,2.750347154733496e-06,51.15,0.7739999890327454,0.01824989060514338
51.206897,,2.8487143447395435e-06,51.615,0.7699999809265137,0.008732272288765958
51.672414,,2.9411763992936468e-06,52.079,0.7739999890327454,0.016752348287425153
52.137931,,3.0271487372292553e-06,52.545,0.7440000176429749,-0.049171906636134154
52.603448,,3.1060446613342804e-06,53.01,0.7599999904632568,-0.014731565132123746
53.068966,,3.177277358069856e-06,53.476,0.7739999890327454,0.01551224737137975
53.534483,,3.2402619840674012e-06,53.939,0.7900000214576721,0.050284031213691426
54.0,,3.294417835715122e-06,54.409,0.7710000276565552,0.008977745170440334
54.465517,,3.339170597689617e-06,54.872,0.7590000033378601,-0.016905707598746968
54.931034,,3.373954665827912e-06,55.335,0.7739999890327454,0.01619923411786292
55.396552,,3.3982155392714093e-06,55.806,0.7739999890327454,0.01677760467939169
55.862069,,3.4114122763474475e-06,56.269,0.7570000290870667,-0.019544653263051263
56.327586,,3.41302000818799e-06,56.734,0.7760000228881836,0.022679376119630907
56.793102999999995,,3.4025325036200386e-06,57.197,0.7760000228881836,0.023599849833838043
57.258621000000005,,3.3794647784003954e-06,57.662,0.7570000290870667,-0.01681078135923303
57.724138,,3.3433557414101726e-06,58.127,0.8109999895095825,0.1018537626388398
58.189655,,3.293770869973807e-06,58.593,0.7739999890327454,0.02226531394951512
58.655172,,3.2303049060251277e-06,59.057,0.7689999938011169,0.012366003696930555
59.120689999999996,,3.1525845644112705e-06,59.523,0.6079999804496765,-0.3374646969796642
59.586207,,3.060271244205836e-06,59.988,0.7519999742507935,-0.022901572654890685
60.051724,,2.9530637334977227e-06,60.454,0.7730000019073486,0.02357050474680661
60.517241,,2.8307008977335988e-06,60.917,0.7490000128746033,-0.028133193313499394
60.982758999999994,,2.6929643413220856e-06,61.38,0.7710000276565552,0.02022612563256194
61.448276,,2.5396810318585517e-06,61.85,0.7540000081062317,-0.016550376351942907
61.913793,,2.3707258760030733e-06,62.312,0.7730000019073486,0.02492764479238843
62.379310000000004,,2.1860242357427986e-06,62.776,0.7559999823570251,-0.012205807196417867
62.84482800000001,,1.9855543734957655e-06,63.246,0.7509999871253967,-0.023373694576803723
63.310345000000005,,1.7693498142683373e-06,63.704,0.7599999904632568,-0.0042115318533878215
63.775862000000004,,1.5375016128649678e-06,64.175,0.7480000257492065,-0.03095914431125317
64.241379,,1.2901605139691234e-06,64.634,0.75,-0.02734658583944483
64.706897,,1.0275389927699526e-06,65.105,0.7720000147819519,0.019720549916122505
65.172414,,7.499131637027481e-07,65.564,0.7739999890327454,0.023122735326495093
65.637931,,4.5762454480441026e-07,66.029,0.7910000085830688,0.05914228103705094
66.103448,,1.5108166515995707e-07,66.494,0.7649999856948853,0.001448096304876355
66.56896599999999,,1.69238497065499e-07,66.961,0.7730000019073486,0.017827459171276854
67.03448300000001,,5.027892584511401e-07,67.426,0.7730000019073486,0.016808529768456475
67.5,,8.489531683321864e-07,67.894,0.9279999732971191,0.35354505651892826
67.965517,,1.2070411531704e-06,68.357,0.7580000162124634,-0.01768280249139812
68.431034,,1.576291879244902e-06,68.82,0.7239999771118164,-0.0924961873003117
68.896552,,1.955871345363304e-06,69.29,0.7739999890327454,0.015834384729271553
69.362069,,2.3448727169786165e-06,69.754,0.753000020980835,-0.030362476017822135
69.827586,,2.7423164127286667e-06,70.216,0.7720000147819519,0.010757538612784926
70.293103,,3.147150453990881e-06,70.682,0.7739999890327454,0.015020616220109476
70.75862099999999,,3.5582510875653005e-06,71.148,0.7760000228881836,0.019467861754676238
71.22413800000001,,3.974423691061982e-06,71.614,0.7229999899864197,-0.0957296752340886
71.689655,,4.394403969974885e-06,72.079,0.7490000128746033,-0.038641697891753916
72.15517200000001,,4.816859454772634e-06,72.545,0.7739999890327454,0.016427436950363614
72.62069,,5.240391305626967e-06,73.01,0.7710000276565552,0.010638359460116866
73.086207,,5.663536431632366e-06,73.476,0.7329999804496765,-0.07128197048167324
73.551724,,6.084769930545414e-06,73.939,0.7149999737739563,-0.1095349182011984
74.017241,,6.502507854190408e-06,74.402,0.7599999904632568,-0.010467547387540967
74.482759,,6.915110303739244e-06,74.865,0.7739999890327454,0.021098229830220437
74.94827599999999,,7.3208848580796325e-06,75.335,0.7519999742507935,-0.025761464136045995
75.41379300000001,,7.718090337437297e-06,75.798,0.765999972820282,0.0057839641065492425
75.87931,,8.104940903316454e-06,76.26,0.7509999871253967,-0.025909111662183827
76.344828,,8.479610494670116e-06,76.726,0.7910000085830688,0.06213660289507869
76.810345,,8.840237599009549e-06,77.189,0.7580000162124634,-0.008972657861762792
77.275862,,9.184930355912729e-06,77.654,0.7490000128746033,-0.027932536540108955
77.741379,,9.511771989097186e-06,78.121,0.7739999890327454,0.027022993224602186
78.206897,,9.818826561885961e-06,78.586,0.753000020980835,-0.018412773233070768
78.67241399999999,,1.0104145049519454e-05,79.053,0.6420000195503235,-0.26011317655091626
79.137931,,1.0365771720353889e-05,79.519,0.7549999952316284,-0.013989365101881413
79.603448,,1.0601750816542459e-05,79.983,0.7490000128746033,-0.02731456762682822
80.068966,,1.0810133523321719e-05,80.449,0.7699999809265137,0.01800311686006421
80.53448300000001,,1.0988985214527372e-05,80.912,0.7490000128746033,-0.02835012637803206
81.0,,1.1136392960444605e-05,81.375,0.7760000228881836,0.02972156037921457
81.465517,,1.1250473282563059e-05,81.843,0.7739999890327454,0.024484749416637655
81.931034,,1.1329380138260182e-05,82.305,0.7739999890327454,0.023504051705800697
82.396552,,1.1371313116884061e-05,82.773,0.7910000085830688,0.05948840787013111
82.86206899999999,,1.137452582715316e-05,83.236,0.7570000290870667,-0.015679219653069995
83.327586,,1.133733445424127e-05,83.701,0.7739999890327454,0.020255052745343394
83.79310299999999,,1.1258126463377003e-05,84.168,0.753000020980835,-0.026575872775091824
84.258621,,1.1135369425264318e-05,84.634,0.7720000147819519,0.013794488549891851
84.72413800000001,,1.0967619937129977e-05,85.098,0.7699999809265137,0.0084994893404848
85.189655,,1.075353261173184e-05,85.564,0.7519999742507935,-0.03153938264200687
85.65517200000001,,1.0491869105224877e-05,86.024,0.7739999890327454,0.015706779598353995
86.12069,,1.0181507153386525e-05,86.49,0.7509999871253967,-0.03492642489374123
86.586207,,9.821449584356115e-06,86.954,0.7739999890327454,0.014834237185672724
87.051724,,9.410833274751625e-06,87.419,0.7509999871253967,-0.035436033085961376
87.517241,,8.9489380147978e-06,87.887,0.7570000290870667,-0.022333331065015297
87.98275899999999,,8.435195246939982e-06,88.349,0.7839999794960022,0.036712893335502
88.448276,,7.869196641334692e-06,88.817,0.8109999895095825,0.09594698253797117
88.913793,,7.250702470608573e-06,89.279,0.7710000276565552,0.009388500162906955
89.37931,,6.579649745368663e-06,89.745,0.7590000033378601,-0.016009297042189348
89.844828,,5.856160071136416e-06,90.211,0.753000020980835,-0.028199595252707516
90.310345,,5.080547186672488e-06,90.676,0.7739999890327454,0.018543061056923528
90.775862,,4.253324143066177e-06,91.142,0.7699999809265137,0.010900410765678657
91.241379,,3.375210082489462e-06,91.608,0.7950000166893005,0.0664884978252239
91.706897,,2.44713657516768e-06,92.072,0.746999979019165,-0.03694857378263618
92.17241399999999,,1.4702534729036765e-06,92.537,0.7680000066757202,0.009922756298614615
92.63793100000001,,4.4593423741633585e-07,93.003,0.7710000276565552,0.017526240413060907
93.103448,,6.242192981760938e-07,93.469,0.7580000162124634,-0.009812711842833926
93.568966,,1.7383727761763553e-06,93.931,0.7699999809265137,0.017200642888737034
94.03448300000001,,2.894455810502308e-06,94.394,0.7720000147819519,0.022287649456161664
94.5,,4.0901591727837705e-06,94.865,0.7559999823570251,-0.012003461464980367
94.965517,,5.322932708182044e-06,95.327,0.8029999732971191,0.09078090613626649
95.431034,,6.589984019870515e-06,95.795,0.6949999928474426,-0.14431753781976894
95.896552,,7.88827796005629e-06,96.257,0.7730000019073486,0.025612320510675905
96.36206899999999,,9.21453696418358e-06,96.723,0.7609999775886536,-0.0007365494354214398
96.827586,,1.0565242263536228e-05,97.186,0.7739999890327454,0.02718747603029545
97.293103,,1.1936636009846367e-05,97.652,0.7559999823570251,-0.012608791325231131
97.758621,,1.332472434371649e-05,98.116,0.7689999938011169,0.014967637018305155
98.224138,,1.4725281436671248e-05,98.582,0.8460000157356262,0.1818356043849513
98.689655,,1.61338545344722e-05,99.049,0.7580000162124634,-0.010888038656651873
99.155172,,1.7545770026952668e-05,99.515,0.7739999890327454,0.02288133071871206
99.62069,,1.895614056706118e-05,99.976,0.7480000257492065,-0.03490822349182901
100.086207,,2.035987325904149e-05,100.442,0.7739999890327454,0.020569811767010275
100.551724,,2.175167893272622e-05,100.905,0.7760000228881836,0.02377369480880808
101.017241,,2.3126082517782482e-05,101.375,0.7549999952316284,-0.023083551851345887
101.482759,,2.4477434528423906e-05,101.836,0.7730000019073486,0.015107305257397657
101.948276,,2.5799923665598734e-05,102.306,0.7720000147819519,0.01201571183726073
102.413793,,2.708759053998229e-05,102.768,0.753000020980835,-0.030152091746411498
102.87931,,2.8334342515250005e-05,103.231,0.7720000147819519,0.010631480531296018
103.344828,,2.953396966709028e-05,103.697,0.777999997138977,0.02327464143182175
103.810345,,3.068016184924255e-05,104.163,0.753000020980835,-0.031424580778284916
104.275862,,3.17665268535223e-05,104.629,0.7739999890327454,0.014296852992578539
104.741379,,3.2786609646331194e-05,105.094,0.9430000185966492,0.3826665516171489
105.206897,,3.373391265955597e-05,105.56,0.7570000290870667,-0.0221776496021054
105.672414,,3.4601917109046166e-05,106.025,0.9369999766349792,0.37055878552548926
106.13793100000001,,3.538410530903824e-05,106.491,0.7710000276565552,0.009661021254265916
106.603448,,3.607398394597628e-05,106.95,0.7570000290870667,-0.019929697945046537
107.068966,,3.666510827017936e-05,107.416,0.7749999761581421,0.02031808837926621
107.534483,,3.7151107158737766e-05,107.883,0.7870000004768372,0.04758561927064904
108.0,,3.7525708997899694e-05,108.346,0.7710000276565552,0.013909144087850668
108.46551699999999,,3.7782768328052316e-05,108.809,0.7609999775886536,-0.00667358178082254
108.931034,,3.791629318922371e-05,109.279,0.7519999742507935,-0.02509264894117182
109.396552,,3.792047309985182e-05,109.745,0.7730000019073486,0.02179678227200933
109.862069,,3.778970759640254e-05,110.211,0.9259999990463257,0.3561859820780866
110.32758600000001,,3.751863525628952e-05,110.669,0.5809999704360962,-0.3945063228533952
110.793103,,3.7102163121473934e-05,111.135,0.7490000128746033,-0.027701008341975177
111.258621,,3.653549643512289e-05,111.601,0.7710000276565552,0.02084814906740977
111.724138,,3.581416859880216e-05,112.066,0.7710000276565552,0.02127901783652672
112.189655,,3.49340712528936e-05,112.531,0.7580000162124634,-0.006813345165224306
112.655172,,3.3891484378282436e-05,112.998,0.7730000019073486,0.025888565855603042
113.12069,,3.268310631287691e-05,113.463,0.7509999871253967,-0.022228208628784107
113.586207,,3.130608357222563e-05,113.924,0.7870000004768372,0.055813812172167764
114.051724,,2.975804035941015e-05,114.394,0.7730000019073486,0.024732809778967947
114.51724100000001,,2.803710764553466e-05,114.857,0.7559999823570251,-0.013057462044434465
114.982759,,2.614195169853555e-05,115.32,0.7739999890327454,0.025253837677700453
115.448276,,2.4071801934714272e-05,115.791,0.7699999809265137,0.01551107404296712
115.913793,,2.182647796438231e-05,116.253,0.7730000019073486,0.020926316434824746
116.37931,,1.9406415700320168e-05,116.719,0.7599999904632568,-0.008576023131802581
116.84482799999999,,1.6812692395417237e-05,117.182,0.5410000085830688,-0.4869082105915734
117.310345,,1.4047050473899458e-05,117.648,0.753000020980835,-0.02623875388032354
117.77586199999999,,1.1111920018990378e-05,118.113,0.7710000276565552,0.011817360127742428
118.241379,,8.010439778711124e-06,118.579,0.7990000247955322,0.07174514340937031
118.70689700000001,,4.746476550828196e-06,119.043,0.7710000276565552,0.009787471764253472
119.172414,,1.3246428077264764e-06,119.509,0.7490000128746033,-0.03895120138107273
119.63793100000001,,2.24968757776049e-06,119.976,0.7699999809265137,0.006162895653983494
120.103448,,5.970365643770243e-06,120.434,0.7739999890327454,0.014430900702665993
120.568966,,9.830455825002402e-06,120.902,0.746999979019165,-0.04463464909329134
121.034483,,1.3822226747572666e-05,121.364,0.753000020980835,-0.03159338128292625
121.5,,1.7937144465831755e-05,121.835,0.7630000114440918,-0.009625361875453674
121.96551699999999,,2.2165868270885348e-05,122.298,0.7760000228881836,0.019086285449049955
122.431034,,2.6498249196994805e-05,122.761,0.753000020980835,-0.030437278178177304
122.896552,,3.0923331347878966e-05,123.224,0.7730000019073486,0.013899308859290393
123.362069,,3.54293561601633e-05,123.689,0.7110000252723694,-0.12025893801329278
123.827586,,4.000376971582478e-05,124.154,0.7480000257492065,-0.038605711770592084
124.293103,,4.463323320945109e-05,124.621,0.7760000228881836,0.02353407012646276
124.758621,,4.930363666946547e-05,125.087,0.7580000162124634,-0.014482670119265522
125.22413800000001,,5.400011602515984e-05,125.552,0.7760000228881836,0.025957166837721195
125.68965500000002,,5.8707073603427226e-05,126.017,0.7739999890327454,0.02281222369375804
126.15517200000001,,6.340820213049028e-05,126.483,0.7919999957084656,0.06319235283829662
126.62069000000001,,6.80865123046889e-05,126.95,0.7699999809265137,0.01634317350787281
127.086207,,7.272436399652151e-05,127.409,0.7739999890327454,0.026022150008338102
127.55172400000001,,7.730350112163979e-05,127.879,0.7739999890327454,0.026839883849726163
128.017241,,8.180509022138513e-05,128.342,0.753000020980835,-0.018266082374982593
128.48275900000002,,8.62097627737401e-05,128.806,0.7760000228881836,0.0322959685461601
128.948276,,9.049766124526576e-05,129.276,0.777999997138977,0.036900187702720785
129.413793,,9.464848888172325e-05,129.734,0.7720000147819519,0.02386165224282446
129.87931,,9.864156322165778e-05,130.204,0.753000020980835,-0.017714976954212643
130.344828,,0.00010245587330327843,130.669,0.7739999890327454,0.027643355998569024
130.81034499999998,,0.00010607014052052517,131.135,0.7390000224113464,-0.04920209146575373
131.275862,,0.00010946288306930571,131.594,0.7519999742507935,-0.021655084351593787
131.741379,,0.00011261248390954068,132.061,0.7699999809265137,0.01662626669163513
132.206897,,0.00011549726215291374,132.527,0.7580000162124634,-0.010581862991660043
132.67241399999997,,0.00011809554777012104,132.992,0.5540000200271606,-0.4561924013864898
133.13793099999998,,0.00012038575949499365,133.457,0.7699999809265137,0.013159741096360443
133.60344800000001,,0.0001223464857861729,133.92,0.7480000257492065,-0.036034494285604145
134.06896600000002,,0.00012395656869009885,134.39,0.7739999890327454,0.019360962611039763
134.53448300000002,,0.00012519519043197646,134.85,0.7739999890327454,0.01816554527252118
135.0,,0.00012604196254416584,135.32,0.753000020980835,-0.02869038389868118
135.465517,,0.00012647701732415812,135.783,0.7739999890327454,0.016081731727872688
135.931034,,0.000126481101397006,136.246,0.7590000033378601,-0.017421957241760298
136.396552,,0.00012603567113983854,136.712,0.7720000147819519,0.010257739899347156
136.862069,,0.00012512298970896525,137.178,0.7360000014305115,-0.0686155807645901
137.327586,,0.00012372622539313485,137.643,0.7870000004768372,0.04226824028813199
137.793103,,0.00012182955099982185,138.109,0.7710000276565552,0.00740551904539655
138.258621,,0.00011941824396504452,138.575,0.7480000257492065,-0.042484549407006945
138.724138,,0.00011647878686123815,139.04,0.7490000128746033,-0.03987140673246974
139.189655,,0.00011299896796219467,139.505,0.7910000085830688,0.05226929799046604
139.655172,,0.00010896798150910767,139.965,0.6359999775886536,-0.2846017340075469
140.12069,,0.0001043765273074055,140.431,0.7509999871253967,-0.03308302150309758
140.586207,,9.921690927039402e-05,140.898,0.7639999985694885,-0.003660202812083126
141.05172399999998,,9.348313251284203e-05,141.36,0.7739999890327454,0.01932221445885353
141.51724099999998,,8.717099858560416e-05,141.828,0.7990000247955322,0.07504457490789587
141.982759,,8.027819843126975e-05,142.29,0.7739999890327454,0.021856539002866736
142.44827600000002,,7.280440263072838e-05,142.754,0.7559999823570251,-0.016098834909755003
142.913793,,6.475134850153414e-05,143.224,0.7480000257492065,-0.0323257740438767
143.37931,,5.612292360110938e-05,143.689,0.6200000047683716,-0.3100891710631191
143.844828,,4.6925245181231765e-05,144.154,0.7699999809265137,0.017677205394174108
144.310345,,3.7166735134973894e-05,144.62,0.777999997138977,0.035914186449513476
144.77586200000002,,2.6858189973385858e-05,145.079,0.753000020980835,-0.01792788763235999
145.241379,,1.6012845366802773e-05,145.545,0.7739999890327454,0.02824432297804622
145.706897,,4.64643478479194e-06,146.01,0.7730000019073486,0.02626995906280985
146.172414,,7.2227582305031045e-06,146.476,0.753000020980835,-0.017321774212847918
146.637931,,1.9573854620445843e-05,146.939,0.7620000243186951,0.0020438073571724825
147.103448,,3.238334165408433e-05,147.409,0.7590000033378601,-0.004951012626806819
147.568966,,4.5625042513135e-05,147.872,0.6079999804496765,-0.33459157359598946
148.034483,,5.9270094062676376e-05,148.335,0.7440000176429749,-0.03914838966146018
148.5,,7.32869332427435e-05,148.805,0.7549999952316284,-0.01619666041783271
148.965517,,8.764129250435088e-05,149.268,0.7730000019073486,0.02187992945683867
149.43103399999998,,0.0001022962046998166,149.734,0.75,-0.029458378237729104
149.89655199999999,,0.0001172120178215767,150.196,0.7519999742507935,-0.026383417969364532
150.362069,,0.00013234641996593728,150.662,0.7739999890327454,0.02025125467210099
150.82758600000003,,0.0001476544748783875,151.127,0.7450000047683716,-0.04419828894126251
151.293103,,0.00016308866841517302,151.593,0.7789999842643738,0.02867297553311439
151.758621,,0.0001785989662317938,152.057,0.7540000081062317,-0.026892602867303838
152.224138,,0.00019413288298293958,152.523,0.7699999809265137,0.007003640847665893
152.68965500000002,,0.00020963556329011565,152.988,0.7699999809265137,0.006208732425684754
153.155172,,0.00022504987470285044,153.454,0.753000020980835,-0.0314313799062471
153.62069,,0.00024031651284693562,153.917,0.7739999890327454,0.013927211591833001
154.086207,,0.000255374118918656,154.379,0.753000020980835,-0.03199484053336913
154.551724,,0.00027015940964745735,154.85,0.7710000276565552,0.007278173252721105
155.017241,,0.0002846073198110203,155.312,0.7490000128746033,-0.04036880242780125
155.482759,,0.00029865115734631315,155.776,0.7369999885559082,-0.06601259163645251
155.948276,,0.00031222277105794944,156.246,0.7910000085830688,0.05233617026074947
156.413793,,0.0003252527308811497,156.704,0.7739999890327454,0.01618236866369717
156.87931,,0.00033767052061088165,157.175,0.7730000019073486,0.01504190473670312
157.34482799999998,,0.0003494047429614267,157.634,0.7699999809265137,0.00966661788359018
157.81034499999998,,0.00036038333677179283,158.105,0.75,-0.032659313282504224
158.275862,,0.0003705338061221758,158.571,0.75,-0.03136522841232739
158.741379,,0.00037978346107518483,159.035,0.7570000290870667,-0.014813594241046635
159.20689700000003,,0.00038805966970292886,159.5,0.7760000228881836,0.02784920598342937
159.672414,,0.00039529012100744405,159.966,0.765999972820282,0.0072600648534473485
160.137931,,0.00040140309828748963,160.424,0.7720000147819519,0.02142161204196373
160.60344800000001,,0.0004063277624496023,160.894,0.7739999890327454,0.026726895904075985
161.06896600000002,,0.00040999444470565257,161.357,0.6970000267028809,-0.14025311510175711
161.534483,,0.0004123349480431698,161.82,0.7710000276565552,0.021545159876201894
162.0,,0.00041328285679858803,162.29,0.7580000162124634,-0.006413595958328792
162.465517,,0.0004127738536075039,162.754,0.7820000052452087,0.04601318876934631
162.931034,,0.00041074604295024246,163.216,0.75,-0.023793205352907305
163.396552,,0.0004071402804557093,163.681,0.7570000290870667,-0.008859028812101415
163.862069,,0.00040190050707188953,164.146,0.765999972820282,0.010214886514680945
164.327586,,0.00039497408715766344,164.611,0.7699999809265137,0.018195193151899047
164.793103,,0.0003863121494980842,165.076,0.7739999890327454,0.025997898609229363
165.258621,,0.00037586993019414526,165.542,0.753000020980835,-0.020815367387740976
165.72413799999998,,0.00036360711632860203,166.005,0.7699999809265137,0.01504229269271894
166.189655,,0.00034948818926185186,166.471,0.7480000257492065,-0.03414869879784249
166.655172,,0.0003334827663664818,166.935,0.7739999890327454,0.021192541883239362
167.12069,,0.0003155659399661185,167.404,0.7739999890327454,0.01988692058107229
167.58620699999997,,0.00029571861220392453,167.865,0.7519999742507935,-0.029310788143070737
168.051724,,0.00027392782452874057,168.335,0.7400000095367432,-0.05664565528405045
168.517241,,0.00025018708045274263,168.798,0.7760000228881836,0.020707405660587135
168.98275900000002,,0.00022449666020382789,169.261,0.7739999890327454,0.015418926245771855
169.44827600000002,,0.0001968639258690307,169.727,0.7490000128746033,-0.039802171067833354
169.913793,,0.0001673036156023574,170.189,0.781000018119812,0.029358924229752188
170.37931,,0.00013583812545177025,170.655,0.753000020980835,-0.03198221422199601
170.844828,,0.00010249777734590557,171.12,0.7549999952316284,-0.0277369949181949
171.310345,,6.732107177173394e-05,171.586,0.7889999747276306,0.046455794008327465
171.775862,,3.0354923670006567e-05,172.05,0.7739999890327454,0.014123203009382116
172.241379,,8.345119923809526e-06,172.516,0.7739999890327454,0.014688232472117237
172.706897,,4.871468195910924e-05,172.981,0.9810000061988831,0.46643791174958404
173.172414,,9.068037862426446e-05,173.446,0.7509999871253967,-0.03369827245319779
173.637931,,0.00013415966521138748,173.909,0.7739999890327454,0.017513846476602223
174.103448,,0.0001790607060038378,174.379,0.8489999771118164,0.18212927758540282
174.568966,,0.00022528226956839437,174.84,0.7450000047683716,-0.0431564836812642
175.034483,,0.0002727136507975753,175.309,0.7730000019073486,0.019173987296667593
175.5,,0.0003212346210045256,175.772,0.7490000128746033,-0.03179345893949864
175.96551699999998,,0.0003707154073228113,176.235,0.7680000066757202,0.010871632611757304
176.43103399999998,,0.0004210167026064677,176.701,0.7490000128746033,-0.029340902328327995
176.896552,,0.0004719897069623982,177.168,0.515999972820282,-0.5359148782136528
177.36206900000002,,0.0005234762019777835,177.634,0.7549999952316284,-0.014333737980149487
177.827586,,0.0005753086586280971,178.098,0.746999979019165,-0.031069020725475942
178.293103,,0.0006273103797652255,178.564,0.7720000147819519,0.023885029503618326
178.758621,,0.0006792956779918272,179.024,0.7559999823570251,-0.010705833336890961
179.224138,,0.0007310700896317536,179.49,0.7739999890327454,0.028549918439992883
179.68965500000002,,0.0007824306254069481,179.954,0.7739999890327454,0.028362216892978014
180.155172,,0.0008331660583198782,180.42,0.7739999890327454,0.027953515884367952
180.62069,,0.0008830572491106578,180.891,0.765999972820282,0.009907615193276232
181.086207,,0.0009318775095227942,181.353,0.753000020980835,-0.0192203780990119
181.551724,,0.0009793930034953714,181.821,0.753000020980835,-0.02019036977545832
182.01724099999998,,0.0010253631862951536,182.283,0.7609999775886536,-0.003865392929572146
182.482759,,0.001069541281454005,182.754,0.7580000162124634,-0.011604901846832156
182.948276,,0.0011116747951564125,183.209,0.7760000228881836,0.026345355869866475
183.413793,,0.001151506067520715,183.674,0.7730000019073486,0.018521839032967124
183.87931,,0.001188772860169086,184.146,0.7739999890327454,0.019430818279509897
184.34482799999998,,0.0012232089795033417,184.604,0.7699999809265137,0.009503391855903381
184.81034499999998,,0.001254544934857852,185.069,0.7580000162124634,-0.01775948720653029
185.27586200000002,,0.0012825086300868886,185.535,0.8270000219345093,0.131576752096382
185.74137900000002,,0.0013068260867785857,185.999,0.7580000162124634,-0.019580864801311524
186.206897,,0.0013272221978708329,186.465,0.7760000228881836,0.018987891872015536
186.672414,,0.0013434215112665476,186.935,0.7820000052452087,0.0316154623564536
187.137931,,0.001355149042104017,187.398,0.7749999761581421,0.01613665666505491
187.60344800000001,,0.001362131109494626,187.861,0.9319999814033508,0.35818156851501864
188.06896600000002,,0.0013640961928053602,188.331,0.7490000128746033,-0.04028746578924747
188.534483,,0.0013607758074205623,188.791,0.7720000147819519,0.010260569800411847
189.0,,0.001351905404901316,189.254,0.7580000162124634,-0.01960337082315384
189.465517,,0.0013372252960506912,189.719,0.777999997138977,0.024784513868108846
189.931034,,0.0013164815796385169,190.19,0.7509999871253967,-0.03307220712835206
190.39655199999999,,0.0012894270597670514,190.655,0.7749999761581421,0.02030345827204902
190.862069,,0.0012558221670592102,191.12,0.7739999890327454,0.019300600816162035
191.327586,,0.001215435923703283,191.586,0.7620000243186951,-0.005616032353468046
191.793103,,0.0011680469456486794,192.05,0.7570000290870667,-0.01526936458145673
192.25862099999998,,0.0011134443865251002,192.509,0.7519999742507935,-0.024948646086551517
192.72413799999998,,0.0010514287528748697,192.976,0.7739999890327454,0.02413292464826685
193.189655,,0.0009818127223819339,193.441,0.753000020980835,-0.020564891849772646
193.655172,,0.0009044222062728105,193.909,0.8420000076293945,0.17426054261110718
194.12069000000002,,0.0008190975686006213,194.372,0.7720000147819519,0.022526553863668985
194.586207,,0.0007256944277475434,194.835,0.753000020980835,-0.018274879953806708
195.051724,,0.000624083751921848,195.305,0.7409999966621399,-0.04402408728859563
195.517241,,0.0005141521909280233,195.769,0.7730000019073486,0.025877618414443356
195.98275900000002,,0.00039580397893284534,196.231,0.7440000176429749,-0.037332275465606635
196.448276,,0.0002689635256949424,196.697,0.7749999761581421,0.029964625376679377
196.913793,,0.0001335752380404415,197.162,0.7760000228881836,0.03169925750843475
197.37931,,1.0400381987092472e-05,197.627,0.7739999890327454,0.0267099758956548
197.844828,,0.0001629880216321427,198.094,0.7850000262260437,0.049875947545700905
198.310345,,0.0003241892154558542,198.559,0.7739999890327454,0.02496962473625012
198.775862,,0.0004939718331749617,199.025,0.7279999852180481,-0.07630272192563092
199.241379,,0.0006722777668247337,199.491,0.7919999957084656,0.06199517026577047
199.706897,,0.0008590497426779919,199.95,0.7689999938011169,0.010705708441010901
200.172414,,0.0010542361198204188,200.416,0.7509999871253967,-0.029698883606465106
200.63793099999998,,0.0012577389651780102,200.883,0.753000020980835,-0.026503267625674717
201.103448,,0.0014693623150264633,201.345,0.7580000162124634,-0.01670922904781163
201.568966,,0.0016888773996022856,201.809,0.7519999742507935,-0.030784201019457516
202.034483,,0.0019161809674480398,202.279,0.7739999890327454,0.016270082425409477
202.5,,0.0021512875575551947,202.745,0.7490000128746033,-0.03891849257877167
202.965517,,0.0023939980706645936,203.211,0.7710000276565552,0.00846455876058835
203.431034,,0.0026436517710423206,203.669,0.777999997138977,0.023359526315493352
203.896552,,0.0028996106518086187,204.136,0.7559999823570251,-0.024724123546284324
204.36206900000002,,0.0031621566484646394,204.602,0.7739999890327454,0.014543946929882628
204.827586,,0.0034322124574451395,205.068,0.7599999904632568,-0.01570153499576758
205.293103,,0.003709275241069764,205.534,0.7739999890327454,0.015249745885018599
205.758621,,0.003990343938706703,205.998,0.7739999890327454,0.01588011339081419
206.224138,,0.004273314124279206,206.464,0.7739999890327454,0.01667073690594359
206.689655,,0.004561893669896123,206.924,0.7739999890327454,0.017596567485434575
207.155172,,0.0048625453278878334,207.394,0.7580000162124634,-0.016230149767444694
207.62069,,0.005171942289690206,207.857,0.7760000228881836,0.024090408243532185
208.086207,,0.005473250885377991,208.32,0.753000020980835,-0.024874876721848224
208.551724,,0.005758962473982986,208.791,0.7480000257492065,-0.034621725774578116
209.01724099999998,,0.006056752663464574,209.253,0.7720000147819519,0.01877942817711037
209.482759,,0.006403163730638391,209.719,0.7739999890327454,0.02418414295510085
209.948276,,0.006769441514878362,210.182,0.7889999747276306,0.05781401040746554
210.413793,,0.007056495654503368,210.647,0.765999972820282,0.008529207552714944
210.87930999999998,,0.007243380647818865,211.113,0.777999997138977,0.035345897930949166
211.344828,,0.0075160943255228214,211.578,0.75,-0.02515537679565363
211.810345,,0.008064963305843735,212.043,0.7519999742507935,-0.020484744668631517
212.27586200000002,,0.008658106033473667,212.508,0.7820000052452087,0.04499188241292621
212.741379,,0.008718086990998328,212.976,1.0490000247955322,0.6266153778809381
213.206897,,0.008262416523474132,213.434,0.7609999775886536,-0.0010964371404480991
213.672414,,0.00850307747300804,213.902,0.7789999842643738,0.037676627760506204
214.137931,,0.010391467974138187,214.364,0.7739999890327454,0.026167852000207107
214.60344800000001,,0.012131969892579197,214.832,0.7710000276565552,0.018862725900126744
215.068966,,0.009748913661092165,215.294,0.7839999794960022,0.04628590179454976
215.534483,,0.0018818454921290639,215.761,0.7739999890327454,0.02349836830702551
216.0,,0.007146858686426487,216.224,0.7559999823570251,-0.01678991854212925
216.465517,,0.011474907226164852,216.69,0.7739999890327454,0.021314166718733256
216.93103399999998,,0.010341508475638686,217.154,0.7739999890327454,0.020198062677690434
217.39655199999999,,0.008354791143453708,217.62,0.7739999890327454,0.019112128130906573
217.862069,,0.00959281892970535,218.086,0.781000018119812,0.033340466040530516
218.327586,,0.013419621336230253,218.552,0.7919999957084656,0.05637879364011581
218.793103,,0.016128242872715835,219.017,0.7329999804496765,-0.07296497007696716
219.25862099999998,,0.015601881574671957,219.482,0.753000020980835,-0.03004902559895914
219.724138,,0.014047230648702454,219.955,0.7739999890327454,0.01521185683714166
220.18965500000002,,0.015823196599101384,220.413,0.7749999761581421,0.017082445880354024
220.65517200000002,,0.022143210067696362,220.876,0.753000020980835,-0.03096369026378643
221.12069,,0.02873981345583412,221.339,0.7739999890327454,0.014867104038731973
221.586207,,0.030016833226324955,221.809,0.7820000052452087,0.032568789715701485
222.051724,,0.025125639046313784,222.271,0.7730000019073486,0.013418728596364038
222.517241,,0.018661503045841733,222.737,0.7730000019073486,0.014047536482192119
222.98275900000002,,0.015420200829734432,223.2,0.7720000147819519,0.012649162343586937
223.448276,,0.01556074509236632,223.666,0.75,-0.034373963601454206
223.913793,,0.01524065516144148,224.131,0.7490000128746033,-0.03554724811350343
224.37931,,0.011420939661440426,224.597,0.7910000085830688,0.05702891588537404
224.844828,,0.005457248148766787,225.065,0.7739999890327454,0.021100579263176086
225.31034499999998,,0.0014634109100257087,225.53,0.75,-0.03007676900598684
225.775862,,0.0009882780084279927,225.995,0.593999981880188,-0.3688726532782087
226.241379,,0.00032042272100594646,226.46,0.7590000033378601,-0.00839487381669749
226.706897,,0.0055536219644366,226.924,0.7519999742507935,-0.02274500033119351
227.172414,,0.016611660571138775,227.386,0.7559999823570251,-0.013254367924663803
227.63793099999998,,0.02708929010801066,227.85,0.7749999761581421,0.028768485692950298
228.103448,,0.03152622484309145,228.32,0.7739999890327454,0.02705279118463684
228.56896600000002,,0.030094349931235234,228.783,0.7480000257492065,-0.029308706401241353
229.03448300000002,,0.02716150149140959,229.246,0.7739999890327454,0.02743087325180447
229.5,,0.025912264336777735,229.712,0.7549999952316284,-0.014059722874904918
229.965517,,0.02580794192485788,230.178,0.7739999890327454,0.027050541652978998
230.431034,,0.024690387653871784,230.644,0.6949999928474426,-0.14552686865449918
230.896552,,0.021661081591905558,231.109,0.7570000290870667,-0.011081856886991277
231.362069,,0.017513383003762054,231.575,0.7739999890327454,0.025177185788706567
231.827586,,0.01347586323009085,232.04,0.7789999842643738,0.035171721110080975
232.293103,,0.010259920314735025,232.505,0.7590000033378601,-0.009393061316843
232.758621,,0.00781620090107115,232.965,0.7739999890327454,0.022231582488171715
233.224138,,0.00550000911089554,233.431,0.7760000228881836,0.025503039890712367
233.689655,,0.0028162656137424536,233.894,0.7720000147819519,0.015704958221669115
234.155172,,0.0002258780739796063,234.364,0.753000020980835,-0.026737979717578384
234.62069,,0.0014231772971544294,234.824,0.7739999890327454,0.018031180518467523
235.086207,,0.0026555683789938216,235.294,0.7609999775886536,-0.011177591701285995
235.55172399999998,,0.0057844222318805105,235.754,0.75,-0.035906455662338285
236.01724099999998,,0.012722859175055468,236.223,0.7739999890327454,0.015762650789292107
236.482759,,0.02254073489657769,236.689,0.8569999933242798,0.19613821440927426
236.94827600000002,,0.031591964887704715,237.153,0.7739999890327454,0.015039541250853827
237.413793,,0.03597789769809795,237.619,0.7609999775886536,-0.013366134707535796
237.87931,,0.03407695904206109,238.084,0.7480000257492065,-0.041584343407928985
238.344828,,0.02745681853068862,238.55,0.7699999809265137,0.0066333723445030236
238.810345,,0.019754415709046264,239.01,0.7599999904632568,-0.014690909657231847
239.27586200000002,,0.014249155712507936,239.476,0.7739999890327454,0.016432934648603736
239.741379,,0.01193866670225037,239.939,0.7770000100135803,0.023733432656431224
240.206897,,0.01189364673487584,240.409,0.7509999871253967,-0.032028827885774616
240.672414,,0.013696307020188665,240.872,0.7950000166893005,0.06480554478570877
241.137931,,0.019290232617686035,241.335,0.7710000276565552,0.013553811101479072
241.603448,,0.03160737997257075,241.802,0.7749999761581421,0.023334666103096577
242.068966,,0.050774758851774134,242.264,0.7549999952316284,-0.01917444680315366
242.534483,,0.07181165488978927,242.73,0.7519999742507935,-0.024682145378641503
243.0,,0.08643289768378543,243.2,0.7599999904632568,-0.006291592061524335
243.465517,,0.08746365548782244,243.666,0.7990000247955322,0.07954215454534322
243.93103399999998,,0.0723407463229289,244.131,0.7689999938011169,0.014929002503725043
244.39655199999999,,0.04347758401355678,244.589,0.7730000019073486,0.024247361101079237
244.862069,,0.0056929584595400585,245.057,0.7609999775886536,-0.0014540475093627713
245.327586,,0.03676926546100378,245.522,0.777999997138977,0.03585099885393054
245.793103,,0.08029872247836857,245.987,0.753000020980835,-0.018529528538360512
246.258621,,0.11912280535906708,246.453,0.7749999761581421,0.0293015397471797
246.724138,,0.14471234425419488,246.914,0.75,-0.02544527410484106
247.18965500000002,,0.15078910948733923,247.383,0.7739999890327454,0.02638892561983564
247.655172,,0.13902357153285091,247.846,0.75,-0.026510632650827256
248.12069,,0.1178318454089802,248.316,0.7559999823570251,-0.014190860827600274
248.586207,,0.0951328610548958,248.78,0.7689999938011169,0.013262577967058016
249.051724,,0.07342149399343925,249.242,0.7730000019073486,0.02101854174440697
249.517241,,0.051470208782745205,249.708,0.7559999823570251,-0.017037430334045443
249.982759,,0.028732557735694345,250.172,0.7480000257492065,-0.035515300240349525
250.44827600000002,,0.007427384985113307,250.637,0.7839999794960022,0.04186931125907562
250.913793,,0.008481844044089807,251.101,0.7599999904632568,-0.011430232469094822
251.37931000000003,,0.016010354261954823,251.567,0.7720000147819519,0.013766992339941848
251.844828,,0.0159471790471516,252.032,0.7720000147819519,0.012914377200693057
252.31034499999998,,0.013155181646106469,252.498,0.7480000257492065,-0.04010629927666712
252.77586200000002,,0.012944322335574365,252.965,0.7480000257492065,-0.040698781459811456
253.241379,,0.016687143397941015,253.431,0.7239999771118164,-0.09342146251579825
253.706897,,0.02162693293992279,253.891,0.7549999952316284,-0.026148134491342297
254.172414,,0.024797295821505555,254.36,0.7739999890327454,0.015160420849300306
254.63793099999998,,0.025924651309241487,254.824,0.765999972820282,-0.002171942002489975
255.10344800000001,,0.026436235019956806,255.286,0.7760000228881836,0.019891259907850036
255.56896600000002,,0.027225704764219632,255.754,0.7820000052452087,0.033411166256058326
256.03448299999997,,0.02833934402508489,256.217,0.984000027179718,0.4741081815683212
256.5,,0.029861182069917606,256.682,0.7599999904632568,-0.013153179337623451
256.965517,,0.031834825209415135,257.147,0.7570000290870667,-0.018814809945001565
257.431034,,0.03343031128427607,257.612,0.7739999890327454,0.01918321974242978
257.896552,,0.033110456699964055,258.079,0.7559999823570251,-0.019014152488642595
258.362069,,0.030104446600460466,258.545,0.7739999890327454,0.02124560326717797
258.827586,,0.02560728120067724,259.009,0.7770000100135803,0.028819577363878097
259.29310300000003,,0.022236973720472352,259.475,0.7720000147819519,0.018926689127005736
259.758621,,0.02198659523337848,259.935,0.7739999890327454,0.02421587708776941
260.224138,,0.024431910140085878,260.405,0.7549999952316284,-0.01634376706973225
260.689655,,0.02692128088656787,260.868,0.7730000019073486,0.02358359116257917
261.155172,,0.026655753336690003,261.331,0.753000020980835,-0.019422318684630138
261.62068999999997,,0.02264947034581992,261.799,0.7450000047683716,-0.03644672114808425
262.086207,,0.01596482650003337,262.261,0.7739999890327454,0.026964607842489496
262.551724,,0.008805249749745041,262.727,0.7990000247955322,0.08148203356357524
263.017241,,0.0036440834667356477,263.189,0.7519999742507935,-0.02104329482044672
263.482759,,0.0021112725737115743,263.655,0.7739999890327454,0.026582123126029374
263.94827599999996,,0.003443426561821208,264.121,0.45100000500679016,-0.6775988086165469
264.413793,,0.004447807106193935,264.586,0.75,-0.026823024884966816
264.87931,,0.002454334092927272,265.05,0.75,-0.027600597451669102
265.34482799999995,,0.0015028646894064647,265.515,0.75,-0.028484796233701124
265.810345,,0.003594625576970253,265.98,0.765999972820282,0.005411256575895201
266.27586199999996,,0.0016322479786865104,266.445,0.7760000228881836,0.026188826325212113
266.741379,,0.002356541497484348,266.913,0.7799999713897705,0.033880079176630065
267.206897,,0.004371592351289022,267.376,0.753000020980835,-0.02594890693140311
267.672414,,0.0024262728904059197,267.839,0.765999972820282,0.001416109906601728
268.137931,,0.0020945145367698937,268.309,0.7549999952316284,-0.023428704419487745
268.603448,,0.006217170789274862,268.772,0.7739999890327454,0.017190659546548765
269.06896600000005,,0.007861314458841596,269.235,0.7480000257492065,-0.04010076799825895
269.53448299999997,,0.007025289006934479,269.7,0.7739999890327454,0.01604500595730473
270.0,,0.005255373258077102,270.165,0.7739999890327454,0.015708745829670318
270.465517,,0.004073367760109709,270.63,0.7710000276565552,0.009009316326038902
270.931034,,0.0037174154501905432,271.098,0.7739999890327454,0.01555827829306457
271.396552,,0.003383423547550981,271.564,0.7519999742507935,-0.03218416518514096
271.86206899999996,,0.002677984284837785,272.028,0.7710000276565552,0.009565526542036571
272.327586,,0.0024521173178721828,272.493,0.7570000290870667,-0.02042509157938266
272.793103,,0.003730818648840757,272.957,0.753000020980835,-0.02849120043265599
273.258621,,0.006037106438186772,273.423,0.777999997138977,0.026740432339723764
273.724138,,0.007632134194931857,273.891,0.7990000247955322,0.07335111747163905
274.18965499999996,,0.007667900880418772,274.353,0.7749999761581421,0.02198930037441144
274.655172,,0.007260857024228401,274.816,0.7580000162124634,-0.01408515126471712
275.12069,,0.007848673942012148,275.279,0.7609999775886536,-0.0065816080924155015
275.586207,,0.009171337935861903,275.745,0.7490000128746033,-0.03178327680502305
276.051724,,0.009742672098119114,276.211,0.7739999890327454,0.02357001341813486
276.517241,,0.008986586016768359,276.676,0.6710000038146973,-0.20002731163557214
276.98275900000004,,0.007940544149992408,277.142,0.7549999952316284,-0.01632729086943093
277.448276,,0.007740193550437562,277.608,0.7699999809265137,0.016916504835895883
277.913793,,0.008244324281222985,278.073,0.765999972820282,0.008621964671947063
278.37931,,0.008595903567669616,278.538,0.7480000257492065,-0.030329789294176228
278.844828,,0.00855841890894436,279.005,0.7680000066757202,0.013343268177987103
279.31034500000004,,0.008671038303068113,279.464,0.7699999809265137,0.017635471386613557
279.77586199999996,,0.009328876182285119,279.931,0.7730000019073486,0.023945046290258738
280.241379,,0.01026100260943041,280.394,0.753000020980835,-0.0200076491946439
280.706897,,0.010843704577754227,280.862,0.7570000290870667,-0.011813748412187332
281.172414,,0.010532622909181043,281.324,0.7739999890327454,0.024578923380560568
281.637931,,0.009118768323219997,281.794,0.7609999775886536,-0.004489873690743239
282.10344799999996,,0.0070563276022941315,282.257,0.7720000147819519,0.01865107116883728
282.568966,,0.005505630775958544,282.722,0.9110000133514404,0.32061016950474885
283.034483,,0.0053832473237285785,283.185,0.7630000114440918,-0.0027217356136586303
283.5,,0.00604407648443374,283.651,0.7739999890327454,0.020357928399732456
283.965517,,0.005540108031896329,284.117,0.7519999742507935,-0.028426895750653037
284.431034,,0.0028884476976478077,284.582,0.7739999890327454,0.01870576492831662
284.89655200000004,,0.000335530129442398,285.05,0.777999997138977,0.026704261346971486
285.362069,,0.001628087248530241,285.515,0.7699999809265137,0.00866235453692308
285.827586,,0.0007018719749686502,285.98,0.7710000276565552,0.01034978426500251
286.293103,,3.15157074084997e-05,286.446,0.753000020980835,-0.029222103401429004
286.758621,,0.001569548810076727,286.909,0.7720000147819519,0.011960816045027498
287.22413800000004,,0.0047833826905622975,287.372,0.753000020980835,-0.029494691429034194
287.689655,,0.006975856294860385,287.835,0.7699999809265137,0.0076319988362880875
288.155172,,0.0066574855268965215,288.305,0.7820000052452087,0.034013104804762474
288.62069,,0.0050262992032710395,288.769,0.7549999952316284,-0.024433838727385974
289.086207,,0.004633373204492933,289.231,0.7739999890327454,0.017463319437434052
289.55172400000004,,0.0068822060985917624,289.697,0.7519999742507935,-0.029854625967553658
290.01724099999996,,0.01074524544883845,290.165,0.7419999837875366,-0.050939586246303334
290.482759,,0.013654852513394052,290.631,0.7889999747276306,0.05222533764550965
290.948276,,0.013719786612159644,291.091,0.746999979019165,-0.03846598039064939
291.413793,,0.011264033099680588,291.557,0.765999972820282,0.003758106313958361
291.87931,,0.00810129945395099,292.024,0.7490000128746033,-0.032457347962119916
292.344828,,0.005387925916442975,292.49,0.8019999861717224,0.08379970514065364
292.81034500000004,,0.0028491390638747806,292.954,0.7820000052452087,0.040959922665395054
293.275862,,0.00027916981761061697,293.42,0.7039999961853027,-0.12832051097077374
293.74137900000005,,0.00136730607179005,293.88,0.7739999890327454,0.024738651789786487
294.206897,,0.0013001672870839153,294.35,0.7559999823570251,-0.014039273583430514
294.672414,,0.0003591383297847005,294.813,0.7730000019073486,0.02330802437111624
295.13793100000004,,0.00012090125004606423,295.276,0.7620000243186951,-0.00048283633137297804
295.603448,,0.0003037303985640444,295.741,0.746999979019165,-0.03312906883240698
296.068966,,0.001350677111149274,296.205,0.7570000290870667,-0.011449961471697244
296.534483,,0.003193191765744569,296.67,0.7749999761581421,0.02752192354843902
297.0,,0.004181234775442201,297.136,0.7720000147819519,0.020615634009018422
297.46551700000003,,0.003269339437663522,297.601,0.7490000128746033,-0.02997820191886866
297.931034,,0.0015892850258248281,298.068,0.7450000047683716,-0.03927728757171091
298.396552,,0.0010957501383039873,298.534,0.7599999904632568,-0.00726307118918513
298.862069,,0.0018874322583340574,298.998,0.7590000033378601,-0.01016651449708719
299.327586,,0.0016781997808062899,299.464,0.7590000033378601,-0.010927533561353828
299.79310300000003,,0.0014834748029696808,299.924,0.753000020980835,-0.024772912790068213
300.258621,,0.006235012189941174,300.394,0.7720000147819519,0.0158595342313823
300.724138,,0.008579884984695817,300.854,0.753000020980835,-0.02626131053588627
301.189655,,0.0060493869486332764,301.323,0.7739999890327454,0.018821289270941115
301.65517200000005,,0.0006584490170103609,301.787,0.7730000019073486,0.016051868586121103
302.12069,,0.0029598837984617194,302.249,0.7630000114440918,-0.006229478843568127
302.586207,,0.0022463735709411553,302.715,0.75,-0.03493707794091823
303.05172400000004,,0.0009601742850169472,303.186,0.75,-0.03520220983977362
303.517241,,0.002789828333759128,303.651,0.7609999775886536,-0.01137513949684216
303.982759,,0.001534949678990067,304.109,0.75,-0.03534776882420554
304.448276,,0.0008118373955964295,304.574,0.7820000052452087,0.03449148017801916
304.913793,,0.0010082891716419776,305.039,0.7739999890327454,0.017310658265738528
305.37931000000003,,0.001752928307191268,305.505,0.7599999904632568,-0.012824809953988775
305.844828,,0.004769397138239189,305.973,0.7429999709129333,-0.049392398795749706
306.310345,,0.0045602296977608325,306.439,0.7710000276565552,0.012167440432957958
306.775862,,0.0006601139373377688,306.902,0.7080000042915344,-0.1244604056449794
307.241379,,0.00358085536110538,307.364,0.7599999904632568,-0.010494851979806916
307.70689699999997,,0.004195696422883925,307.832,0.753000020980835,-0.025041429908654794
308.172414,,0.0004891142328307461,308.294,0.7870000004768372,0.04974399668647115
308.637931,,0.004381019291642832,308.765,0.7850000262260437,0.04608477729640552
309.103448,,0.006479157002463079,309.227,0.7739999890327454,0.022783147910775018
309.568966,,0.004506021359292638,309.693,0.7480000257492065,-0.03325363504892647
310.034483,,0.00037931777906095924,310.16,0.7519999742507935,-0.024006155427635574
310.5,,0.0030572948018704037,310.619,0.7570000290870667,-0.012670917964639651
310.96551700000003,,0.0045814969204665285,311.084,0.7570000290870667,-0.012332792826025053
311.431034,,0.004895012344343957,311.549,0.7739999890327454,0.02492939287396909
311.896552,,0.00480821462158516,312.016,0.7720000147819519,0.020679115317897623
312.362069,,0.003913033012692033,312.482,0.7739999890327454,0.025023044745871338
312.827586,,0.00160547075669869,312.948,0.7599999904632568,-0.005610427759739687
313.29310300000003,,0.001134767397078332,313.414,0.7739999890327454,0.024644056226653124
313.758621,,0.0022472295848871664,313.876,0.7730000019073486,0.02211342001880883
314.224138,,0.0011875303658667425,314.345,0.7570000290870667,-0.013190678358254295
314.689655,,6.87879771583326e-05,314.806,0.7480000257492065,-0.033324315561724785
315.155172,,0.0005938949979942043,315.269,0.7699999809265137,0.014016728461621285
315.62068999999997,,0.0027629412662099517,315.734,0.7699999809265137,0.013383608820046975
316.086207,,0.004138144584602267,316.205,0.7739999890327454,0.021441538967064192
316.551724,,0.0034947416094458232,316.67,0.7599999904632568,-0.009719431421727395
317.017241,,0.0021129924899628907,317.135,0.7490000128746033,-0.03432786606007702
317.482759,,0.0021915286144153904,317.601,0.7730000019073486,0.017352391041920667
317.94827599999996,,0.004426354171757795,318.066,0.7720000147819519,0.014621641727290757
318.413793,,0.007432050356344834,318.524,0.7739999890327454,0.01849897242151199
318.87931000000003,,0.009304277631564325,318.99,0.7480000257492065,-0.038539744693774344
319.344828,,0.009411892773046188,319.456,0.7739999890327454,0.0178081104015736
319.810345,,0.008575574331058036,319.92,0.7649999856948853,-0.0019910567124105036
320.275862,,0.0077294107211325945,320.39,0.7509999871253967,-0.032572939662932926
320.741379,,0.006790525513308855,320.854,0.7730000019073486,0.015388366780286274
321.20689699999997,,0.0051069177023939675,321.316,0.746999979019165,-0.041115620105279645
321.672414,,0.002868830568798408,321.784,0.75,-0.03433451902169788
322.137931,,0.0014545573029895226,322.246,0.753000020980835,-0.027458006372881844
322.603448,,0.0019315616903655241,322.712,0.7739999890327454,0.018718766472410768
323.068966,,0.0036168325448296167,323.178,0.753000020980835,-0.02653624287581567
323.53448299999997,,0.00476261406120033,323.644,0.7710000276565552,0.01323142312741329
324.0,,0.00446003341744386,324.109,0.765999972820282,0.002928158276197527
324.465517,,0.0032225626106199283,324.574,0.7519999742507935,-0.02696330488695146
324.931034,,0.001884023229736973,325.039,0.7509999871253967,-0.02853237063098332
325.396552,,0.0007416815113483936,325.505,0.7760000228881836,0.026524810951930388
325.86206899999996,,0.0001892094979049684,325.965,0.7549999952316284,-0.018672213224949198
326.327586,,0.0009701991022166883,326.431,0.7730000019073486,0.02104519088274462
326.793103,,0.0021685354864464206,326.899,0.7749999761581421,0.025836469068841756
327.258621,,0.004841770412852564,327.361,0.7739999890327454,0.024011784448884445
327.724138,,0.009619596986007927,327.824,0.7879999876022339,0.05477669387688808
328.189655,,0.016187616751714953,328.294,0.7549999952316284,-0.016952562357150695
328.655172,,0.023887812980993163,328.757,0.7739999890327454,0.02450522334494429
329.12068999999997,,0.032101348959385996,329.22,0.7580000162124634,-0.010393741313916512
329.586207,,0.03956689605597822,329.686,0.9020000100135803,0.3031914573879831
330.051724,,0.044200977035540996,330.153,0.7580000162124634,-0.010766550471442727
330.517241,,0.04460676564900636,330.619,0.7760000228881836,0.02812968520070229
330.982759,,0.0414600112938145,331.083,0.7739999890327454,0.023374089587850748
331.44827599999996,,0.03671393396530311,331.549,0.6840000152587891,-0.17317009896030464
331.913793,,0.031701585613900116,332.013,0.7620000243186951,-0.0037561507968511825
332.37931,,0.026451122007432295,332.478,0.7620000243186951,-0.004314190455095789
332.844828,,0.020362673346895992,332.939,0.753000020980835,-0.024498661468184645
333.310345,,0.012933632642159704,333.409,0.7749999761581421,0.02285435338936124
333.77586199999996,,0.004076037578676621,333.872,0.7490000128746033,-0.03435011068052661
334.241379,,0.005724502905977429,334.335,0.7739999890327454,0.01959107597690195
334.706897,,0.015302672063261111,334.805,0.7889999747276306,0.0517972904656329
335.17241399999995,,0.02255363820075943,335.268,0.7699999809265137,0.009996051956914075
335.637931,,0.02434813073570294,335.734,0.7509999871253967,-0.03172716117126533
336.103448,,0.01807745459307578,336.196,0.7680000066757202,0.005068046011388979
336.56896600000005,,0.004780598369007467,336.662,0.7580000162124634,-0.016866182010005507
337.034483,,0.009708673449473132,337.128,0.7549999952316284,-0.023451865917479726
337.5,,0.018317346622433228,337.593,0.7710000276565552,0.011455984263340834
337.965517,,0.017781051526607732,338.057,0.7519999742507935,-0.029791851924144675
338.431034,,0.00955564161470311,338.523,0.7739999890327454,0.018377264930393246
338.89655200000004,,0.003638211018410879,338.988,0.7720000147819519,0.014343577827084668
339.36206899999996,,0.020317696291008398,339.454,0.7580000162124634,-0.015759576818846963
339.827586,,0.038728968166776206,339.917,0.7710000276565552,0.01302216745365024
340.293103,,0.054729892114326543,340.379,0.7329999804496765,-0.06926101090696775
340.758621,,0.06351845425201952,340.85,0.7369999885559082,-0.06001147659659222
341.224138,,0.06377972261246517,341.313,0.7799999713897705,0.034218218064614524
341.68965499999996,,0.05886626560446953,341.776,0.7490000128746033,-0.032774954584082285
342.155172,,0.05354892122616162,342.239,0.7770000100135803,0.028752531845476353
342.62069,,0.050516083681096995,342.705,0.7409999966621399,-0.0491893897796458
343.086207,,0.049834643754750996,343.175,0.7730000019073486,0.020965930115487315
343.551724,,0.04986690323254987,343.634,0.7689999938011169,0.012626115479167761
344.01724099999996,,0.04773623569301786,344.099,0.7519999742507935,-0.024110972174864825
344.48275900000004,,0.040452445545987634,344.564,0.7620000243186951,-0.002108560377716113
344.948276,,0.027505081171143298,345.031,0.753000020980835,-0.021591099181535543
345.413793,,0.01248467253331423,345.497,0.7720000147819519,0.019834866156895
345.87931,,0.0011256089630704987,345.961,0.7710000276565552,0.017594274418406802
346.344828,,0.0031306828268443357,346.427,0.7639999985694885,0.0021906746058937008
346.81034500000004,,0.002134057637648285,346.894,0.7910000085830688,0.06077561584304164
347.275862,,0.0016102458864467022,347.357,0.7509999871253967,-0.026686733115709335
347.741379,,0.0061531771925170935,347.82,0.7739999890327454,0.023037679844645047
348.206897,,0.015144988717634849,348.29,0.7990000247955322,0.07706398225780532
348.672414,,0.023735822151340392,348.754,0.7820000052452087,0.039546209378989804
349.13793100000004,,0.027794648176505288,349.216,0.7490000128746033,-0.032856481373970896
349.60344799999996,,0.027459185397184872,349.682,0.7720000147819519,0.016733061791534033
350.068966,,0.02598816390374455,350.147,0.7799999713897705,0.03364695122665368
350.534483,,0.026077380313252567,350.613,0.7490000128746033,-0.034386263395179625
351.0,,0.027813512846707016,351.079,0.7870000004768372,0.04794194236267656
351.465517,,0.02964725390214067,351.545,0.7590000033378601,-0.013471730831877174
351.93103399999995,,0.030411382753586902,352.01,0.7609999775886536,-0.009465034285200107
352.396552,,0.030077151060719197,352.475,0.7720000147819519,0.014220756830184167
352.862069,,0.0291104414358857,352.936,0.7570000290870667,-0.018658905388797983
353.32758600000005,,0.02784160066167588,353.406,0.7080000042915344,-0.1255287800315438
353.793103,,0.02653622250402424,353.868,0.7739999890327454,0.018232294212910692
354.258621,,0.02550701421034903,354.331,0.7720000147819519,0.013933704998779009
354.72413800000004,,0.024727809171581808,354.799,0.7749999761581421,0.020615770094853336
355.189655,,0.023506545600710253,355.261,0.7400000095367432,-0.05540844878425424
355.655172,,0.021017798038208718,355.727,0.7680000066757202,0.005896425196985512
356.12069,,0.017414226790095,356.189,0.7739999890327454,0.019336303861781017
356.586207,,0.014197003986792238,356.656,0.8119999766349792,0.10254833478722032
357.05172400000004,,0.013061681606266966,357.121,0.7760000228881836,0.024583571850223248
357.517241,,0.014172302594723692,357.586,0.765999972820282,0.0032913404713344344
357.982759,,0.01566982720644735,358.054,0.7739999890327454,0.021226622946988533
358.448276,,0.015098309550054582,358.52,0.7549999952316284,-0.019665804121512625
358.913793,,0.011522260909293532,358.98,0.7720000147819519,0.01785334993326536
359.37931000000003,,0.006314843622280571,359.445,0.753000020980835,-0.023093545181362116
359.844828,,0.0017799812767892182,359.914,0.7549999952316284,-0.01833750715913828
360.310345,,0.0010163204835567812,360.376,0.777999997138977,0.03210967283905457
360.775862,,0.002925925557732841,360.839,0.7369999885559082,-0.05694729810022575
361.241379,,0.00531275523032119,361.309,0.7739999890327454,0.02385146051319266
361.706897,,0.008368541029403044,361.772,0.7590000033378601,-0.008723578183172423
362.172414,,0.011080215936351799,362.235,0.7739999890327454,0.02397427807537842
362.63793100000004,,0.012531910807116499,362.7,0.7490000128746033,-0.030560660283709806
363.103448,,0.012694618862367831,363.168,0.7580000162124634,-0.011106496509978471
363.568966,,0.011995765619334495,363.634,0.8159999847412109,0.11502250401899702
364.034483,,0.010779842367924907,364.098,0.7860000133514404,0.049360835740823776
364.5,,0.009496259625640909,364.564,0.7870000004768372,0.051177018557941316
364.96551700000003,,0.00889773203725687,365.024,0.7559999823570251,-0.016773628558667958
365.431034,,0.009478349507973985,365.49,0.7739999890327454,0.021991448863235542
365.896552,,0.010820408415392557,365.955,0.7739999890327454,0.021516597974079954
366.362069,,0.011941292444200478,366.42,0.75,-0.03125563878950614
366.827586,,0.012364615279429935,366.891,0.800000011920929,0.0771971443571095
367.29310300000003,,0.012483042160363117,367.353,0.753000020980835,-0.02565897263127412
367.758621,,0.012594525599791415,367.821,0.7580000162124634,-0.015192109816602836
368.224138,,0.011926824984960772,368.283,0.7710000276565552,0.01274963128354087
368.689655,,0.009356385481276807,368.754,0.7699999809265137,0.01024780490323807
369.155172,,0.005279379439431099,369.209,0.7739999890327454,0.01870692849874364
369.62068999999997,,0.00203461900761334,369.674,0.7739999890327454,0.018526719022146833
370.086207,,0.001809925749910241,370.139,0.7739999890327454,0.018427111453074657
370.55172400000004,,0.0043681065997389695,370.605,0.75,-0.033877131171055216
371.017241,,0.0072872280338647805,371.069,0.753000020980835,-0.027275496513908735
371.482759,,0.008282808247129774,371.535,0.777999997138977,0.02733654876760543
371.948276,,0.007051721074996974,372.002,0.8339999914169312,0.14956437878668324
372.413793,,0.005124861635087793,372.468,0.7749999761581421,0.021319576332074486
372.87931000000003,,0.004198419838950357,372.931,0.7490000128746033,-0.03496855347108162
373.344828,,0.004442937582295988,373.394,0.7400000095367432,-0.05417197329766719
373.810345,,0.004326620339121374,373.862,0.7680000066757202,0.007269577144607019
374.275862,,0.0022610867009856244,374.325,0.753000020980835,-0.024948694745085997
374.741379,,0.0015435220169681325,374.795,0.7480000257492065,-0.03537264967945266
375.20689699999997,,0.0050059931091880495,375.258,0.7739999890327454,0.02173505584498807
375.672414,,0.006064990270997274,375.724,0.7020000219345093,-0.13468552082712124
376.137931,,0.0046929079429664285,376.186,0.8199999928474426,0.12280306885207481
376.603448,,0.0029122133593730126,376.652,0.7699999809265137,0.01423456837619839
377.068966,,0.002624104085119362,377.116,0.7699999809265137,0.014544055652951957
377.53448299999997,,0.0035588888864934087,377.582,0.7480000257492065,-0.03314161996463381
378.0,,0.0036911617750178833,378.05,0.7409999966621399,-0.048220784865043075
378.465517,,0.0015905187299186784,378.515,0.7599999904632568,-0.00673327997421744
378.931034,,0.002068643954526302,378.979,0.7519999742507935,-0.024149614950942755
379.396552,,0.0054519487640752465,379.445,0.7720000147819519,0.019356491295878953
379.862069,,0.007577196569145068,379.906,0.7570000290870667,-0.013467310667552787
380.327586,,0.008834861258193103,380.376,0.7570000290870667,-0.013683990132953596
380.79310300000003,,0.009528083717441068,380.839,0.7739999890327454,0.023070631761436974
381.258621,,0.0086750739830109,381.302,0.75,-0.029555868253598565
381.724138,,0.0049877178004305005,381.769,0.7720000147819519,0.0179892306780007
382.189655,,0.001171473471244585,382.231,0.746999979019165,-0.036896809271573634
382.655172,,0.007466564611052218,382.697,0.7730000019073486,0.01930667717880156
383.12068999999997,,0.011255348041327365,383.164,0.7599999904632568,-0.009465247064428601
383.586207,,0.011370093724593928,383.63,0.7440000176429749,-0.044767740891457374
384.051724,,0.008829089035688086,384.094,0.7710000276565552,0.013629990290961898
384.517241,,0.006518076784802862,384.56,0.7739999890327454,0.01977192671338481
384.982759,,0.007581278496584479,385.024,0.753000020980835,-0.02632969824019021
385.44827599999996,,0.012776875633532426,385.49,0.7609999775886536,-0.009197017723996252
385.913793,,0.019216283948579178,385.951,0.7509999871253967,-0.031217859841235197
386.37931,,0.022632188972391134,386.416,0.7580000162124634,-0.01613288426592869
386.84482799999995,,0.02115542708267613,386.879,0.6069999933242798,-0.3452039136592413
387.310345,,0.01628643491537807,387.349,0.7739999890327454,0.018606490401804923
387.775862,,0.010332415069662164,387.813,0.7549999952316284,-0.022737196293614415
388.241379,,0.003962961133560653,388.276,0.765999972820282,0.0013542511036480195
388.70689699999997,,0.003406468278664398,388.741,0.7680000066757202,0.005909954568610392
389.172414,,0.01169980913687884,389.205,0.7390000224113464,-0.057006818275623816
389.637931,,0.01932979913653513,389.671,0.7760000228881836,0.02392454321962026
390.103448,,0.024122814010329893,390.138,0.7480000257492065,-0.036708399549044424
390.56896600000005,,0.024886635841113447,390.604,0.7739999890327454,0.020342457109576176
391.03448299999997,,0.02209345717750736,391.069,0.7739999890327454,0.020773473330578808
391.5,,0.017083030297552957,391.535,0.75,-0.031071160051683065
391.965517,,0.010955718054174779,391.994,0.7689999938011169,0.010763985490192
392.431034,,0.00473364070966264,392.46,0.7630000114440918,-0.001882405606170494
392.896552,,0.0001241813831080014,392.928,0.7739999890327454,0.0224801857077258
393.36206899999996,,0.0012825809883717381,393.391,0.753000020980835,-0.022914052575397175
393.827586,,3.34929514435769e-05,393.854,0.7649999856948853,0.0035355567705281344
394.293103,,0.001152205906746713,394.324,0.7839999794960022,0.04517541129173004
394.75862099999995,,0.0002609006869465196,394.787,0.75,-0.02872067076638489
395.224138,,0.0018974508155372655,395.249,0.7630000114440918,-0.0002940018037934828
395.68965499999996,,0.0033520426927506042,395.715,0.7680000066757202,0.010626395148397466
396.155172,,0.0038838474794884227,396.179,0.7739999890327454,0.023648015579170515
396.62069,,0.0048748957087259995,396.645,0.75,-0.028765858420317716
397.086207,,0.006706137089539946,397.109,0.777999997138977,0.03203741631077428
397.551724,,0.007984641740780446,397.574,0.7480000257492065,-0.03358746627517285
398.017241,,0.0076178762812566655,398.039,0.7480000257492065,-0.03391209307292828
398.48275900000004,,0.006325492838865981,398.505,0.7699999809265137,0.013643994183463662
398.94827599999996,,0.00550663059449826,398.972,0.9259999990463257,0.35310485029850214
399.413793,,0.005476708613239599,399.438,0.7739999890327454,0.021523049684464737
399.87931,,0.005417711801249139,399.9,0.7689999938011169,0.010193964826726578
400.344828,,0.00455460931914919,400.369,0.7950000166893005,0.06640466603641354
400.810345,,0.0029253248635172867,400.832,0.7739999890327454,0.020233713751636323
401.27586199999996,,0.001234968442901205,401.294,0.753000020980835,-0.025910415751664695
401.741379,,0.00012320602076354857,401.765,0.7239999771118164,-0.08944729269619725
402.206897,,0.00053326248989004,402.227,0.7760000228881836,0.02353333924697892
402.672414,,0.0013350621928817704,402.693,0.7760000228881836,0.02328154978882655
403.137931,,0.0020963602579573974,403.16,0.7739999890327454,0.018738406185802747
403.60344799999996,,0.0015063851064022454,403.619,0.7739999890327454,0.01862426857183352
404.068966,,0.0010615626874217853,404.091,0.753000020980835,-0.027166664808302824
404.534483,,0.0038254709070366733,404.549,0.7490000128746033,-0.03584538508961801
405.0,,0.003938225686052474,405.016,0.7440000176429749,-0.04662894943946888
405.465517,,0.0007787226359233751,405.482,0.753000020980835,-0.026840743283644306
405.931034,,0.0030024802745207114,405.954,0.7760000228881836,0.023514844057248838
406.39655200000004,,0.004160337211743398,406.412,0.7730000019073486,0.017285743790210136
406.862069,,0.002072726321244501,406.876,0.7570000290870667,-0.017214275087222
407.327586,,0.0010715449776515322,407.346,0.6700000166893005,-0.2063597485759961
407.793103,,0.0028714761327330494,407.809,0.7649999856948853,0.0010343111447222763
408.258621,,0.002890860752177303,408.272,0.7400000095367432,-0.0529947818983157
408.72413800000004,,0.002217138367325185,408.737,0.7730000019073486,0.019341149046559113
409.18965499999996,,0.0015126670590906112,409.201,0.9850000143051147,0.4816506886839179
409.655172,,0.00027884895600755545,409.666,0.7570000290870667,-0.014658679372929754
410.12069,,0.001889665019904933,410.131,0.7590000033378601,-0.009909390312772711
410.586207,,0.004100810392644321,410.597,0.7739999890327454,0.02311578373596179
411.05172400000004,,0.004854082097103244,411.064,0.7749999761581421,0.025583129386205924
411.51724099999996,,0.0037379700995816985,411.53,0.7480000257492065,-0.03301764808001248
411.982759,,0.0019411477400487786,411.99,0.7739999890327454,0.023775986516192015
412.448276,,0.0009879992319235759,412.456,0.7509999871253967,-0.026262922660995613
412.913793,,0.001247720623435066,412.924,0.7519999742507935,-0.024096112704287572
413.37931,,0.0018824614165680424,413.386,0.7609999775886536,-0.004582336055669937
413.844828,,0.0020781887050124797,413.854,0.722000002861023,-0.08972399600892186
414.31034500000004,,0.0019384825653370836,414.316,0.7720000147819519,0.01895822036820073
414.775862,,0.002032004321029261,414.784,0.7739999890327454,0.022997663225122644
415.241379,,0.0023391144782754967,415.247,0.7559999823570251,-0.016593420528580198
415.706897,,0.0020576441822128615,415.712,0.7820000052452087,0.0396294561115873
416.172414,,0.0006276646853244385,416.178,0.7749999761581421,0.02392316231303261
416.63793100000004,,0.001241461029920085,416.644,0.753000020980835,-0.024482922665018666
417.103448,,0.0018662991133807207,417.109,0.7599999904632568,-0.009715096205838703
417.568966,,1.3064876719642436e-06,417.575,0.7739999890327454,0.020311278330350086
418.034483,,0.004050599440309662,418.04,0.781000018119812,0.0351103304184641
418.5,,0.008515262297509239,418.506,0.7609999775886536,-0.00887719510180704
418.96551700000003,,0.01133851646350515,418.965,0.7739999890327454,0.01908028225788
419.43103399999995,,0.011596745613669043,419.431,0.7559999823570251,-0.020439863331823245
419.896552,,0.01012088790551387,419.894,0.7580000162124634,-0.01631725086935948
420.362069,,0.0086534596370366,420.364,0.7590000033378601,-0.014296455474882706
420.827586,,0.008262339509393615,420.825,0.7519999742507935,-0.0296227857799987
421.293103,,0.008599682785529118,421.294,0.7699999809265137,0.009602180613005853
421.758621,,0.00850398711743205,421.757,0.7580000162124634,-0.016446711922973183
422.22413800000004,,0.006960909219824895,422.22,0.7749999761581421,0.020768487677531273
422.689655,,0.0036973966495461785,422.686,0.625,-0.30577442894146395
423.15517200000005,,0.0004495836777864403,423.151,0.746999979019165,-0.03965882453939275
423.62069,,0.003715400933091791,423.616,0.7549999952316284,-0.02185024665530215
424.086207,,0.004806103613380785,424.083,0.7609999775886536,-0.008348220443909163
424.55172400000004,,0.004494039414073827,424.549,0.7699999809265137,0.01172878208276774
425.017241,,0.00511478815490741,425.013,0.7559999823570251,-0.01827764895603419
425.482759,,0.007864483843541836,425.478,0.7739999890327454,0.021443622191625225
425.948276,,0.01105729857741884,425.939,0.7739999890327454,0.02194547451833619
426.413793,,0.011875289056656522,426.409,0.7519999742507935,-0.025501877020034987
426.87931000000003,,0.009786512425618498,426.872,0.7720000147819519,0.018520133579981998
427.344828,,0.007392183098758991,427.335,0.7599999904632568,-0.007222498565668051
427.810345,,0.007488233840255086,427.802,0.6370000243186951,-0.27485767735061956
428.275862,,0.009887169853914956,428.264,0.7570000290870667,-0.013157018092934855
428.741379,,0.011887591822021587,428.73,0.7760000228881836,0.028418359914029388
429.20689699999997,,0.01165836074659492,429.2,0.7590000033378601,-0.008522640106456262
429.672414,,0.010086614957025496,429.659,0.7990000247955322,0.07863149202857068
430.137931,,0.00880274519414114,430.127,0.7630000114440918,0.00011985239562826034
430.603448,,0.007437602296751456,430.593,0.6660000085830688,-0.21137844382438092
431.068966,,0.0042451772436425785,431.059,0.7739999890327454,0.02365934601552354
431.534483,,0.000619762504935418,431.525,0.7680000066757202,0.010253444884466167
432.0,,0.003759788226977069,431.984,0.753000020980835,-0.0228270467837113
432.46551700000003,,0.0013596361600449072,432.45,0.777999997138977,0.03118295319866103
432.931034,,0.006739359975432455,432.92,0.7490000128746033,-0.03249602868109722
433.396552,,0.01619764863984171,433.383,0.7749999761581421,0.02362304883529896
433.862069,,0.02170213305187539,433.846,0.9150000214576721,0.3280993407268232
434.327586,,0.021500547003990927,434.316,0.7570000290870667,-0.01665235255999348
434.79310300000003,,0.018425009876907397,434.776,0.7720000147819519,0.015524216213685892
435.258621,,0.016430819473411875,435.246,0.7549999952316284,-0.021981921746176053
435.724138,,0.016439741610767517,435.704,0.8309999704360962,0.14317534308462948
436.189655,,0.015842616841098892,436.176,0.7749999761581421,0.020814000180070857
436.655172,,0.011680686851041443,436.634,0.7879999876022339,0.04885274313192698
437.12068999999997,,0.003631106424415497,437.101,0.7860000133514404,0.044293007582671344
437.586207,,0.00613270759680943,437.567,0.7739999890327454,0.01803404216085772
438.051724,,0.015301341301421502,438.032,0.7710000276565552,0.011473549680051764
438.517241,,0.02315593538577978,438.497,0.7570000290870667,-0.018961227522892237
438.982759,,0.030167865009610603,438.965,0.7480000257492065,-0.03841415890804865
439.448276,,0.036358790324325985,439.431,0.7739999890327454,0.018469932587029118
439.913793,,0.04036154807190795,439.891,0.7570000290870667,-0.01824942440548389
440.37931000000003,,0.04030802543465199,440.36,0.7720000147819519,0.014817469551554219
440.844828,,0.03575731535397194,440.821,0.9039999842643738,0.302847699917687
441.310345,,0.02847741379458488,441.29,0.7590000033378601,-0.012556688049599246
441.775862,,0.02087943458254574,441.754,0.7699999809265137,0.011941988571075434
442.241379,,0.013961453314259794,442.216,0.746999979019165,-0.03761782478529826
442.70689699999997,,0.007705109888383002,442.682,0.7689999938011169,0.010860805830900518
443.172414,,0.003265096966524392,443.146,0.75,-0.030002083668007502
443.637931,,0.00283351191989934,443.611,0.753000020980835,-0.022967431762296927
444.103448,,0.006196465483177897,444.076,0.8410000205039978,0.1692062708597197
444.568966,,0.008944872414592332,444.542,0.7699999809265137,0.01491715740922733
445.03448299999997,,0.006189749304972512,445.006,0.7730000019073486,0.021777896813992986
445.5,,0.002085893830319311,445.472,0.7559999823570251,-0.015016185565557384
445.965517,,0.010860901525972116,445.935,0.7739999890327454,0.02435299147957141
446.431034,,0.015387258078646151,446.405,0.753000020980835,-0.021339569476461547
446.896552,,0.015426665579648795,446.865,0.7609999775886536,-0.003948377552644199
447.36206899999996,,0.01391055226314918,447.335,0.7760000228881836,0.028597556735499036
447.827586,,0.01283637868924404,447.798,0.7559999823570251,-0.01520150204043711
448.29310300000003,,0.011717704686806244,448.261,0.7670000195503235,0.008451702752192609
448.758621,,0.009510939180332278,448.726,0.777999997138977,0.03202787563918716
449.224138,,0.006657868053121128,449.189,0.7480000257492065,-0.03378610749424461
449.689655,,0.004665909979901005,449.654,0.7730000019073486,0.020172590937478908
450.155172,,0.004164226018646043,450.12,0.7609999775886536,-0.006516680069791382
450.62068999999997,,0.004076590944073012,450.586,0.753000020980835,-0.024513274440180245
451.086207,,0.002891140606765452,451.05,0.7559999823570251,-0.018550697996797788
451.551724,,0.0002632154023730372,451.516,0.7739999890327454,0.02010323223174118
452.017241,,0.0030084116109249733,451.983,0.7739999890327454,0.019570462367194848
452.482759,,0.00600487750497779,452.449,0.7710000276565552,0.01254706976553267
452.94827599999996,,0.007877056029298545,452.909,0.777999997138977,0.027369947702163517
453.413793,,0.007525767665872149,453.379,0.75,-0.033987276719969865
453.87931,,0.00447899371262221,453.84,0.7770000100135803,0.024564192603822647
454.344828,,0.0002482233429488852,454.31,0.7710000276565552,0.0113120193863238
454.810345,,0.0025084775463141574,454.773,0.7490000128746033,-0.03670124693841287
455.27586199999996,,0.0028369582314527494,455.234,0.7580000162124634,-0.017076882516733387
455.741379,,0.0025945445213763235,455.701,0.7739999890327454,0.01789759565786034
456.206897,,0.004015243704361715,456.168,0.7739999890327454,0.018111149121646422
456.672414,,0.0069317682046908784,456.634,0.7480000257492065,-0.038228791715935115
457.137931,,0.00921022979626018,457.094,0.7770000100135803,0.02533908412973437
457.603448,,0.009306364699703109,457.56,0.7739999890327454,0.01926180962365378
458.06896600000005,,0.007476150913588236,458.024,0.7739999890327454,0.01977927928860915
458.53448299999997,,0.004931122300095457,458.49,0.8379999995231628,0.1597750667223385
459.0,,0.002882542308749419,458.955,0.7889999747276306,0.05361302794215759
459.465517,,0.0023254271475061177,459.42,0.7720000147819519,0.01717890860678055
459.931034,,0.0036922675841016134,459.89,0.7739999890327454,0.022130337866127996
460.39655200000004,,0.006238771551537609,460.353,0.640999972820282,-0.2670651979675789
460.86206899999996,,0.0082699251871723,460.816,0.765999972820282,0.005781773866987149
461.327586,,0.008468584537358556,461.279,0.7739999890327454,0.023664567441437964
461.793103,,0.006853145053925156,461.746,0.75,-0.028243175888642967
462.258621,,0.00415036764747106,462.21,0.7739999890327454,0.024338621952338782
462.724138,,0.0006651169363010752,462.676,0.8029999732971191,0.08772006238716142
463.18965499999996,,0.003358023691997123,463.143,0.7739999890327454,0.024641037879219122
463.655172,,0.00636623029982486,463.609,0.7699999809265137,0.01592529629526848
464.12069,,0.005954807111422087,464.069,0.7760000228881836,0.028892299137325335
464.58620699999994,,0.0016962705983987955,464.534,0.7739999890327454,0.024328894826782747
465.051724,,0.003418748315945684,464.999,0.843999981880188,0.17653429178514762
465.517241,,0.005914358294067257,465.465,0.7490000128746033,-0.030822080351307325
465.98275900000004,,0.00614325712770223,465.935,0.7480000257492065,-0.03346149271686756
466.448276,,0.00837323530376746,466.397,0.7519999742507935,-0.02527229614674855
466.913793,,0.01627903840979037,466.865,0.7519999742507935,-0.025846647202447243
467.37931,,0.029324032893059866,467.327,0.7739999890327454,0.021477628502831844
467.844828,,0.0436668949893911,467.795,0.7820000052452087,0.038288049248060826
468.31034500000004,,0.05513114461568173,468.257,0.7739999890327454,0.020246223756107438
468.77586199999996,,0.06053031434866088,468.722,0.753000020980835,-0.026093954001082772
469.241379,,0.05747533145083874,469.185,0.7749999761581421,0.021288766919859977
469.706897,,0.04471425355650442,469.651,0.7710000276565552,0.012084886124934524
470.172414,,0.023227694942466178,470.117,0.7739999890327454,0.018204660427505237
470.63793100000004,,0.0031919789388642913,470.583,0.7710000276565552,0.01133879870565406
471.10344799999996,,0.028642835145505367,471.049,0.7649999856948853,-0.001966970659627847
471.568966,,0.04709820969071166,471.515,0.7730000019073486,0.015332032549801734
472.034483,,0.05506757330084573,471.98,0.7739999890327454,0.01748860956597793
472.5,,0.053334626376203724,472.445,0.753000020980835,-0.02817581415895043
472.965517,,0.046235027685907724,472.909,0.7730000019073486,0.015591018086234597
473.43103399999995,,0.038963589892967984,473.372,0.8500000238418579,0.18364425359810765
473.89655200000004,,0.03499155193427319,473.835,0.6209999918937683,-0.3148754007926623
474.362069,,0.035068456609719086,474.305,0.7720000147819519,0.014570133379115831
474.827586,,0.038033764474052704,474.766,0.7480000257492065,-0.037182225265717954
475.293103,,0.0426894288727837,475.236,0.7490000128746033,-0.03441618268466245
475.758621,,0.048816014018369616,475.694,0.7549999952316284,-0.02072206461795337
476.22413800000004,,0.05579854365818418,476.161,0.7739999890327454,0.021311765373273853
476.689655,,0.06054203690300067,476.626,0.7519999742507935,-0.025980186350769666
477.155172,,0.05837381792756521,477.09,0.6869999766349792,-0.1669757273985584
477.62069,,0.047296851512684736,477.556,0.7549999952316284,-0.018252473213738928
478.086207,,0.030933890650045585,478.021,0.7760000228881836,0.028017312629151837
478.55172400000004,,0.016050208889022803,478.487,0.7689999938011169,0.013214257099170587
479.01724099999996,,0.00672799519492855,478.953,0.7739999890327454,0.02447120376866171
479.482759,,0.0013534522559610989,479.419,0.7559999823570251,-0.014476080140606805
479.948276,,0.004592351971359996,479.88,0.7749999761581421,0.02708268194265332
480.413793,,0.013397542690030797,480.349,0.75,-0.027328592779694114
480.87931000000003,,0.02315630562290454,480.813,0.7710000276565552,0.018365997328753988
481.344828,,0.03030805285845572,481.275,0.75,-0.02755389059204088
481.810345,,0.03312344930551527,481.741,0.753000020980835,-0.02129324544591616
482.275862,,0.03254566630466494,482.205,0.7570000290870667,-0.012953874076937339
482.74137900000005,,0.03053704846198443,482.671,0.7739999890327454,0.023618932407695623
483.206897,,0.02838302073093037,483.135,0.7699999809265137,0.014365068467474483
483.672414,,0.026337788751065537,483.601,0.7519999742507935,-0.025449717081876894
484.13793100000004,,0.02423922808999108,484.066,0.7429999709129333,-0.04570011322069655
484.603448,,0.02223412725015787,484.531,0.7620000243186951,-0.004973287822901894
485.068966,,0.020904740573710088,484.998,0.7549999952316284,-0.020896608712708598
485.534483,,0.02060572917255356,485.464,0.7749999761581421,0.022018874846400582
486.0,,0.020857795617155794,485.928,0.7590000033378601,-0.013461794454205357
486.46551700000003,,0.020771513644078584,486.39,0.7739999890327454,0.01864937166891686
486.931034,,0.019938108424995098,486.854,0.753000020980835,-0.02759992441000416
487.396552,,0.018433478788382116,487.323,0.7620000243186951,-0.008404182992791666
487.862069,,0.01622091939262489,487.784,0.7739999890327454,0.017425929299601028
488.327586,,0.013436952040248985,488.254,0.7519999742507935,-0.030709392734886955
488.79310300000003,,0.011173242779796939,488.719,0.7739999890327454,0.017131049831514485
489.258621,,0.010694311802288086,489.182,0.7490000128746033,-0.03730656479428353
489.724138,,0.011433662228655937,489.648,0.7739999890327454,0.017306435570218156
490.189655,,0.011030199728971646,490.113,0.7749999761581421,0.019746995899537836
490.655172,,0.00829685274565849,490.579,0.7480000257492065,-0.038706437887272634
491.12069,,0.005212433286395805,491.043,0.7570000290870667,-0.018631699530471252
491.586207,,0.0047081097927528515,491.509,0.7549999952316284,-0.022438739482709264
492.05172400000004,,0.006837024162172344,491.976,0.7639999985694885,-0.0022126399089792323
492.517241,,0.008299424434619822,492.434,0.7519999742507935,-0.027688134914623116
492.982759,,0.005950191451889327,492.902,0.75,-0.03134673023015032
493.448276,,0.00016448426381288962,493.37,0.5669999718666077,-0.4293348584367445
493.913793,,0.005504320124615186,493.831,0.753000020980835,-0.023419218793724318
494.37931000000003,,0.007778923542143285,494.294,0.7720000147819519,0.018627745302792532
494.844828,,0.0066190075718400125,494.765,0.7850000262260437,0.04755407369247408
495.310345,,0.004764954653085612,495.227,0.7850000262260437,0.048092192581363075
495.775862,,0.004585151377430343,495.693,0.7559999823570251,-0.014632727688124129
496.241379,,0.005851701438852183,496.158,0.7760000228881836,0.02929968067362609
496.70689699999997,,0.006715551849197676,496.624,0.7749999761581421,0.027372632070943398
497.172414,,0.006158434723279595,497.084,0.7979999780654907,0.07761827778139918
497.637931,,0.004811335280420158,497.549,0.7730000019073486,0.023169303618880723
498.103448,,0.0037038098528854313,498.016,0.777999997138977,0.03395833515792288
498.568966,,0.0031066095531707897,498.482,0.7720000147819519,0.020662468407127262
499.03448299999997,,0.0028303473921902963,498.948,0.5989999771118164,-0.3565856177946421
499.5,,0.00300903962117589,499.414,0.7739999890327454,0.0242244178962674
499.96551700000003,,0.004043846031375782,499.876,0.734000027179718,-0.06347184771619015
500.431034,,0.005932429406472324,500.346,0.7739999890327454,0.023045035478765057
500.89655200000004,,0.007952747165140986,500.809,0.7570000290870667,-0.014681038658085595
501.362069,,0.009017025441043523,501.271,0.777999997138977,0.030341757246885783
501.827586,,0.00846526629415747,501.737,0.4009999930858612,-0.7917627222249317
502.293103,,0.006786443527611226,502.2,0.7680000066757202,0.007038450767489336
502.758621,,0.005428662441970528,502.666,0.7720000147819519,0.015010429188875171
503.224138,,0.005537900752145632,503.131,0.7480000257492065,-0.03796983213883092
503.68965499999996,,0.0068980244045403205,503.597,0.9549999833106995,0.4123922462938469
504.15517200000005,,0.008267765856548282,504.062,0.7680000066757202,0.004464204368867186
504.62068999999997,,0.008571066548195973,504.528,0.7760000228881836,0.021483515412952035
505.08620699999994,,0.007557809753762274,504.994,0.7749999761581421,0.01901520750479703
505.55172400000004,,0.005556717877541262,505.46,0.7720000147819519,0.012319407502140419
506.017241,,0.0030075413794874266,505.92,0.7820000052452087,0.034080929638075706
506.48275899999993,,0.0003168546167704425,506.39,0.7559999823570251,-0.02245289120135627
506.948276,,0.0020905392847063017,506.854,0.7699999809265137,0.008291966929845643
507.413793,,0.0038246534760129885,507.316,0.7509999871253967,-0.032733121066883045
507.87931,,0.004641502800802853,507.784,0.753000020980835,-0.027892144227321215
508.344828,,0.004447722745688442,508.247,0.7720000147819519,0.014086081153863712
508.810345,,0.003346696887825987,508.712,0.7609999775886536,-0.009211602449476625
509.27586199999996,,0.0018569036681403313,509.178,0.753000020980835,-0.02590952103029371
509.74137900000005,,0.0009159661859991033,509.644,0.7739999890327454,0.02061497778617649
510.20689699999997,,0.0013030280674284959,510.105,0.7739999890327454,0.02140719009291827
510.67241399999995,,0.0029417752511692774,510.571,0.7739999890327454,0.022195279508596285
511.13793100000004,,0.004895531375047046,511.036,0.7559999823570251,-0.016260575905009587
511.603448,,0.006069477257999062,511.501,0.7739999890327454,0.023663349304624916
512.0689659999999,,0.005872229049611067,511.968,0.7490000128746033,-0.030167935730325512
512.534483,,0.004386808829457719,512.434,0.753000020980835,-0.02091173123560747
513.0,,0.0022215238126313563,512.894,0.7649999856948853,0.005663478258121007
513.465517,,0.0002144122516368173,513.365,0.7490000128746033,-0.02888664803982262
513.931034,,0.0009968403351500587,513.828,0.777999997138977,0.034469477617690855
514.396552,,0.0013378247351966894,514.29,0.7480000257492065,-0.03085302140639622
514.862069,,0.0013344472551530926,514.758,0.7680000066757202,0.012616596584122845
515.327586,,0.0017639101149454354,515.221,0.8610000014305115,0.21499192586124163
515.793103,,0.002955517958641645,515.686,0.7730000019073486,0.022904896668643083
516.258621,,0.004190685673265966,516.153,0.7670000195503235,0.009349007463129132
516.724138,,0.004201902828057715,516.619,0.7739999890327454,0.024009506321968587
517.189655,,0.002789639097154835,517.083,0.7749999761581421,0.025509537025215197
517.655172,,0.0015728236880899172,517.549,0.7519999742507935,-0.02534695513078665
518.1206900000001,,0.0023843486645941407,518.009,0.7710000276565552,0.015252571520271176
518.5862070000001,,0.005047003164548713,518.475,0.7459999918937683,-0.040032586203736016
519.051724,,0.007407079698633646,518.943,0.753000020980835,-0.025600702835847637
519.517241,,0.007620738022481496,519.404,0.753000020980835,-0.026394854160496684
519.982759,,0.005999711028464345,519.872,0.753000020980835,-0.02714021721127733
520.448276,,0.004504402303432775,520.335,0.7739999890327454,0.017937941075343487
520.9137929999999,,0.004539273868305348,520.806,0.7739999890327454,0.017358025565789244
521.37931,,0.00538692893709047,521.268,0.7680000066757202,0.003818060647076065
521.844828,,0.00512516253540751,521.734,0.7789999842643738,0.027441580984318113
522.310345,,0.003075979671215654,522.197,0.7680000066757202,0.003272537546036442
522.7758620000001,,0.0006328315375561688,522.663,0.7789999842643738,0.027178182714022676
523.241379,,0.0005966655363516742,523.128,0.7739999890327454,0.016372653472388206
523.7068969999999,,0.0005113526750428571,523.594,0.777999997138977,0.025320312664030616
524.172414,,0.00021219552619227913,524.054,0.7749999761581421,0.01915637258317833
524.637931,,0.001556059600056297,524.52,0.7329999804496765,-0.07184722462159196
525.103448,,0.0037620558117816413,524.987,0.8029999732971191,0.08127067633042614
525.568966,,0.005971466139925836,525.453,0.753000020980835,-0.02695345611740041
526.034483,,0.0064303042829422325,525.914,0.7699999809265137,0.010866288963391105
526.5,,0.00429255966412383,526.383,0.7730000019073486,0.018236098317298954
526.9655170000001,,0.000717302088332408,526.846,0.753000020980835,-0.0244769151671873
527.4310340000001,,0.002050870538784475,527.309,0.8029999732971191,0.08531585245185816
527.8965519999999,,0.002614355391196671,527.779,0.7549999952316284,-0.018423804168581408
528.362069,,0.0015688752699610658,528.242,0.7699999809265137,0.015040405294429621
528.827586,,0.0009406593599291446,528.708,0.7630000114440918,0.0004989850403185352
529.293103,,0.0023403088167081787,529.172,0.7630000114440918,0.00111076680572013
529.7586210000001,,0.005339450922093795,529.637,0.753000020980835,-0.020180524747632544
530.224138,,0.007710205803652761,530.102,0.7570000290870667,-0.011103187382597182
530.689655,,0.007522081561763578,530.568,0.7739999890327454,0.026152707855614115
531.155172,,0.004812007827052565,531.035,0.7820000052452087,0.043650673632441385
531.62069,,0.0009188269612688798,531.501,0.7739999890327454,0.02613764776522956
532.086207,,0.003164961171555729,531.966,0.7839999794960022,0.047689613126353905
532.5517239999999,,0.006785627937625307,532.424,0.765999972820282,0.008094914727476308
533.017241,,0.008469521842731403,532.894,0.7599999904632568,-0.005490314373587176
533.482759,,0.00655470821000267,533.356,0.7580000162124634,-0.010481066893579008
533.9482760000001,,0.0015817295583373443,533.824,0.7580000162124634,-0.011216338468054986
534.413793,,0.003368956918633804,534.286,0.7509999871253967,-0.027282384859963222
534.87931,,0.00581124356265145,534.754,0.746999979019165,-0.03686861048049579
535.344828,,0.0064883803551062285,535.216,0.7820000052452087,0.03848295225719467
535.810345,,0.007971682876994858,535.682,0.777999997138977,0.028865916814266812
536.275862,,0.01133043508147026,536.147,0.7739999890327454,0.019275515822380993
536.7413789999999,,0.01506242930223939,536.612,0.7590000033378601,-0.01422713476241688
537.206897,,0.016885772689353967,537.079,0.7820000052452087,0.03513672924782084
537.672414,,0.015871820641542328,537.545,0.7620000243186951,-0.009080218291672187
538.137931,,0.012931741330051694,538.01,0.7749999761581421,0.018719137678106016
538.6034480000001,,0.009674864918487189,538.476,0.7739999890327454,0.016155108230843488
539.0689659999999,,0.007098879981962016,538.939,0.7739999890327454,0.015919827185437253
539.5344829999999,,0.005443678565763299,539.402,0.7680000066757202,0.0027705284255606618
540.0,,0.004803706725456022,539.865,0.8339999914169312,0.14664583135070336
540.465517,,0.005179372479465206,540.335,0.7570000290870667,-0.020864605537676943
540.931034,,0.005976831434285739,540.798,0.777999997138977,0.025285352035705158
541.396552,,0.006034514099661178,541.261,0.753000020980835,-0.028642143895241303
541.862069,,0.004396401502302496,541.727,0.7889999747276306,0.050452421958603784
542.327586,,0.0011390579920527533,542.189,0.7580000162124634,-0.016317062479900044
542.7931030000001,,0.002342974568856404,542.655,0.7480000257492065,-0.03725332798046147
543.258621,,0.004073841241926139,543.12,0.7739999890327454,0.020297379058461972
543.7241379999999,,0.0032527395893919,543.586,0.7739999890327454,0.021232517294281567
544.189655,,0.0014518590766421009,544.05,0.7739999890327454,0.02216912513295063
544.655172,,0.001287900662389907,544.516,0.7649999856948853,0.0034707660280251214
545.12069,,0.0034610588514411853,544.983,0.7210000157356262,-0.09153623478510091
545.5862070000001,,0.005804778018215186,545.449,0.7559999823570251,-0.014513335365790928
546.051724,,0.00588100265730594,545.909,0.753000020980835,-0.020385394334819857
546.517241,,0.003889061994546852,546.379,0.7720000147819519,0.02154674131349068
546.982759,,0.002181050337720781,546.84,0.7789999842643738,0.03719313754747282
547.448276,,0.0023911129382509846,547.309,0.7739999890327454,0.026541981646059084
547.9137929999999,,0.004067929758650141,547.772,0.7739999890327454,0.026622285656196214
548.3793099999999,,0.0058638142582981894,548.235,0.7649999856948853,0.006929662303143062
548.844828,,0.006903308456530917,548.701,0.7609999775886536,-0.0020332837603856367
549.310345,,0.006856090740576479,549.164,0.7200000286102295,-0.09176387854104733
549.775862,,0.005629846359234081,549.63,0.7990000247955322,0.07979714690246054
550.241379,,0.0034533808967499224,550.095,0.7760000228881836,0.029007760419690533
550.706897,,0.0008741240397492675,550.561,0.7710000276565552,0.017326548075978734
551.172414,,0.0016152286300441699,551.028,0.7739999890327454,0.022989790031187105
551.637931,,0.0038319546288206074,551.493,0.7559999823570251,-0.01715741928378801
552.103448,,0.005705428529039283,551.954,0.7680000066757202,0.008023588808458056
552.568966,,0.0069289287338731255,552.42,0.753000020980835,-0.025621435430312495
553.034483,,0.006956417068918586,552.891,0.7490000128746033,-0.03527504406959084
553.5,,0.005523496021757432,553.353,0.7689999938011169,0.007413728396822003
553.965517,,0.0032748087467854682,553.816,0.7519999742507935,-0.030425309633795184
554.4310340000001,,0.0015884299115712665,554.279,0.7870000004768372,0.045132782035904845
554.896552,,0.001283458171537451,554.745,0.7739999890327454,0.01624515847433668
555.3620689999999,,0.0015813949037717376,555.211,0.7570000290870667,-0.021209916008225374
555.827586,,0.0009684340003654373,555.676,0.7699999809265137,0.006853943487414136
556.293103,,0.0009013074781224974,556.143,0.8820000290870667,0.25077465729927356
556.758621,,0.002894751120869504,556.609,0.7739999890327454,0.015568388501733784
557.224138,,0.004072062263457793,557.069,0.7609999775886536,-0.01249447590769996
557.689655,,0.004804656883004339,557.535,0.765999972820282,-0.0011798535526071434
558.155172,,0.005903158101225987,558.002,0.8299999833106995,0.13882564047557483
558.6206900000001,,0.007405491153312482,558.467,0.7630000114440918,-0.006437125672068356
559.0862070000001,,0.008752033305830503,558.935,0.7609999775886536,-0.009975622660420173
559.5517239999999,,0.009627726544972213,559.397,0.7509999871253967,-0.0308572063048502
560.017241,,0.010034457453264579,559.861,0.7720000147819519,0.015858048800830808
560.482759,,0.009814635366875782,560.324,0.7570000290870667,-0.015828244259538406
560.948276,,0.008742499148039875,560.795,0.753000020980835,-0.023549924599570584
561.413793,,0.007165710385386982,561.257,0.7749999761581421,0.025342575650745245
561.87931,,0.0060929883418116325,561.723,0.7730000019073486,0.021888499867141246
562.344828,,0.006290391474776437,562.186,0.765999972820282,0.007454606189315293
562.8103450000001,,0.007415799585065603,562.651,0.7739999890327454,0.02558899115173677
563.275862,,0.0084044159405574,563.116,0.7739999890327454,0.026161121714757207
563.7413789999999,,0.00865942195600983,563.582,0.7490000128746033,-0.027883927532698465
564.206897,,0.008277660788271198,564.047,0.753000020980835,-0.018913160744021502
564.672414,,0.006979281850537802,564.513,0.7739999890327454,0.026921533912686726
565.137931,,0.0037722724493677857,564.98,0.7680000066757202,0.013757664626385422
565.603448,,0.0016356591083265656,565.446,0.7720000147819519,0.022207804708693383
566.068966,,0.007856656251580925,565.905,0.7519999742507935,-0.021794876067498144
566.534483,,0.013012703591363962,566.375,0.7699999809265137,0.01683843899548521
567.0,,0.016229940360310106,566.835,0.7910000085830688,0.061873022789902504
567.465517,,0.017359844855533643,567.305,0.7570000290870667,-0.013030879558376422
567.931034,,0.016172782221963784,567.766,0.7210000157356262,-0.09238154434193833
568.396552,,0.01270414987501332,568.236,0.7739999890327454,0.022104875297554925
568.862069,,0.007649838314271016,568.694,0.7699999809265137,0.012376616930927894
569.327586,,0.001531297202439105,569.161,0.7739999890327454,0.020077557969783322
569.793103,,0.005969685866704007,569.627,0.7720000147819519,0.014737471772088222
570.2586210000001,,0.014933255234681347,570.091,0.7710000276565552,0.011636755368690951
570.724138,,0.02371167117367302,570.557,0.7580000162124634,-0.01751923012614677
571.189655,,0.029386390182441643,571.024,0.7749999761581421,0.018798097591217255
571.655172,,0.029985781015111956,571.49,0.7570000290870667,-0.02100103234434441
572.12069,,0.025996145929468105,571.954,0.640999972820282,-0.2741564535426014
572.586207,,0.019670834796595375,572.42,0.7730000019073486,0.013156234868615516
573.051724,,0.013166710656785322,572.883,0.7490000128746033,-0.03922640593818349
573.517241,,0.0074058590886471294,573.345,0.7739999890327454,0.015324280305050602
573.982759,,0.002324793237748409,573.809,0.7570000290870667,-0.021450291261466543
574.4482760000001,,0.0021718823504433436,574.279,0.765999972820282,-0.001409636872562659
574.913793,,0.005560807622351094,574.745,0.75,-0.035677297609234104
575.37931,,0.007096103404916116,575.21,0.7739999890327454,0.01734129078583523
575.844828,,0.0071101951801979795,575.675,0.7699999809265137,0.009476862917275827
576.310345,,0.007609420061890211,576.135,0.7739999890327454,0.01913573836891065
576.775862,,0.010617737650312051,576.601,0.7649999856948853,0.0005376863189018337
577.241379,,0.015594216429457712,577.069,0.7710000276565552,0.014654289247227484
577.706897,,0.019338049548598035,577.534,0.7549999952316284,-0.019156742264144804
578.172414,,0.019107034602292357,577.994,0.7710000276565552,0.016719788718369606
578.6379310000001,,0.0153428836455942,578.46,0.765999972820282,0.006784139828523091
579.1034480000001,,0.010849355949756138,578.928,0.4690000116825104,-0.6394121539322558
579.5689659999999,,0.007846943379572658,579.39,0.7509999871253967,-0.02429839405060969
580.034483,,0.006417048950604974,579.861,0.7519999742507935,-0.021530166762170476
580.5,,0.00541128149543396,580.324,0.7730000019073486,0.024653804783808114
580.965517,,0.0041559620766193905,580.787,0.7490000128746033,-0.027371640017721164
581.431034,,0.003115703025431489,581.25,0.7789999842643738,0.03807167241855389
581.896552,,0.00313069168774307,581.715,0.7440000176429749,-0.03827805449554534
582.362069,,0.004343574086395031,582.179,0.7739999890327454,0.02680576630109989
582.827586,,0.00619226841469943,582.645,0.7649999856948853,0.006752105942515204
583.2931030000001,,0.00823830690932149,583.109,0.753000020980835,-0.019994519428292203
583.758621,,0.010231390574304843,583.575,0.7609999775886536,-0.003308057978063295
584.2241379999999,,0.011210127216606665,584.04,0.7699999809265137,0.01543973984371821
584.689655,,0.00959295638775888,584.505,0.7730000019073486,0.021024435406028625
585.155172,,0.005091314956825483,584.972,0.777999997138977,0.03090389368298421
585.6206900000001,,3.858273691854881e-05,585.438,0.7739999890327454,0.0211434778023335
586.0862070000001,,0.0024107871719141766,585.906,0.7620000243186951,-0.0060470707651946645
586.551724,,0.0017239176512950471,586.368,0.7570000290870667,-0.01795745374161428
587.017241,,0.0005208072999985027,586.831,0.7739999890327454,0.018122446327831845
587.482759,,0.0003937248638045994,587.294,0.7549999952316284,-0.02413987832567701
587.948276,,0.002284968202740014,587.765,0.753000020980835,-0.029250356473623312
588.4137929999999,,0.014089801406725617,588.227,0.7770000100135803,0.022421524871248856
588.87931,,0.03681009680578342,588.693,0.7459999918937683,-0.045575768230922103
589.344828,,0.06321030342028541,589.16,0.7710000276565552,0.008601781872271463
589.810345,,0.08166232436431357,589.619,0.7400000095367432,-0.059046000138533374
590.2758620000001,,0.08419971194007178,590.084,0.9210000038146973,0.3353653777664746
590.741379,,0.06985672753252642,590.549,0.7590000033378601,-0.01731322556847647
591.2068969999999,,0.04277635414427756,591.017,0.7490000128746033,-0.038660990798588576
591.672414,,0.009652957976038526,591.483,0.7739999890327454,0.016404027287095328
592.137931,,0.02192631045578951,591.95,0.7770000100135803,0.023681928551196593
592.603448,,0.04578083579013052,592.416,0.7739999890327454,0.018009257966739262
593.068966,,0.05965618229127525,592.876,0.777999997138977,0.02768277268720298
593.534483,,0.0654017424502767,593.345,0.7590000033378601,-0.012686098078319202
594.0,,0.0662659755244281,593.806,0.7739999890327454,0.02105446099438358
594.4655170000001,,0.06396309276903468,594.276,0.7710000276565552,0.01558311592374416
594.9310340000001,,0.05827204638377217,594.734,0.7789999842643738,0.03404869599303221
595.3965519999999,,0.04922055517433775,595.204,0.75,-0.028155170998481995
595.862069,,0.03918166096089104,595.669,0.7549999952316284,-0.016374858973288383
596.327586,,0.03193283350247997,596.136,0.7450000047683716,-0.037391403703134304
596.793103,,0.029035110408145163,596.594,0.7570000290870667,-0.01061805842583708
597.2586210000001,,0.027907241208423778,597.061,0.7770000100135803,0.03342561539040854
597.724138,,0.024758870030075562,597.527,0.7570000290870667,-0.009848977337320947
598.189655,,0.01902986218163799,597.994,0.7490000128746033,-0.0271617992666412
598.655172,,0.013177428296566948,598.46,0.7760000228881836,0.031592477726781316
599.12069,,0.008020707123721152,598.924,0.75,-0.025305015633568042
599.586207,,0.0008060251223123375,599.386,0.9440000057220459,0.39692777518846567
600.0517239999999,,0.010430253843407742,599.854,0.7689999938011169,0.015082454028364455
600.517241,,0.022386706151423488,600.316,0.7739999890327454,0.0252518143518606
600.982759,,0.02931036694823526,600.779,0.5920000076293945,-0.37211355051849376
601.448276,,0.030439299051015438,601.249,0.7559999823570251,-0.015772135296275618
601.913793,,0.03215334106135266,601.716,0.7770000100135803,0.02894857326351839
602.37931,,0.040916968254189424,602.179,0.7519999742507935,-0.026588287146371462
602.844828,,0.054656908824559695,602.645,0.7739999890327454,0.02026405566941739
603.310345,,0.06264180218527064,603.11,0.7730000019073486,0.01703292241337143
603.775862,,0.054525693343386396,603.569,0.7599999904632568,-0.012284648675210572
604.2413789999999,,0.02932341748702668,604.035,0.7739999890327454,0.01730861062835733
604.706897,,0.004250280855054963,604.501,0.7590000033378601,-0.01616412374212756
605.172414,,0.03505947342301509,604.966,0.75,-0.036426574416898935
605.637931,,0.056384383477144966,605.431,0.7559999823570251,-0.023851431864948928
606.1034480000001,,0.06685118957750061,605.895,0.8069999814033508,0.08693711014331267
606.5689659999999,,0.067226400379736,606.365,0.7739999890327454,0.01490469804263192
607.0344829999999,,0.05805008820327612,606.828,0.7559999823570251,-0.024258675012991372
607.5,,0.04044630889408708,607.291,0.7739999890327454,0.015196382143849019
607.965517,,0.018201043437271785,607.754,0.7649999856948853,-0.003991911912467472
608.431034,,0.002305432975120908,608.224,0.753000020980835,-0.029548540115445537
608.896552,,0.01525253600072673,608.69,0.7699999809265137,0.008225211227398409
609.362069,,0.018987276402838635,609.15,0.7239999771118164,-0.09112863602878343
609.827586,,0.016814585474071053,609.615,0.7570000290870667,-0.018268517373772823
610.293103,,0.014270174739459279,610.079,0.7630000114440918,-0.004159947943278312
610.758621,,0.014958954271584857,610.545,0.7760000228881836,0.025241349621863834
611.2241379999999,,0.018051751584699863,611.01,0.7739999890327454,0.02197307528313362
611.689655,,0.019482803077811497,611.476,0.746999979019165,-0.035784245327683234
612.155172,,0.01589303338734154,611.939,0.7739999890327454,0.024049955215696917
612.62069,,0.0074778877512181405,612.409,0.7570000290870667,-0.012062287259750299
613.0862070000001,,0.0030646683431758744,612.872,0.7720000147819519,0.021428324252801827
613.551724,,0.01359643284786016,613.335,0.7519999742507935,-0.021472413641576024
614.017241,,0.02345444573208227,613.803,0.7480000257492065,-0.0296741775737614
614.4827590000001,,0.03151767798640574,614.265,0.7760000228881836,0.03166538489222355
614.948276,,0.03490450583361408,614.731,0.7519999742507935,-0.020470168404162332
615.4137929999999,,0.0308886926331562,615.194,0.7739999890327454,0.027422176711576745
615.8793099999999,,0.020132622131718594,615.66,0.7620000243186951,0.0010513653863453267
616.344828,,0.007168992779293696,616.124,0.7620000243186951,0.0006416228130613159
616.810345,,0.0029958705135292463,616.589,0.7490000128746033,-0.02826167005906679
617.275862,,0.008671249117957698,617.054,0.7490000128746033,-0.028996858163518522
617.741379,,0.011648912455933287,617.52,0.7749999761581421,0.02678055056940806
618.206897,,0.014066998176558463,617.987,0.7590000033378601,-0.009050749040534226
618.672414,,0.015948081039642747,618.453,0.7739999890327454,0.02257975001393365
619.137931,,0.015981202811116955,618.92,0.7749999761581421,0.023664717892871816
619.603448,,0.013973892327966773,619.383,0.7120000123977661,-0.11469617202581861
620.068966,,0.011743175809690453,619.85,0.7940000295639038,0.06286715097713294
620.534483,,0.011504422215439647,620.313,0.7609999775886536,-0.010060138327975589
621.0,,0.013773874721937735,620.78,0.7580000162124634,-0.01754207269753793
621.465517,,0.016996785015463686,621.242,0.7580000162124634,-0.01837449252212764
621.9310340000001,,0.018958300040808722,621.708,0.7739999890327454,0.015790642535729642
622.396552,,0.018445945259681094,622.171,0.7549999952316284,-0.026136220893327462
622.862069,,0.0158911740414498,622.637,0.7730000019073486,0.012723888500604089
623.327586,,0.012769538632062757,623.101,0.7689999938011169,0.003841938040045948
623.793103,,0.010452517300281712,623.568,0.75,-0.03752623666277247
624.258621,,0.009542587185092384,624.032,0.7580000162124634,-0.019878446413912516
624.724138,,0.009967479457393374,624.498,0.7799999713897705,0.028456842514367708
625.189655,,0.011112514547560437,624.965,0.7480000257492065,-0.040679657422665626
625.655172,,0.011717848832599577,625.43,0.7739999890327454,0.01670288176198439
626.1206900000001,,0.010414976283764824,625.891,0.7889999747276306,0.050256601384064216
626.5862070000001,,0.007160826968691479,626.354,0.7730000019073486,0.01638316798662739
627.0517239999999,,0.0038349332033397582,626.825,0.7749999761581421,0.021806332317932768
627.5172409999999,,0.0024509121951424703,627.287,0.75,-0.03154570102104817
627.982759,,0.002726984869489864,627.757,0.7770000100135803,0.02840618638010953
628.448276,,0.0024033670636494763,628.22,0.7519999742507935,-0.024951652899108636
628.913793,,0.0001414065997193888,628.686,0.7699999809265137,0.0153189624912854
629.37931,,0.0029924817886817856,629.15,0.7739999890327454,0.02500318018966644
629.844828,,0.005236024663728232,629.609,0.7720000147819519,0.021501154283151334
630.3103450000001,,0.006098350669499688,630.076,0.7739999890327454,0.026573125184841995
630.7758620000001,,0.006084848834253249,630.542,0.7789999842643738,0.0380187730625599
631.2413789999999,,0.0056442675205204355,631.006,0.7710000276565552,0.020962730422307205
631.706897,,0.005210212644976965,631.471,0.7450000047683716,-0.03550093097934374
632.172414,,0.0053846088996376594,631.935,0.7739999890327454,0.02766280417645412
632.637931,,0.0060709017504343085,632.405,0.7770000100135803,0.03398411576750297
633.103448,,0.0059338700937984264,632.868,0.7480000257492065,-0.029602834713349346
633.568966,,0.0038153804689156786,633.331,0.7390000224113464,-0.04979766332493009
634.034483,,0.0006411498298258432,633.794,0.753000020980835,-0.020047605625740865
634.5,,0.0010525179236480274,634.264,0.7730000019073486,0.022633435492024963
634.9655170000001,,0.0002103431630566039,634.73,0.753000020980835,-0.021944850732124647
635.431034,,0.003300466253277355,635.192,0.7739999890327454,0.022718253374350933
635.8965519999999,,0.005918875512866435,635.658,0.6209999918937683,-0.3117561952768349
636.362069,,0.007044515300295859,636.124,0.7590000033378601,-0.012264450677119846
636.827586,,0.007475015547133336,636.59,0.7720000147819519,0.01491343660938331
637.293103,,0.008150743736577268,637.053,0.8309999704360962,0.14236566490943495
637.7586210000001,,0.008548734760664431,637.519,0.765999972820282,-0.0002432449006652611
638.224138,,0.007179011102214187,637.983,0.7730000019073486,0.014131350855037637
638.689655,,0.0035937473029724358,638.449,0.7480000257492065,-0.04106459973915715
639.155172,,0.0006589918745610569,638.91,0.7739999890327454,0.015018891590970735
639.62069,,0.0035023867532483397,639.38,0.7720000147819519,0.01028671609225391
640.086207,,0.004433561281095823,639.842,0.8939999938011169,0.2759077890081024
640.551724,,0.004589845525960744,640.305,0.7599999904632568,-0.015996858681434873
641.017241,,0.004938164120967998,640.776,0.7570000290870667,-0.02229360847346073
641.482759,,0.005266441947347626,641.238,0.7730000019073486,0.012999061615238915
641.9482760000001,,0.005169373039896016,641.704,0.7609999775886536,-0.012528058965264106
642.413793,,0.005127841920157155,642.168,0.7760000228881836,0.020932283985673587
642.87931,,0.005787718388224783,642.634,0.753000020980835,-0.02825619429407301
643.344828,,0.006511475796621366,643.099,0.7570000290870667,-0.018509688719136743
643.810345,,0.005667767827495978,643.564,0.7710000276565552,0.013103288307332836
644.275862,,0.002730375996699045,644.024,0.7480000257492065,-0.03584744509035333
644.7413789999999,,0.0005841907561462067,644.49,0.7760000228881836,0.02632389135257358
645.206897,,0.001985904778515892,644.955,0.7739999890327454,0.02311160079861003
645.672414,,0.001227610431542226,645.42,0.7699999809265137,0.015483441783082858
646.1379310000001,,0.00034528571716810835,645.89,0.7730000019073486,0.02301396268160148
646.6034480000001,,0.0011534421597015007,646.353,0.7519999742507935,-0.021865893268969882
647.0689659999999,,0.0032142276816268566,646.816,0.7739999890327454,0.026786562509093642
647.534483,,0.004826362958120344,647.279,0.777999997138977,0.03605198176727386
648.0,,0.005450656203947728,647.745,0.7760000228881836,0.03205778716862758
648.465517,,0.006193337418909635,648.211,0.7639999985694885,0.006077753908651557
648.931034,,0.007945835531705421,648.676,0.7490000128746033,-0.026643352218694974
649.396552,,0.009996389050127426,649.143,0.7770000100135803,0.03411300438083486
649.862069,,0.010912696169889356,649.608,0.7599999904632568,-0.00336655613683185
650.327586,,0.010209741418882982,650.076,0.753000020980835,-0.019243110623941618
650.7931030000001,,0.008600234234568524,650.534,0.7580000162124634,-0.00914109685644545
651.258621,,0.007032662865030386,651.005,0.753000020980835,-0.020966722978102755
651.7241379999999,,0.006165434246586666,651.464,0.753000020980835,-0.02201200543280625
652.189655,,0.006446808343069506,651.932,0.753000020980835,-0.023138405611870208
652.655172,,0.007814123003050844,652.394,0.7739999890327454,0.021440433520278843
653.12069,,0.00930276567933466,652.865,0.7739999890327454,0.020258027410240863
653.5862070000001,,0.009621353400041104,653.327,0.7329999804496765,-0.07022289193654799
654.051724,,0.008295914973379372,653.791,0.7739999890327454,0.018006235215061516
654.517241,,0.006122801111468818,654.261,0.7519999742507935,-0.030924855449778663
654.982759,,0.0046277193055488455,654.719,0.765999972820282,-0.001298849354755908
655.448276,,0.004967507412661935,655.19,0.7570000290870667,-0.021629066705940263
655.9137929999999,,0.006897148033521017,655.655,0.796999990940094,0.06496988524504467
656.37931,,0.008789073327326365,656.121,0.7730000019073486,0.012328774070071083
656.844828,,0.009013456286724085,656.579,0.777999997138977,0.023072780767408093
657.310345,,0.007318652913148302,657.05,0.7739999890327454,0.01441764314553431
657.7758620000001,,0.004808119786199753,657.509,0.7649999856948853,-0.004923940503308249
658.241379,,0.002872094635510984,657.976,0.777999997138977,0.023863372210552465
658.7068969999999,,0.002223393381396848,658.441,0.7519999742507935,-0.03213243369322415
659.172414,,0.002438894084653634,658.909,0.7549999952316284,-0.024783503466890712
659.637931,,0.0020681379258173063,659.371,0.7570000290870667,-0.019474521926398165
660.103448,,0.0003298045210747103,659.839,0.7860000133514404,0.04476818460365785
660.568966,,0.004570756397046335,660.301,0.7739999890327454,0.01976502072701501
661.034483,,0.008499277908814329,660.765,0.7559999823570251,-0.018266363864215505
661.5,,0.010197374862530823,661.235,0.7599999904632568,-0.008360881665142475
661.965517,,0.010589272334978073,661.7,0.7590000033378601,-0.009378770320181104
662.4310340000001,,0.012590391684404428,662.165,0.7609999775886536,-0.00392642501441903
662.8965519999999,,0.017084264071599974,662.63,0.7760000228881836,0.029749648416489187
663.362069,,0.021069971822768548,663.094,0.753000020980835,-0.019492319792176898
663.827586,,0.021056890357046238,663.56,0.7730000019073486,0.0247914807369645
664.293103,,0.017483591068533116,664.024,0.7739999890327454,0.027503306198258744
664.7586210000001,,0.014320860723995616,664.49,0.75,-0.02444520254560772
665.224138,,0.01451484551916032,664.954,0.7710000276565552,0.021440358803694458
665.689655,,0.017059823743812562,665.42,0.7559999823570251,-0.011314999474940338
666.155172,,0.018696909608649066,665.883,0.7739999890327454,0.027618109760936795
666.62069,,0.01742184802829264,666.346,0.7549999952316284,-0.01425734643811157
667.086207,,0.01376193279562619,666.809,0.7739999890327454,0.02647185467576025
667.5517239999999,,0.009366308053425868,667.279,0.7860000133514404,0.05178738747726419
668.017241,,0.005330638135226269,667.745,0.8769999742507935,0.24908059315861608
668.482759,,0.001842570243467425,668.211,0.7450000047683716,-0.0395698641348988
668.948276,,0.0012505908550204225,668.669,0.7519999742507935,-0.025463936477843216
669.413793,,0.003752689534434463,669.136,0.7509999871253967,-0.028830325640960823
669.87931,,0.0048914185758055515,669.601,0.777999997138977,0.028798971464890754
