Trial: ,20
Threshold: ,0.0
Maximum EMG: ,0.04634589373853015
Success: ,True

EMG Time,Raw EMG,Filtered EMG,Force Time,Raw Force (V),Filtered Force (N)
0.0,samples,3.6367383943264794e-05,0.471,0.7570000290870667,-0.018552332754917352
0.46551699999999996,time,3.624067227284007e-05,0.932,0.7480000257492065,-0.03763722060920788
0.9310339999999999,value,3.5979347225175535e-05,1.395,0.7730000019073486,0.017465491132907136
1.396552,,3.557852717412911e-05,1.861,0.7559999823570251,-0.01884018568500814
1.862069,,3.5033616808711354e-05,2.331,0.7580000162124634,-0.013678859388283027
2.327586,,3.4340335869142164e-05,2.797,0.753000020980835,-0.02372047426816793
2.793103,,3.3494748000331164e-05,3.255,0.7490000128746033,-0.03156216482404305
3.258621,,3.2493289624962544e-05,3.72,0.7739999890327454,0.02377154906522915
3.724138,,3.133279873406754e-05,4.187,0.7559999823570251,-0.014608360746434096
4.189654999999999,,3.0010543488848444e-05,4.653,0.7739999890327454,0.02538547991432962
4.655172,,2.8524250523599516e-05,5.117,0.777999997138977,0.03479659659350665
5.12069,,2.687213283587461e-05,5.583,0.7720000147819519,0.022317959629730863
5.586207,,2.5052917146602096e-05,6.051,0.7710000276565552,0.02061014294840214
6.051723999999999,,2.3065870609667024e-05,6.513,0.7509999871253967,-0.022630362282535715
6.517241,,2.0910826747592066e-05,6.976,0.7689999938011169,0.016768135425111422
6.982759,,1.858821048737503e-05,7.446,0.7739999890327454,0.02768827131418567
7.448276,,1.6099062168304582e-05,7.91,0.7570000290870667,-0.009479195640387551
7.913793000000001,,1.3445060391699761e-05,8.372,0.7739999890327454,0.027272730240637744
8.379309999999998,,1.0628543581025079e-05,8.838,0.7599999904632568,-0.0036598921343746343
8.844828000000001,,7.652530119743523e-06,9.302,0.7739999890327454,0.02627572239674235
9.310345,,4.520736933605844e-06,9.767,0.7239999771118164,-0.08334010559860232
9.775862,,1.2375963838567248e-06,10.232,0.75,-0.027477000205789717
10.241379,,2.1917286619129548e-06,10.698,0.7450000047683716,-0.03922687965497955
10.706897,,5.761331713804399e-06,11.162,0.7409999966621399,-0.04884650824005089
11.172414,,9.46455162983824e-06,11.628,0.777999997138977,0.03083849054801068
11.637931,,1.3293963801910085e-05,12.091,0.7630000114440918,-0.0027565123300410618
12.103447999999998,,1.724137368471651e-05,12.561,0.7739999890327454,0.020331909691465234
12.568966000000001,,2.129781279204429e-05,13.021,0.7770000100135803,0.026057540756812263
13.034483,,2.54535372813998e-05,13.491,0.753000020980835,-0.02694864017657105
13.5,,2.9698029243961273e-05,13.954,0.7699999809265137,0.009483732226850446
13.965517,,3.402000081225293e-05,14.417,0.746999979019165,-0.04109657424476291
14.431034,,3.840740119275787e-05,14.882,0.7910000085830688,0.05444154750003883
14.896552,,4.284742672489858e-05,15.345,0.7739999890327454,0.01724254102886738
15.362069,,4.732653406141468e-05,15.811,0.7580000162124634,-0.01761137954298181
15.827586000000002,,5.183045655815306e-05,16.276,0.7739999890327454,0.017417778426651136
16.293103,,5.6344223953654695e-05,16.742,0.8050000071525574,0.08528960066316826
16.758621,,6.085218541067509e-05,17.207,0.7739999890327454,0.01823921115176938
17.224138,,6.533803598291527e-05,17.672,0.7559999823570251,-0.020349983043056793
17.689655,,6.97848465607718e-05,18.139,0.7739999890327454,0.019611156812373527
18.155172,,7.417509733984468e-05,18.605,0.7480000257492065,-0.03619208927696327
18.62069,,7.849071484528219e-05,19.069,0.7480000257492065,-0.035280808313406
19.086207,,8.27131125338026e-05,19.531,0.9950000047683716,0.5038026209685811
19.551724,,8.682323498343128e-05,19.995,0.746999979019165,-0.0355245814700993
20.017241000000002,,9.080160566864345e-05,20.464,0.7870000004768372,0.052585471590277905
20.482758999999998,,9.462837830573014e-05,20.928,0.7720000147819519,0.02082206371529587
20.948276,,9.828339173982964e-05,21.391,0.7739999890327454,0.026018951124146705
21.413793000000002,,0.00010174622833121513,21.857,0.7519999742507935,-0.02117586163781178
21.87931,,0.00010499627578412982,22.321,0.753000020980835,-0.018390223554322047
22.344828,,0.0001080127923467464,22.787,0.7739999890327454,0.02781989438297583
22.810344999999998,,0.00011077497529573056,23.254,0.7820000052452087,0.04554516843567742
23.275862,,0.00011326203260344772,23.72,0.765999972820282,0.010810559847004617
23.741379,,0.00011545325767010619,24.181,0.7770000100135803,0.03472248094363541
24.206897,,0.000117328106987124,24.646,0.7760000228881836,0.032314337072376194
24.672414,,0.00011886628058178359,25.114,0.781000018119812,0.04280847140902367
25.137931,,0.00012004780507684883,25.579,0.7480000257492065,-0.029644330028166015
25.603448,,0.00012085311918231246,26.04,0.8569999933242798,0.20713034705145236
26.068966,,0.00012126316141987323,26.509,0.7580000162124634,-0.009371670660254938
26.534483,,0.0001212594598641665,26.972,0.4749999940395355,-0.6268449726902336
27.0,,0.00012082422366824871,27.435,0.7549999952316284,-0.017817229441900825
27.465517,,0.00011994043612442563,27.901,0.7699999809265137,0.013826683575357688
27.931034,,0.00011859194899528008,28.367,0.7509999871253967,-0.02860678528477046
28.396552,,0.0001167635778337628,28.832,0.9359999895095825,0.37343707741617277
28.862069,,0.00011444119799552552,29.299,0.75,-0.03272969867142694
29.327586,,0.0001116118410313696,29.764,0.7519999742507935,-0.029215703360197156
29.793103000000002,,0.00010826379113282523,30.229,0.7409999966621399,-0.05390577026664767
30.258620999999998,,0.00010438668128953859,30.694,0.7760000228881836,0.021764065068426444
30.724138,,9.997158880340032e-05,31.161,0.9169999957084656,0.32853546175161075
31.189655000000002,,9.501112979127194e-05,31.62,0.7820000052452087,0.03418187435885306
31.655172000000004,,8.949955229583414e-05,32.088,0.7590000033378601,-0.01597575006563108
32.12069,,8.343282761256544e-05,32.55,0.7730000019073486,0.014662803634614686
32.586207,,7.680873943024002e-05,33.021,0.7739999890327454,0.0171612830294716
33.051724,,6.962697037268371e-05,33.484,0.753000020980835,-0.02809777222970213
33.517241000000006,,6.188918552092455e-05,33.947,0.781000018119812,0.03355419736980923
33.982759,,5.359911248739267e-05,34.417,0.7739999890327454,0.01909108068466398
34.448276,,4.47626176075399e-05,34.875,0.7739999890327454,0.019992005927514003
34.913793,,3.538777780923514e-05,35.346,0.7749999761581421,0.023156694319663114
35.37931,,2.548494771661865e-05,35.811,0.7630000114440918,-0.0019469487402403616
35.844828,,1.506682154283882e-05,36.276,0.7699999809265137,0.01436456372134777
36.310345,,4.148489325315967e-06,36.742,0.7490000128746033,-0.030338842152402845
36.775862,,7.252512942054342e-06,37.206,0.7519999742507935,-0.0228014436112631
37.241378999999995,,1.9116159722967408e-05,37.671,0.753000020980835,-0.019699776430747298
37.706897000000005,,3.141989933820488e-05,38.136,0.7480000257492065,-0.029778012815232215
38.172414,,4.413862478394311e-05,38.595,0.777999997138977,0.03626294281421813
38.637931,,5.7244652394700744e-05,39.065,0.75,-0.024212413504876157
39.103448,,7.070770876736495e-05,39.527,0.5130000114440918,-0.5402020122041721
39.568965999999996,,8.449492635147478e-05,39.995,0.7609999775886536,0.0002605930746790362
40.034483,,9.857084809776511e-05,40.457,0.7710000276565552,0.022012351021384328
40.5,,0.00011289744154185077,40.925,0.7699999809265137,0.019612443820239293
40.965517,,0.0001274341226828293,41.387,0.7559999823570251,-0.011289178738344466
41.431034,,0.00014213778999747854,41.853,0.7739999890327454,0.027359050412394868
41.896552,,0.00015696286890960477,42.321,0.7739999890327454,0.02664292291744809
42.362069000000005,,0.0001718613670109485,42.787,0.753000020980835,-0.019950978847283803
42.827586000000004,,0.00018678294030487373,43.251,0.7689999938011169,0.013964749645763594
43.293103,,0.00020167497071685775,43.717,0.753000020980835,-0.021906971479450574
43.758621,,0.0002164826550865703,44.176,0.7730000019073486,0.020613636263890626
44.224138,,0.00023114910582510467,44.642,0.7409999966621399,-0.05016159118759202
44.689655,,0.0002456154633877245,45.107,0.7540000081062317,-0.022871073630132056
45.155172,,0.0002598210206773539,45.572,0.7329999804496765,-0.06959636395295027
45.620689999999996,,0.00027370335945700846,46.035,0.7749999761581421,0.02102245753595464
46.086206999999995,,0.0002871984988104925,46.505,0.7739999890327454,0.018077509672771143
46.551724,,0.0003002410556500357,46.966,0.7570000290870667,-0.01958314447242271
47.017241,,0.000312764417227178,47.435,0.7749999761581421,0.019170615959241452
47.482759,,0.0003247009255592164,47.901,0.7490000128746033,-0.03775973237590197
47.948276,,0.0003359820736379939,48.366,0.8740000128746033,0.2344727960280113
48.413793,,0.00034653871324082704,48.825,0.7699999809265137,0.007986780408318583
48.879310000000004,,0.0003563012741150512,49.291,0.7519999742507935,-0.03094813761638629
49.344828,,0.0003651999942581249,49.757,0.7739999890327454,0.01743892513599651
49.810345,,0.0003731651609646043,50.224,0.7730000019073486,0.015878929615367833
50.275862,,0.00038012736225971166,50.69,0.7689999938011169,0.007925490631834505
50.741379,,0.0003860177482868258,51.15,0.8240000009536743,0.1286316993756879
51.206897,,0.0003907683021631648,51.616,0.7730000019073486,0.01849354962234358
51.672414,,0.0003943121197643855,52.084,0.46000000834465027,-0.6623957314696042
52.137931,,0.0003965836978449551,52.547,0.7519999742507935,-0.025186898565776838
52.603448,,0.00039751922984714965,53.017,0.8119999766349792,0.10656450665837652
53.068966,,0.0003970569086975771,53.48,0.5049999952316284,-0.5612891893442157
53.534483,,0.0003951372358364207,53.943,0.7509999871253967,-0.024427067830199326
54.0,,0.000391703335671352,54.406,0.7739999890327454,0.026495163358351972
54.465517,,0.00038670127459548446,54.871,0.7699999809265137,0.018473519985111504
54.931034,,0.00038008038365704887,55.335,0.7739999890327454,0.027740284699049832
55.396552,,0.00037179358391790154,55.801,0.6209999918937683,-0.30520103036195817
55.862069,,0.0003617977134887487,56.266,0.753000020980835,-0.017402124284328094
56.327586,,0.00035005385518133446,56.732,0.777999997138977,0.037102815539501
56.793102999999995,,0.0003365276636720292,57.198,0.7720000147819519,0.023894091901407156
57.258621000000005,,0.0003211896910275207,57.664,0.7580000162124634,-0.006914715517037283
57.724138,,0.0003040157094019001,58.129,0.7760000228881836,0.03183205634834953
58.189655,,0.00028498702967560193,58.595,0.753000020980835,-0.018892238976536194
58.655172,,0.00026409081477065353,59.058,0.777999997138977,0.034831278882903535
59.120689999999996,,0.00024132038634377674,59.52,0.7739999890327454,0.025270105534801694
59.586207,,0.000216675523529306,59.989,0.7509999871253967,-0.025763366733901005
60.051724,,0.00019016275237790565,60.451,0.7739999890327454,0.023370850234160863
60.517241,,0.00016179562461493394,60.922,0.734000027179718,-0.06477053091500719
60.982758999999994,,0.00013159498432426298,61.383,0.7490000128746033,-0.033077607004341446
61.448276,,9.958922114966661e-05,61.849,0.7990000247955322,0.07490749599842478
61.913793,,6.581450859677019e-05,62.314,0.7710000276565552,0.013027620134326814
62.379310000000004,,3.0315026014248027e-05,62.78,0.7540000081062317,-0.024791495647539716
62.84482800000001,,6.856837166312694e-06,63.24,0.7739999890327454,0.01811769675811363
63.310345000000005,,4.5640296346460666e-05,63.705,0.7490000128746033,-0.03687424842609703
63.775862000000004,,8.596600723594242e-05,64.172,0.7710000276565552,0.010683625051382564
64.241379,,0.0001277559232727499,64.638,0.7490000128746033,-0.03745506875512046
64.706897,,0.00017092317635117476,65.11,0.8259999752044678,0.13026334472069712
65.172414,,0.00021537198219190692,65.568,0.7820000052452087,0.03453844128559972
65.637931,,0.00026099757165298554,66.031,0.7480000257492065,-0.03923248986222403
66.103448,,0.0003076861492388234,66.502,0.7710000276565552,0.01133552437550814
66.56896599999999,,0.0003553148800165978,66.962,0.7680000066757202,0.005400206477443827
67.03448300000001,,0.0004037519060949738,67.431,0.7480000257492065,-0.037449305599059596
67.5,,0.0004528563937590611,67.89,0.7480000257492065,-0.03662635384315586
67.965517,,0.0005024786122873387,68.36,0.7720000147819519,0.0165584146351984
68.431034,,0.0005524600454012396,68.825,0.7480000257492065,-0.03478469080259178
68.896552,,0.0006026335362170033,69.291,0.7770000100135803,0.02935910941824794
69.362069,,0.000652823466482362,69.757,0.7730000019073486,0.02159738851790897
69.827586,,0.0007028459707860189,70.22,0.7739999890327454,0.024690379992694744
70.293103,,0.000752509186324235,70.686,0.7689999938011169,0.014645291009782105
70.75862099999999,,0.0008016135386984521,71.151,0.7559999823570251,-0.012921141219746909
71.22413800000001,,0.000849952064105698,71.617,0.4950000047683716,-0.5809126698727475
71.689655,,0.0008973107681690641,72.08,0.75,-0.02486534481059484
72.15517200000001,,0.0009434690215285081,72.541,0.7590000033378601,-0.004918956303018235
72.62069,,0.000988199992165762,73.01,0.7580000162124634,-0.0069163138854553856
73.086207,,0.0010312711142873691,73.472,0.7760000228881836,0.032319521466191756
73.551724,,0.001072444593464323,73.935,0.7590000033378601,-0.004857689551673796
74.017241,,0.0011114779476147205,74.405,0.765999972820282,0.010097527349229432
74.482759,,0.001148124583252875,74.871,0.753000020980835,-0.018665600369183088
74.94827599999999,,0.001182134406185844,75.335,0.7720000147819519,0.022156576961597556
75.41379300000001,,0.0012132544656267242,75.801,0.75,-0.026459172595442008
75.87931,,0.0012412296306611571,76.265,0.753000020980835,-0.02070104776346276
76.344828,,0.001265803298041131,76.73,0.7820000052452087,0.04163357483671786
76.810345,,0.001286718129999228,77.195,0.753000020980835,-0.02243532911170017
77.275862,,0.0013037168200900077,77.66,0.7730000019073486,0.020234219690506195
77.741379,,0.0013165428847053571,78.126,0.7490000128746033,-0.03294517797059109
78.206897,,0.0013249414786413421,78.585,0.753000020980835,-0.02508475278244362
78.67241399999999,,0.001328660234020855,79.057,0.765999972820282,0.00244623233972807
79.137931,,0.0013274501207160918,79.519,0.7929999828338623,0.060565541306377445
79.603448,,0.0013210663231874055,79.98,0.7739999890327454,0.01857540297414595
80.068966,,0.0013092691280722941,80.45,0.8209999799728394,0.1205021745448313
80.53448300000001,,0.0012918248226399393,80.913,0.75,-0.034512385583733124
81.0,,0.0012685066096528234,81.376,0.7519999742507935,-0.03033943488449738
81.465517,,0.0012390955362402642,81.841,0.7739999890327454,0.01755627120690752
81.931034,,0.0012033814165333453,82.306,0.7710000276565552,0.011136118371823454
82.396552,,0.0011611637295322922,82.771,0.7730000019073486,0.015755087880004688
82.86206899999999,,0.0011122525114242434,83.236,0.7789999842643738,0.029225859402775008
83.327586,,0.0010564692878140942,83.702,0.7549999952316284,-0.022538767478754003
83.79310299999999,,0.0009936480343415756,84.166,0.753000020980835,-0.026266460158442244
84.258621,,0.0009236360544449,84.632,0.7680000066757202,0.0071295780295118055
84.72413800000001,,0.0008462947004118639,85.095,0.7699999809265137,0.012268502290309792
85.189655,,0.000761500098472869,85.565,0.7789999842643738,0.03270016438788638
85.65517200000001,,0.0006691441487635462,86.028,0.7900000214576721,0.05750709739189737
86.12069,,0.0005691356761825444,86.49,0.7730000019073486,0.021304723468529744
86.586207,,0.0004614010667530749,86.959,0.7739999890327454,0.02428585086476364
87.051724,,0.0003458841039129264,87.42,0.7459999918937683,-0.03597046219623225
87.517241,,0.00022254613534674144,87.886,0.7239999771118164,-0.08323476345308073
87.98275899999999,,9.13680496198531e-05,88.356,0.7379999756813049,-0.052167748915073295
88.448276,,4.764709205131867e-05,88.822,0.753000020980835,-0.019037619294421528
88.913793,,0.0001944747414619068,89.28,0.753000020980835,-0.018714445627454633
89.37931,,0.0003490736707829847,89.746,0.765999972820282,0.009796082262275163
89.844828,,0.0005113873841008365,90.211,0.777999997138977,0.035989558609746564
90.310345,,0.0006813344920154666,90.676,0.7549999952316284,-0.01420819365259595
90.775862,,0.0008587974210479657,91.143,0.7710000276565552,0.020426601490185863
91.241379,,0.001043632654401422,91.608,0.7480000257492065,-0.030033223302373933
91.706897,,0.0012357017453882063,92.07,0.7609999775886536,-0.002177743650238043
92.17241399999999,,0.00143487480828303,92.54,0.7730000019073486,0.023398461953683943
92.63793100000001,,0.0016409695294379429,93.002,0.7519999742507935,-0.02300361128290891
93.103448,,0.0018536955323329863,93.465,0.7680000066757202,0.011141476586256088
93.568966,,0.002072735801576279,93.935,0.7680000066757202,0.010386997217023297
94.03448300000001,,0.0022979266353472813,94.398,0.7739999890327454,0.02268635091143066
94.5,,0.0025292345767773997,94.864,0.753000020980835,-0.023832942206294117
94.965517,,0.0027663690135596468,95.327,0.7710000276565552,0.014642055712843579
95.431034,,0.003008521834601692,95.793,0.7480000257492065,-0.036159141537784587
95.896552,,0.0032549578167474194,96.257,0.7509999871253967,-0.030247634153343132
96.36206899999999,,0.003506022589190426,96.723,0.7720000147819519,0.01496543203940639
96.827586,,0.00376273459942308,97.187,0.7739999890327454,0.018885715401751213
97.293103,,0.0040243891248031936,97.653,0.7689999938011169,0.007669472280734935
97.758621,,0.004287488378555213,98.118,0.6949999928474426,-0.15375274456468438
98.224138,,0.004549817373442186,98.584,0.7300000190734863,-0.07757870051119747
98.689655,,0.004815897921510206,99.047,0.7739999890327454,0.01832845953182296
99.155172,,0.005092961177551466,99.517,0.777999997138977,0.02721508158290181
99.62069,,0.005376523313458536,99.98,0.7720000147819519,0.01443535276214709
100.086207,,0.005647164158516384,100.442,0.7570000290870667,-0.017842131663274016
100.551724,,0.005897621072846494,100.91,0.7760000228881836,0.024051422046950443
101.017241,,0.006161028983193465,101.373,0.7680000066757202,0.0072031957062412355
101.482759,,0.006477739096938343,101.839,0.7879999876022339,0.05142154106235418
101.948276,,0.006810786003956848,102.306,0.7490000128746033,-0.032855618883982814
102.413793,,0.00704669045861375,102.765,0.7549999952316284,-0.019070653262689707
102.87931,,0.0071699246339212,103.232,0.7820000052452087,0.04046779620668222
103.344828,,0.0074004235566985715,103.697,0.753000020980835,-0.022016799176851974
103.810345,,0.007944485953836148,104.161,0.7540000081062317,-0.019181576794373732
104.275862,,0.008513235309578692,104.627,0.746999979019165,-0.03383479628645393
104.741379,,0.008451031756684603,105.095,0.7990000247955322,0.07997692570810723
105.206897,,0.007830666527059302,105.558,0.7559999823570251,-0.013272404212009321
105.672414,,0.00807064627266755,106.021,0.777999997138977,0.03498924773863863
106.13793100000001,,0.01017558515742859,106.491,0.7490000128746033,-0.027970948647948028
106.603448,,0.011956528774662844,106.954,0.7739999890327454,0.026599336626946322
107.068966,,0.008934627788723571,107.417,0.7609999775886536,-0.0017374379617971377
107.534483,,6.004045420734553e-05,107.882,0.7519999742507935,-0.0214767817811186
108.0,,0.009711631444850903,108.345,0.7730000019073486,0.024030897535937967
108.46551699999999,,0.013375110853492298,108.811,0.7480000257492065,-0.03078355190710038
108.931034,,0.010467888464440146,109.276,0.7710000276565552,0.01888385454362683
109.396552,,0.006132099913791444,109.741,0.7730000019073486,0.022720487712029794
109.862069,,0.0046068230086492665,110.206,0.7760000228881836,0.028673294208490567
110.32758600000001,,0.005640803343535761,110.672,0.753000020980835,-0.022064076422794662
110.793103,,0.006821883399105606,111.137,0.7549999952316284,-0.01836251485854406
111.258621,,0.006940650854961879,111.602,0.7739999890327454,0.022368286228170407
111.724138,,0.006691686852620574,112.065,0.7620000243186951,-0.004426790926249889
112.189655,,0.007342300620460261,112.535,0.7739999890327454,0.021096791361059446
112.655172,,0.0091896009639594,112.996,0.7739999890327454,0.020525968978168864
113.12069,,0.011044733619365841,113.466,0.753000020980835,-0.025731036148743756
113.586207,,0.01130151216567302,113.929,0.7720000147819519,0.015236975876189614
114.051724,,0.009602239906794202,114.39,0.7730000019073486,0.017080501773055947
114.51724100000001,,0.0071085587917326725,114.857,0.824999988079071,0.13013669141077358
114.982759,,0.005189084922718061,115.32,0.7480000257492065,-0.03774479044474268
115.448276,,0.004414817861045128,115.786,0.7739999890327454,0.018883618229574423
115.913793,,0.004517398044065654,116.25,0.4690000116825104,-0.645518299308597
116.37931,,0.004392017413265969,116.716,0.7730000019073486,0.016970945253321455
116.84482799999999,,0.0030237519946991888,117.183,0.7699999809265137,0.010708572541791896
117.310345,,0.0025817337858399176,117.649,0.7580000162124634,-0.01507068624932159
117.77586199999999,,0.009897909967422774,118.113,0.7739999890327454,0.02023192244243272
118.241379,,0.0310106584304997,118.579,0.7570000290870667,-0.016293923157121276
118.70689700000001,,0.06267997818438982,119.047,0.75,-0.030981999019594437
119.172414,,0.09202765028629559,119.509,0.7860000133514404,0.0480471157926785
119.63793100000001,,0.10638489470318402,119.977,0.7749999761581421,0.024698510387500504
120.103448,,0.10195324962182388,120.439,0.7739999890327454,0.023137861272071323
120.568966,,0.08268069400016209,120.91,0.7739999890327454,0.02373914199412141
121.034483,,0.05415883129773136,121.365,0.7730000019073486,0.022127781721681984
121.5,,0.020654727901171475,121.831,0.7400000095367432,-0.04925131972055761
121.96551699999999,,0.014269945180774145,122.296,0.7519999742507935,-0.022658046463011255
122.431034,,0.04700640066147788,122.761,0.7710000276565552,0.019106631941498118
122.896552,,0.0738111047508573,123.228,0.7480000257492065,-0.030721334297752055
123.362069,,0.09112494924233872,123.693,0.7739999890327454,0.026107339596231474
123.827586,,0.0970993573618111,124.158,0.7590000033378601,-0.006490330461682049
124.293103,,0.09330226370423164,124.624,0.7590000033378601,-0.006512266066543587
124.758621,,0.08360318362991126,125.087,0.7739999890327454,0.02604246324072293
125.22413800000001,,0.07058666430161961,125.55,0.6060000061988831,-0.3401972778947716
125.68965500000002,,0.05420322776242266,126.018,0.7210000157356262,-0.08997799038893545
126.15517200000001,,0.03481528185491432,126.48,0.7490000128746033,-0.029388324317564142
126.62069000000001,,0.01620928100608917,126.95,0.7480000257492065,-0.03205087636875418
127.086207,,0.0036378241378421934,127.413,0.746999979019165,-0.034769956822770676
127.55172400000001,,0.0010941535584891773,127.878,0.7739999890327454,0.023473450559360055
128.017241,,0.0010614499527812676,128.341,0.7490000128746033,-0.03159495971029705
128.48275900000002,,0.00040812030228903505,128.807,0.781000018119812,0.03751540870695023
128.948276,,0.0005574776836486911,129.272,0.7710000276565552,0.015136600543779449
129.413793,,0.0009440912546083095,129.738,0.7509999871253967,-0.028997700507480195
129.87931,,0.0018132308467795632,130.202,0.7570000290870667,-0.016440517304993484
130.344828,,0.004145854785483754,130.668,0.7480000257492065,-0.03650237834242725
130.81034499999998,,0.007098458076508147,131.134,0.765999972820282,0.0023329254801861326
131.275862,,0.007764831459907103,131.6,0.8289999961853027,0.13929365736141028
131.741379,,0.004637774142521624,132.062,0.7789999842643738,0.03016276161215822
132.206897,,0.00016683724148151163,132.531,0.7570000290870667,-0.01786603643234923
132.67241399999997,,0.0016224886794862817,132.992,0.7739999890327454,0.019172753418064167
133.13793099999998,,0.00016046421234977223,133.462,0.765999972820282,0.0018450469677945354
133.60344800000001,,0.0022945816049685344,133.925,0.7639999985694885,-0.0023147444177599678
134.06896600000002,,0.0014637348265422224,134.387,0.7509999871253967,-0.030350788761533475
134.53448300000002,,0.002012816769149363,134.853,0.7739999890327454,0.020124436816925394
135.0,,0.005137693601734289,135.317,0.7760000228881836,0.02491738344920235
135.465517,,0.005715006979075939,135.783,0.7699999809265137,0.012337489665060555
135.931034,,0.0037751296685359726,136.247,0.7739999890327454,0.02158589584604906
136.396552,,0.0005462722018955959,136.713,0.7519999742507935,-0.02578511504223167
136.862069,,0.002391997343708257,137.18,0.7620000243186951,-0.0034306822959853903
137.327586,,0.0033106763939806834,137.646,0.7609999775886536,-0.005049657231489044
137.793103,,0.0014491642446254603,138.11,0.7519999742507935,-0.024121948046175963
138.258621,,0.0015406428900702556,138.575,0.781000018119812,0.039555209656864196
138.724138,,0.0025229130950960178,139.036,0.753000020980835,-0.02100368786579794
139.189655,,0.00023327105253143657,139.506,0.7689999938011169,0.014232364409686058
139.655172,,0.0030173235385480912,139.969,0.7950000166893005,0.0711796329451115
140.12069,,0.004084295681455874,140.432,0.7739999890327454,0.025647615862301267
140.586207,,0.002924135442151021,140.897,0.7710000276565552,0.019242664027083977
141.05172399999998,,0.002428333151524399,141.361,0.7620000243186951,-0.00032689116911140776
141.51724099999998,,0.0044665250152968175,141.827,0.75,-0.026526168622132557
141.982759,,0.007613316178485747,142.291,0.753000020980835,-0.020137679041684224
142.44827600000002,,0.009234261237117748,142.757,0.7730000019073486,0.023200834412162884
142.913793,,0.008560604393650351,143.225,0.7739999890327454,0.02506629230814658
143.37931,,0.006949379304052422,143.691,0.7490000128746033,-0.02978226039328413
143.844828,,0.0060058856921831605,144.151,0.765999972820282,0.006814005490288832
144.310345,,0.0063151468372136125,144.616,0.7559999823570251,-0.015458372826825852
144.77586200000002,,0.007509706292871748,145.084,0.7609999775886536,-0.005081901832515496
145.241379,,0.008746431915993348,145.546,0.7490000128746033,-0.03175833698137781
145.706897,,0.009142449794011307,146.01,0.7699999809265137,0.013460083138521473
146.172414,,0.00824876049059519,146.479,0.7649999856948853,0.0020491615199859053
146.637931,,0.006451999853483466,146.943,0.753000020980835,-0.02458193556768034
147.103448,,0.0050007864809285055,147.406,0.7870000004768372,0.04904899398531761
147.568966,,0.005241039648646225,147.871,0.753000020980835,-0.025410928624652964
148.034483,,0.007165226088907958,148.335,0.7739999890327454,0.020022470623693323
148.5,,0.008824402523087338,148.801,0.7459999918937683,-0.04122177930400583
148.965517,,0.008086967981632751,149.265,0.7950000166893005,0.06537284639098019
149.43103399999998,,0.0051672768116599625,149.731,0.7590000033378601,-0.01313026830618905
149.89655199999999,,0.0025072231225548194,150.196,0.7850000262260437,0.04353202183029797
150.362069,,0.0018724303731405567,150.661,0.7739999890327454,0.01967221956778837
150.82758600000003,,0.002523624689091778,151.128,0.7739999890327454,0.019862119123803115
151.293103,,0.0027203714848009946,151.594,0.7730000019073486,0.017951568115936543
151.758621,,0.0020873702246180415,152.058,0.7739999890327454,0.020468105616525584
152.224138,,0.0016648749875024676,152.52,0.7710000276565552,0.0143296985539691
152.68965500000002,,0.0021650074256610113,152.988,0.7710000276565552,0.014774684519492081
153.155172,,0.003118066650116024,153.45,0.753000020980835,-0.02396209628121496
153.62069,,0.0036576598008873883,153.921,0.746999979019165,-0.03653608746248563
154.086207,,0.0034045539601112334,154.383,0.7820000052452087,0.04021937095865956
154.551724,,0.0024996921299805224,154.849,0.765999972820282,0.005854683828278747
155.017241,,0.001389465248882265,155.314,0.7720000147819519,0.019397582147679213
155.482759,,0.0007135396528911695,155.779,0.7509999871253967,-0.02591989381242273
155.948276,,0.0007971870955031725,156.246,0.7440000176429749,-0.04078585713414157
156.413793,,0.0009857967896312997,156.705,0.7400000095367432,-0.04917704818655174
156.87931,,3.515762022474609e-05,157.177,0.9629999995231628,0.43691914304404306
157.34482799999998,,0.0023817377704656853,157.636,0.7739999890327454,0.025343676411370253
157.81034499999998,,0.00493896764536661,158.11,0.7870000004768372,0.05377945926046432
158.275862,,0.005958226963542553,158.568,0.7770000100135803,0.03202407945479513
158.741379,,0.0051993893969751225,159.032,0.7599999904632568,-0.005065290335541606
159.20689700000003,,0.0038499227976900217,159.502,0.7570000290870667,-0.01173602080498884
159.672414,,0.003019287340788279,159.962,0.7720000147819519,0.020730164963520276
160.137931,,0.0028768909569736145,160.431,0.753000020980835,-0.02094983687457341
160.60344800000001,,0.0031044681579640242,160.89,0.7549999952316284,-0.016942397811759873
161.06896600000002,,0.0035337830878262597,161.36,0.7480000257492065,-0.032596931665167334
161.534483,,0.004238430786723441,161.826,0.7760000228881836,0.027959091225018703
162.0,,0.005250741442085888,162.291,0.7739999890327454,0.023127425750590836
162.465517,,0.006139245994504132,162.757,0.753000020980835,-0.02311266754745659
162.931034,,0.005948031037815184,163.222,0.7480000257492065,-0.034495357552811745
163.396552,,0.004119358348458379,163.68,0.7480000257492065,-0.03497207570056266
163.862069,,0.0016679271700652872,164.147,0.7490000128746033,-0.03324363347957562
164.327586,,0.0007640121695983574,164.612,0.7440000176429749,-0.044547446555232295
164.793103,,0.002552219086390247,165.08,0.7559999823570251,-0.018762670329944067
165.258621,,0.005619018806007367,165.542,0.7760000228881836,0.024514325196935284
165.72413799999998,,0.007100752705743666,166.006,0.7480000257492065,-0.03671196197807388
166.189655,,0.005403346891615173,166.476,0.7710000276565552,0.013251117384809715
166.655172,,0.0018025241765932914,166.936,0.7630000114440918,-0.004241281184604181
167.12069,,0.0006556207432712616,167.407,0.753000020980835,-0.02600647366281582
167.58620699999997,,7.875278572187983e-05,167.865,0.7599999904632568,-0.010651318880804853
168.051724,,0.002322125232492366,168.335,0.75,-0.03225291927275993
168.517241,,0.0034784742986759265,168.8,0.7509999871253967,-0.029814880660569122
168.98275900000002,,0.0016570086956474307,169.265,0.753000020980835,-0.025131242577611918
169.44827600000002,,0.0019698356294683213,169.73,0.7699999809265137,0.01228971224979768
169.913793,,0.004764712213991325,170.195,0.765999972820282,0.004006237154098204
170.37931,,0.005113140451206775,170.661,0.8050000071525574,0.08944020656093189
170.844828,,0.003681831323457778,171.124,0.7760000228881836,0.026748584977287833
171.310345,,0.0026618084048161132,171.59,0.777999997138977,0.03160287044754065
171.775862,,0.003511039216230788,172.051,0.7710000276565552,0.01684200921544427
172.241379,,0.0051745552659448035,172.52,0.7699999809265137,0.015130685205223038
172.706897,,0.0049566139598259205,172.981,0.7480000257492065,-0.032368738748583266
173.172414,,0.0014199216471027206,173.451,0.7739999890327454,0.024656977384747595
173.637931,,0.00390792939045325,173.913,0.7580000162124634,-0.009881371598010157
174.103448,,0.007752864759256524,174.376,0.7739999890327454,0.025226630931286593
174.568966,,0.007693198343215716,174.842,0.8980000019073486,0.29555365612425905
175.034483,,0.003904728374164795,175.309,0.7739999890327454,0.025497688594081455
175.5,,0.0008376833261928029,175.775,0.7459999918937683,-0.03549189355686888
175.96551699999998,,0.0030254638884633337,176.24,0.7699999809265137,0.01672057155721281
176.43103399999998,,0.0013587400735994965,176.705,0.7689999938011169,0.014381362830461868
176.896552,,0.0018626469114834082,177.165,0.753000020980835,-0.020718532792598485
177.36206900000002,,0.0030552691086138946,177.631,0.7739999890327454,0.024717108710546318
177.827586,,0.001241084406468679,178.099,0.7739999890327454,0.024336427136247094
178.293103,,0.0012220709306282503,178.562,0.7509999871253967,-0.02620690064150899
178.758621,,0.0019138782837722311,179.025,0.7739999890327454,0.023426247569888772
179.224138,,0.0010265149235563567,179.494,0.7480000257492065,-0.03372174448229706
179.68965500000002,,1.0946510905911612e-05,179.958,0.7730000019073486,0.020228712636184032
180.155172,,0.0011919082225567688,180.42,0.7480000257492065,-0.03475032897904216
180.62069,,0.003393994300775141,180.886,0.7749999761581421,0.023578535788951124
181.086207,,0.005669189040663224,181.356,0.7580000162124634,-0.013919494326949597
181.551724,,0.005259774095068364,181.822,0.7699999809265137,0.011810727547703175
182.01724099999998,,0.0011345575107460286,182.28,0.7730000019073486,0.017993663113046125
182.482759,,0.0037851475398579925,182.745,0.7689999938011169,0.008997587655718974
182.948276,,0.005051128564285424,183.213,0.7739999890327454,0.01968975132806006
183.413793,,0.001023377595088156,183.679,0.753000020980835,-0.026176368695485966
183.87931,,0.005698710940646761,184.143,0.7549999952316284,-0.021843981386150953
184.34482799999998,,0.010777629909711052,184.609,0.7739999890327454,0.019616401697429044
184.81034499999998,,0.011590833068618052,185.07,0.753000020980835,-0.02597936243352788
185.27586200000002,,0.008603121933023344,185.539,0.7630000114440918,-0.003951824433929999
185.74137900000002,,0.004214218110783783,186.002,0.7940000295639038,0.06390643063343282
186.206897,,0.0007069088531649405,186.472,0.7570000290870667,-0.01631304626996497
186.672414,,0.000979559742704409,186.932,0.7699999809265137,0.012458321572274276
187.137931,,0.0012862308806889375,187.395,0.746999979019165,-0.037156965740716814
187.60344800000001,,0.001519787461467375,187.861,0.7689999938011169,0.011296776561761153
188.06896600000002,,0.0029863219287662827,188.332,0.7699999809265137,0.014013425971180937
188.534483,,0.00574083667517852,188.79,0.7749999761581421,0.025443731203257866
189.0,,0.008120556562849166,189.255,0.7620000243186951,-0.0023586980144727305
189.465517,,0.008287479772790107,189.72,0.6539999842643738,-0.23716831111496414
189.931034,,0.006412752840025703,190.188,0.7730000019073486,0.0225235132849387
190.39655199999999,,0.004720706013218517,190.653,0.753000020980835,-0.02068000133497692
190.862069,,0.005137777571237488,191.121,0.7889999747276306,0.05804854716046169
191.327586,,0.007253642850701936,191.586,0.7519999742507935,-0.022345175329798274
191.793103,,0.008813397442843863,192.047,0.7369999885559082,-0.05489729621723146
192.25862099999998,,0.008122280312608405,192.516,0.7749999761581421,0.02792555615141437
192.72413799999998,,0.005750877730230973,192.98,0.7590000033378601,-0.0069924353406455066
193.189655,,0.003633892292642093,193.442,0.7730000019073486,0.02335694727472433
193.655172,,0.0026744668900925174,193.913,0.7739999890327454,0.02529625789458812
194.12069000000002,,0.0019522327060801984,194.376,0.7739999890327454,0.02497643451911366
194.586207,,0.0004905745670649301,194.842,0.7580000162124634,-0.01027331921612047
195.051724,,0.0010729226394328942,195.306,0.7789999842643738,0.03502635323357665
195.517241,,0.0012647474360782437,195.765,0.7910000085830688,0.06067172182280418
195.98275900000002,,0.0002624787098767553,196.232,0.753000020980835,-0.022647266188512323
196.448276,,0.0022206400222410903,196.698,0.765999972820282,0.005127465390029245
196.913793,,0.0029715183116974125,197.162,0.7739999890327454,0.02200789601936178
197.37931,,0.0019533787481779245,197.627,0.7739999890327454,0.021474691752630483
197.844828,,9.200927600003006e-05,198.095,0.7630000114440918,-0.002992221649219642
198.310345,,0.0008931632796151698,198.558,0.75,-0.03177080067770273
198.775862,,1.019115303316635e-05,199.021,0.7720000147819519,0.015762527374962785
199.241379,,0.0018844908231589782,199.491,0.7860000133514404,0.04593862197623677
199.706897,,0.0025956158637930053,199.954,0.7480000257492065,-0.03709284890322585
200.172414,,0.0011883318734197165,200.417,0.9049999713897705,0.3048036143245973
200.63793099999998,,0.0009707632601069785,200.882,0.7739999890327454,0.0193482323619004
201.103448,,0.001992499788922379,201.345,0.7580000162124634,-0.015464010002195178
201.568966,,0.0016782152882557763,201.811,0.75,-0.0327531321446034
202.034483,,0.0010134800746748845,202.277,0.7599999904632568,-0.010736943498240831
202.5,,0.00014027612331441976,202.743,0.7739999890327454,0.020077339433743475
202.965517,,0.001602021435535497,203.21,0.7570000290870667,-0.016571612007587465
203.431034,,0.0035359444536626652,203.676,0.7710000276565552,0.014380875490506791
203.896552,,0.0031981375373012102,204.139,0.753000020980835,-0.024333321847425454
204.36206900000002,,0.0009524038685096815,204.605,0.7689999938011169,0.011061837550695014
204.827586,,0.007216439154589031,205.068,0.7559999823570251,-0.0167041724366834
205.293103,,0.011947978905637426,205.531,0.7739999890327454,0.0230714339056771
205.758621,,0.012648994805414263,205.999,0.7870000004768372,0.05194147009537671
206.224138,,0.009324818457157455,206.462,0.7549999952316284,-0.017256004565994295
206.689655,,0.0038499194658392945,206.932,0.5419999957084656,-0.4808375382077354
207.155172,,0.0010012554502066208,207.394,0.7549999952316284,-0.016381479269890014
207.62069,,0.002855758706699613,207.86,0.7739999890327454,0.02534231802202745
208.086207,,0.001590764965517136,208.324,0.7739999890327454,0.02559281434273011
208.551724,,0.0003846924502218996,208.79,0.7739999890327454,0.025757582052774026
209.01724099999998,,0.0008691014551386846,209.25,0.8140000104904175,0.11297871436653363
209.482759,,0.0005620245331989045,209.716,0.7699999809265137,0.01710207086198498
209.948276,,0.0017182434362017429,210.18,0.7720000147819519,0.0213518363889378
210.413793,,0.0044749842449753625,210.646,0.7580000162124634,-0.00934648103599998
210.87930999999998,,0.006374195155879357,211.113,0.746999979019165,-0.03359370829647164
211.344828,,0.00579184640533336,211.579,0.8320000171661377,0.15123368917682503
211.810345,,0.003930222376416542,212.047,0.7739999890327454,0.024450283729959398
212.27586200000002,,0.002579033016631074,212.509,0.7820000052452087,0.04140551402830868
212.741379,,0.0016280817352302475,212.977,0.7680000066757202,0.010390471506166492
213.206897,,0.00017059339230814032,213.44,0.7630000114440918,-0.001042596865906363
213.672414,,0.001212660602368335,213.91,0.6330000162124634,-0.2848202493565529
214.137931,,0.001065868396422061,214.365,0.7440000176429749,-0.043543909856162875
214.60344800000001,,0.0005541163800364516,214.831,0.8149999976158142,0.11060506012799286
215.068966,,0.0019544720112770206,215.295,0.6990000009536743,-0.14261645996846492
215.534483,,0.0021108562687162324,215.761,0.7730000019073486,0.018155257070563757
216.0,,0.0018340334578769574,216.228,0.8450000286102295,0.17463484775748642
216.465517,,0.002359641966476894,216.693,0.7730000019073486,0.017468095095364285
216.93103399999998,,0.003662088147167219,217.161,0.7749999761581421,0.021608400171258448
217.39655199999999,,0.00454008433319143,217.627,0.7480000257492065,-0.03734022422428287
217.862069,,0.0038536670207249273,218.087,0.7649999856948853,-0.00033354839823306905
218.327586,,0.0014039735515538323,218.55,0.75,-0.03294762643905388
218.793103,,0.0020196774143596266,219.017,0.7229999899864197,-0.09161202247666186
219.25862099999998,,0.005126343981853753,219.487,0.7739999890327454,0.01974712913214573
219.724138,,0.006815378405132363,219.947,0.7490000128746033,-0.03438802718726157
220.18965500000002,,0.006771873195200109,220.41,0.7710000276565552,0.013947472581056913
220.65517200000002,,0.005636446306065664,220.875,0.7620000243186951,-0.005192271322328478
221.12069,,0.004543072903887161,221.346,0.7739999890327454,0.021469472735286738
221.586207,,0.004228772002400774,221.805,0.7400000095367432,-0.052051768573777364
222.051724,,0.00447956535847024,222.27,0.753000020980835,-0.02315844255884368
222.517241,,0.0045274683879805095,222.735,0.7620000243186951,-0.0029780923842353917
222.98275900000002,,0.003910575473211869,223.202,0.7490000128746033,-0.030742634933846047
223.448276,,0.002773794458653967,223.668,0.7689999938011169,0.013357514377383632
223.913793,,0.0014625810396507847,224.133,0.7730000019073486,0.022553822795670336
224.37931,,0.0001291106341142116,224.598,0.7630000114440918,0.0011897265551687355
224.844828,,0.0011813677097286931,225.061,0.765999972820282,0.008075888333625174
225.31034499999998,,0.0022325457048437756,225.531,0.7580000162124634,-0.009085719813058777
225.775862,,0.0026534536185846844,225.995,0.7699999809265137,0.017234492077807
226.241379,,0.0023817323014899863,226.458,0.7509999871253967,-0.024079960155036904
226.706897,,0.0017606487193613475,226.921,0.8019999861717224,0.08701204582733882
227.172414,,0.0009861824092715164,227.39,0.7649999856948853,0.006284830716151259
227.63793099999998,,0.00015308074982905298,227.857,0.7739999890327454,0.02567996525931386
228.103448,,0.0016159401095051083,228.317,0.7739999890327454,0.025376951882044644
228.56896600000002,,0.0026021110802636306,228.783,0.7490000128746033,-0.029474622540142676
229.03448300000002,,0.0022788238045754437,229.247,0.7519999742507935,-0.02339676550751092
229.5,,0.0008388525615132874,229.713,0.7990000247955322,0.07848260731578378
229.965517,,0.0006929215223852071,230.18,0.7549999952316284,-0.017938879126485546
230.431034,,0.001666712686601284,230.646,0.7739999890327454,0.022866562121603425
230.896552,,0.002293068637719194,231.111,0.7699999809265137,0.013551753171053057
231.362069,,0.002838701144286606,231.576,0.7429999709129333,-0.045866267736369766
231.827586,,0.0029850468037257378,232.039,0.7720000147819519,0.016742665280855166
232.293103,,0.0023829603638191887,232.502,0.7570000290870667,-0.01646946900840587
232.758621,,0.001277424322703684,232.965,0.7820000052452087,0.03752006168121562
233.224138,,3.253345527313491e-05,233.435,0.7509999871253967,-0.030424643321546388
233.689655,,0.0014163911234640195,233.901,0.777999997138977,0.028074605640287242
234.155172,,0.002927798903136712,234.366,0.7739999890327454,0.019128291164761897
234.62069,,0.0034948980254314414,234.832,0.7509999871253967,-0.031112439495112
235.086207,,0.0022681972582304847,235.291,0.7749999761581421,0.02114726025568616
235.55172399999998,,0.0001537371171099541,235.757,0.7649999856948853,-0.0005613251740131265
236.01724099999998,,0.0007357378518661748,236.224,0.7699999809265137,0.0105141664068154
236.482759,,0.00033351675251234975,236.69,0.7699999809265137,0.010796189324536276
236.94827600000002,,0.0019142574817613087,237.154,1.00600004196167,0.5253362730774832
237.413793,,0.0036157063151715783,237.62,0.753000020980835,-0.02539308841274124
237.87931,,0.009251805466856439,238.08,0.796999990940094,0.07100878535186016
238.344828,,0.02376661129395781,238.55,0.7699999809265137,0.012779555983389939
238.810345,,0.045731511788487715,239.01,0.7509999871253967,-0.027985590471648277
239.27586200000002,,0.06513176698752156,239.48,0.7730000019073486,0.020589296482847918
239.741379,,0.07087326901624312,239.943,0.7599999904632568,-0.007092133740614485
240.206897,,0.05982508763717887,240.406,0.7699999809265137,0.01531284537595321
240.672414,,0.037493504698500865,240.871,0.7620000243186951,-0.00153877960768951
241.137931,,0.011528074062001157,241.335,0.7699999809265137,0.01640947890758913
241.603448,,0.013415805553164429,241.801,0.7409999966621399,-0.046326497525537115
242.068966,,0.03554432897444108,242.265,0.7480000257492065,-0.030719672875307472
242.534483,,0.053479254599664565,242.731,0.7630000114440918,0.002216827684532581
243.0,,0.06504565986070268,243.199,0.7739999890327454,0.02633232458122518
243.465517,,0.068133002394583,243.664,0.7730000019073486,0.02419367703663513
243.93103399999998,,0.06268952017291891,244.129,0.7749999761581421,0.028479209241348412
244.39655199999999,,0.05180087118585419,244.595,0.753000020980835,-0.019632889567431863
244.862069,,0.04009841913052368,245.058,0.7699999809265137,0.017116582903154997
245.327586,,0.030646435399535012,245.52,0.4909999966621399,-0.5911162767984597
245.793103,,0.023595861788473196,245.988,0.7490000128746033,-0.02951056142533568
246.258621,,0.017733288003308752,246.45,0.7480000257492065,-0.03225197142661277
246.724138,,0.012525629593842569,246.921,0.7570000290870667,-0.013261735468761788
247.18965500000002,,0.008277549328044784,247.383,0.7760000228881836,0.027479687471861743
247.655172,,0.004964327779741015,247.849,0.7459999918937683,-0.038547801108714634
248.12069,,0.0018107427998973337,248.314,0.7480000257492065,-0.034853795624059186
248.586207,,0.0018062009680991002,248.78,0.7710000276565552,0.014616496245838814
249.051724,,0.005492586930693225,249.247,0.7540000081062317,-0.023014486798564437
249.517241,,0.00823365043682526,249.705,0.7559999823570251,-0.019188518755745714
249.982759,,0.009546524545670752,250.173,0.777999997138977,0.02828945086605527
250.44827600000002,,0.009869550825847973,250.638,0.7730000019073486,0.017037270404681972
250.913793,,0.009715927550621258,251.103,0.7480000257492065,-0.03768387132384407
251.37931000000003,,0.008969185669881365,251.569,0.7459999918937683,-0.04218565997890386
251.844828,,0.007529298304740284,252.032,0.7739999890327454,0.018786892015068418
252.31034499999998,,0.006207175375488566,252.501,0.7559999823570251,-0.02034217709906709
252.77586200000002,,0.006090134194924401,252.962,0.7739999890327454,0.019073834230133962
253.241379,,0.007039987116330081,253.431,0.8309999704360962,0.14356595945056777
253.706897,,0.007574198632874489,253.89,0.7839999794960022,0.0415794682627609
254.172414,,0.0065238589056030956,254.359,0.753000020980835,-0.025461738467645923
254.63793099999998,,0.004476722841852454,254.825,0.7580000162124634,-0.01400222383840654
255.10344800000001,,0.00320887442523354,255.285,0.7739999890327454,0.0214742130972346
255.56896600000002,,0.0036057537048481358,255.75,0.7490000128746033,-0.03234087275208341
256.03448299999997,,0.004618257366959052,256.217,0.7409999966621399,-0.04910684312873648
256.5,,0.004983181660519336,256.683,0.7590000033378601,-0.009236486408260492
256.965517,,0.005665050126033014,257.151,0.7580000162124634,-0.010788545542888939
257.431034,,0.009176013873327437,257.616,0.7680000066757202,0.011577809409056191
257.896552,,0.015933008211101735,258.08,0.7490000128746033,-0.02930090286229227
258.362069,,0.02250395197979083,258.542,0.7739999890327454,0.02560096920330096
258.827586,,0.024518102875741486,259.01,0.7680000066757202,0.012872249332349763
259.29310300000003,,0.020839100272239553,259.473,0.7480000257492065,-0.03046050178991925
259.758621,,0.014263636188647996,259.936,0.7789999842643738,0.03720740386271542
260.224138,,0.008607574302743845,260.406,0.753000020980835,-0.019421261310918484
260.689655,,0.005545434524329688,260.872,0.7720000147819519,0.02187518740152017
261.155172,,0.003738293719376266,261.335,0.7580000162124634,-0.0088345782960577
261.62068999999997,,0.0006239821972028139,261.801,0.7760000228881836,0.030068415484396076
262.086207,,0.004570668473682227,262.266,0.7699999809265137,0.016589755353797166
262.551724,,0.009597802649055746,262.731,0.7620000243186951,-0.0013274283510045254
263.017241,,0.011543052821176772,263.191,0.7739999890327454,0.024261638548144625
263.482759,,0.010143365208372581,263.657,0.7720000147819519,0.019300473185751368
263.94827599999996,,0.007819562855110384,264.121,0.7720000147819519,0.018665902275384606
264.413793,,0.006668470056814318,264.586,0.753000020980835,-0.02337467211170311
264.87931,,0.006631801385148063,265.054,0.75,-0.03054969248211229
265.34482799999995,,0.006565658046283126,265.516,0.75,-0.031162526657852616
265.810345,,0.005731454315015146,265.984,0.7559999823570251,-0.01865862123768577
266.27586199999996,,0.0038744133776790622,266.446,0.7749999761581421,0.02223047481938799
266.741379,,0.0010670345186168829,266.91,0.7570000290870667,-0.017411775153440626
267.206897,,0.0017663650514936654,267.38,0.7879999876022339,0.04979130315828855
267.672414,,0.0030002293130517916,267.845,0.7459999918937683,-0.04194507062863964
268.137931,,0.001894615789905873,268.31,0.7820000052452087,0.036361690390199014
268.603448,,0.00033288782218437275,268.776,0.7699999809265137,0.010205642800748363
269.06896600000005,,0.0017413865746287015,269.235,0.75,-0.03326703752633347
269.53448299999997,,0.001770348278454559,269.7,0.7459999918937683,-0.04177322585196738
270.0,,0.0015111228099097592,270.166,0.7739999890327454,0.01953900844879852
270.465517,,0.001982105496135592,270.632,0.7620000243186951,-0.006201854579552003
270.931034,,0.002754879886756655,271.095,0.7630000114440918,-0.0035399061559228968
271.396552,,0.002555056113381597,271.565,0.7580000162124634,-0.013884461909198518
271.86206899999996,,0.0009503609369355844,272.028,0.7860000133514404,0.04771528837486414
272.327586,,0.0008948502215840717,272.491,0.7720000147819519,0.017843085728527427
272.793103,,0.0012980279598757878,272.959,0.7519999742507935,-0.025089409153219524
273.258621,,6.409526858281193e-05,273.42,0.8159999847412109,0.11497704021728654
273.724138,,0.0015085646967251416,273.886,0.7889999747276306,0.056760828515228255
274.18965499999996,,0.0009168170816832074,274.356,0.7829999923706055,0.04425224566344194
274.655172,,0.0019906413143326493,274.821,0.7739999890327454,0.025145408450430225
275.12069,,0.0052001415151699815,275.287,0.6710000038146973,-0.1988344576181681
275.586207,,0.0061132897390647955,275.745,0.6309999823570251,-0.2856571977779105
276.051724,,0.003536610626892797,276.21,0.7570000290870667,-0.010932483970301516
276.517241,,0.0011837979900119542,276.676,0.7599999904632568,-0.004292429265379221
276.98275900000004,,0.004033210716711608,277.14,0.7570000290870667,-0.010834990085128123
277.448276,,0.00036788897004969625,277.606,0.765999972820282,0.008655979403529059
277.913793,,0.010723917037858717,278.076,0.7739999890327454,0.025862909285340234
278.37931,,0.02391074200987478,278.538,0.7620000243186951,-0.0006011456453580649
278.844828,,0.03127479345373076,279.002,0.753000020980835,-0.02061764398151101
279.31034500000004,,0.029152995637904057,279.472,0.765999972820282,0.007220260979380154
279.77586199999996,,0.020344946707694038,279.932,0.7730000019073486,0.02192620301333115
280.241379,,0.009604952129320441,280.395,0.7620000243186951,-0.002626634236935335
280.706897,,0.001222626568281043,280.861,0.7699999809265137,0.01418959120038434
281.172414,,0.012753050705696899,281.331,0.7739999890327454,0.02228512261171413
281.637931,,0.024346417564389256,281.79,0.7739999890327454,0.02167897030542542
282.10344799999996,,0.03274332651270641,282.262,0.7919999957084656,0.060320200130097416
282.568966,,0.0346948938882347,282.72,0.6959999799728394,-0.1493568097787236
283.034483,,0.030284389944348317,283.191,0.7570000290870667,-0.01692430305412728
283.5,,0.023211976896278956,283.656,0.753000020980835,-0.026028406280748314
283.965517,,0.01772024681410526,284.121,0.7559999823570251,-0.01979371897739599
284.431034,,0.015281489911384174,284.58,0.7739999890327454,0.019218331367103544
284.89655200000004,,0.014243613504320504,285.05,0.7559999823570251,-0.020097256270825085
285.362069,,0.012312601802712554,285.513,0.7739999890327454,0.019124982714661645
285.827586,,0.00892154208863909,285.976,0.7519999742507935,-0.028693037011286695
286.293103,,0.005253902144906924,286.446,0.7429999709129333,-0.048087298918893615
286.758621,,0.0024979861052186504,286.905,0.7739999890327454,0.019758716964868826
287.22413800000004,,0.0005186098786081651,287.376,0.7519999742507935,-0.02777859346575289
287.689655,,0.001743192310010691,287.841,0.7559999823570251,-0.018598223491177863
288.155172,,0.004868057233291592,288.306,0.753000020980835,-0.02461029654282423
288.62069,,0.008145620431574956,288.771,0.7720000147819519,0.017350072294770154
289.086207,,0.009967147084164196,289.236,0.7760000228881836,0.02665639850859084
289.55172400000004,,0.00895197788578988,289.702,0.7570000290870667,-0.014138454763932821
290.01724099999996,,0.00518913114966878,290.161,0.7739999890327454,0.023487150211821912
290.482759,,0.0007595009196772705,290.627,0.7710000276565552,0.017511475908688134
290.948276,,0.001501023549677293,291.095,0.8259999752044678,0.1378530533352281
291.413793,,0.0005105261004175112,291.558,0.7760000228881836,0.029377909830010096
291.87931,,0.0019887531395890016,292.021,0.777999997138977,0.03411892108178032
292.344828,,0.0035095182222138165,292.491,0.7739999890327454,0.025702043797670916
292.81034500000004,,0.00362853029469277,292.954,0.7509999871253967,-0.02420474982049653
293.275862,,0.003783906690840303,293.417,0.7739999890327454,0.026004147899055433
293.74137900000005,,0.00457037646405477,293.882,0.8920000195503235,0.2830822995224604
294.206897,,0.004791825809073907,294.345,0.7549999952316284,-0.01549529215563309
294.672414,,0.003730090779721314,294.81,0.7720000147819519,0.021339608165178083
295.13793100000004,,0.00287726787923799,295.276,0.7720000147819519,0.021041993068524712
295.603448,,0.004059976935885512,295.741,0.753000020980835,-0.020736413563322478
296.068966,,0.006539522380775812,296.206,0.7490000128746033,-0.029910698361233005
296.534483,,0.007511298284385493,296.672,0.7730000019073486,0.021855572193643393
297.0,,0.005665945219114674,297.139,0.7580000162124634,-0.011390540925315221
297.46551700000003,,0.003130884797136043,297.605,0.7630000114440918,-0.0010914775893583182
297.931034,,0.0031552515557674854,298.065,0.7760000228881836,0.026627449151408376
298.396552,,0.006344773051614623,298.535,0.7490000128746033,-0.032790367595326005
298.862069,,0.009957022503473655,298.995,0.7620000243186951,-0.005035116023624804
299.327586,,0.010839408085737669,299.465,0.7360000014305115,-0.06220320315459402
299.79310300000003,,0.008386544087202937,299.928,0.7590000033378601,-0.012557460466611449
300.258621,,0.004539499594305908,300.39,0.7360000014305115,-0.06305526430222928
300.724138,,0.0016349563659915972,300.856,0.7710000276565552,0.01289538833102433
301.189655,,0.0006655311599838191,301.321,0.7739999890327454,0.019226358837209426
301.65517200000005,,0.0010629859269182128,301.786,0.7739999890327454,0.01912604302930969
302.12069,,0.0015100812879224957,302.25,0.7720000147819519,0.014776416317403148
302.586207,,0.0011417161931273883,302.715,0.7590000033378601,-0.013430836800143293
303.05172400000004,,0.0004786473478330293,303.18,0.7720000147819519,0.015110797899380598
303.517241,,0.0010858231615826757,303.645,0.753000020980835,-0.02596709314716022
303.982759,,0.003778747503634504,304.11,0.75,-0.032099522383631715
304.448276,,0.00711816593350945,304.575,0.7789999842643738,0.03155973897363493
304.913793,,0.00824878514161408,305.043,0.7739999890327454,0.021206174339952664
305.37931000000003,,0.0056766545490875816,305.506,0.7739999890327454,0.021790832583051176
305.844828,,0.0010236689116870342,305.976,0.7730000019073486,0.020223722532633572
306.310345,,0.002458476499998673,306.439,0.7540000081062317,-0.02055153926068484
306.775862,,0.003120824434404882,306.905,0.7730000019073486,0.02144982512762371
307.241379,,0.0021712345344756007,307.369,0.7559999823570251,-0.01501105116263905
307.70689699999997,,0.0017039460770942208,307.834,0.7739999890327454,0.024732129829076743
308.172414,,0.0023454508677328086,308.299,0.7710000276565552,0.01865885435181045
308.637931,,0.003399195745581195,308.765,0.7509999871253967,-0.024531171077835406
309.103448,,0.004542106600883954,309.232,0.7720000147819519,0.021511551848012678
309.568966,,0.0061786982724564045,309.69,0.7710000276565552,0.01952309918556376
310.034483,,0.008100754732872742,310.161,0.7639999985694885,0.004355894437441414
310.5,,0.008936967341004399,310.62,0.734000027179718,-0.06103056291193121
310.96551700000003,,0.007655796838567569,311.087,0.7390000224113464,-0.05027537865129682
311.431034,,0.00512091649381992,311.55,0.7630000114440918,0.001767280325419389
311.896552,,0.0034049748567363297,312.021,0.75,-0.026898728814061794
312.362069,,0.003599035323682622,312.483,0.7710000276565552,0.01842168320955976
312.827586,,0.004777394554867338,312.951,0.7730000019073486,0.022273787271130923
313.29310300000003,,0.005164373311515471,313.414,0.7490000128746033,-0.030577136526261525
313.758621,,0.0039450581136997636,313.88,0.7720000147819519,0.018927210142494287
314.224138,,0.0018345340390248628,314.343,0.7720000147819519,0.01830054906232412
314.689655,,0.00023426933826298346,314.808,0.7549999952316284,-0.01936570353355606
315.155172,,6.942277314277509e-05,315.273,0.7570000290870667,-0.015621070265606888
315.62068999999997,,0.0011794194371229849,315.738,0.7770000100135803,0.027374766268287627
316.086207,,0.0024893027110617833,316.203,0.7710000276565552,0.013780098591988558
316.551724,,0.0028981142032612817,316.668,0.7720000147819519,0.015506688714184598
317.017241,,0.0023346464936715864,317.135,0.7680000066757202,0.006424793900340532
317.482759,,0.0018077392907200206,317.602,0.7519999742507935,-0.028705129101244828
317.94827599999996,,0.0020905590496983753,318.062,0.7730000019073486,0.016879170472788845
318.413793,,0.002698408347696128,318.532,0.7699999809265137,0.010285604569445462
318.87931000000003,,0.0026954458441679346,318.995,0.7580000162124634,-0.015803885836613164
319.344828,,0.002056662170827618,319.457,0.753000020980835,-0.026533253086625786
319.810345,,0.0014625508934276597,319.925,0.7850000262260437,0.043452287798473904
320.275862,,0.0011586668063214805,320.388,0.7739999890327454,0.019853399105899474
320.741379,,0.0009790805699844362,320.854,0.75,-0.0319817646377642
321.20689699999997,,0.0012833573984651278,321.32,0.7739999890327454,0.02082963858795369
321.672414,,0.0027680669505774345,321.786,0.7599999904632568,-0.00909214787753082
322.137931,,0.0051065812800962325,322.25,0.7590000033378601,-0.010654030868553903
322.603448,,0.006650383331657963,322.716,0.7490000128746033,-0.03180591277436148
323.068966,,0.006055525451536879,323.181,0.777999997138977,0.03200780998989715
323.53448299999997,,0.0038353894899110933,323.646,0.7699999809265137,0.01519097430314398
324.0,,0.0018225228854361702,324.106,0.6700000166893005,-0.2021026540726556
324.465517,,0.001142407222929484,324.572,0.7559999823570251,-0.014228854308125346
324.931034,,0.001001263876453075,325.035,0.7730000019073486,0.02324300111465316
325.396552,,0.00036727602466830894,325.506,0.7480000257492065,-0.03087527711380738
325.86206899999996,,0.003603651370975556,325.969,0.7739999890327454,0.026019703822051734
326.327586,,0.007296162026207105,326.432,0.7480000257492065,-0.030480326695751406
326.793103,,0.009300740101617114,326.897,0.7739999890327454,0.026199363293270578
327.258621,,0.008850598326896358,327.361,0.7590000033378601,-0.006556219122988586
327.724138,,0.007203187288564011,327.827,0.7870000004768372,0.05426207097265278
328.189655,,0.006270963389463084,328.292,0.7730000019073486,0.02347521102257499
328.655172,,0.0067219375236656125,328.758,0.7490000128746033,-0.029191746388478223
329.12068999999997,,0.007459319278534428,329.224,0.765999972820282,0.007382914541219386
329.586207,,0.006956164853946624,329.69,0.7580000162124634,-0.010577188815014814
330.051724,,0.004932254038121353,330.155,0.7549999952316284,-0.01769667465793902
330.517241,,0.0025326496403090706,330.621,0.7689999938011169,0.012186326606608101
330.982759,,0.0010156444500210762,331.084,0.7519999742507935,-0.0254843018162372
331.44827599999996,,0.0005926241274637168,331.546,0.777999997138977,0.03053119929011609
331.913793,,0.0006073247769731031,332.014,0.7760000228881836,0.025568622524174873
332.37931,,0.0006407972776120068,332.476,0.7710000276565552,0.014113078380241036
332.844828,,0.0011231356480786033,332.947,0.7699999809265137,0.011432081118534785
333.310345,,0.002565298108706652,333.409,0.7609999775886536,-0.008602824838401635
333.77586199999996,,0.004347969394019594,333.874,0.753000020980835,-0.02637117222088585
334.241379,,0.004942693619510213,334.337,0.7730000019073486,0.01696067911339732
334.706897,,0.003638606165238837,334.803,0.753000020980835,-0.02674752790862672
335.17241399999995,,0.001503350831727511,335.269,1.0429999828338623,0.6050404762397235
335.637931,,0.00013697039519342834,335.734,0.7760000228881836,0.023442093366728613
336.103448,,0.0001771155286001756,336.199,0.7739999890327454,0.01929858664161358
336.56896600000005,,0.000556348447072098,336.664,0.8119999766349792,0.10240262358851741
337.034483,,0.0019287098722080055,337.129,0.7490000128746033,-0.034445315795055394
337.5,,0.00384861892530553,337.595,0.7879999876022339,0.051006363681391526
337.965517,,0.0049539229327856165,338.058,0.7369999885559082,-0.059558849672876654
338.431034,,0.004343355109651925,338.52,0.7419999837875366,-0.048076499321562494
338.89655200000004,,0.0024557453427213032,338.991,0.7549999952316284,-0.019140601053705977
339.36206899999996,,0.0006909007298120589,339.454,0.7730000019073486,0.020694794675108128
339.827586,,9.970595225378679e-05,339.917,0.7540000081062317,-0.020092044351956544
340.293103,,0.0004112076373124778,340.38,0.7739999890327454,0.024057624248981977
340.758621,,0.0005539618179043631,340.845,0.746999979019165,-0.03423756392023343
341.224138,,0.00016586429631552281,341.317,0.7459999918937683,-0.03595274028598307
341.68965499999996,,0.0001635810401119897,341.775,0.75,-0.026853861059508943
342.155172,,0.0014997811376485058,342.24,0.753000020980835,-0.020023846828653675
342.62069,,0.0036827627794751225,342.705,0.7739999890327454,0.02592368506810743
343.086207,,0.00508892428418449,343.172,0.7480000257492065,-0.03062816937807443
343.551724,,0.004732333708286671,343.638,0.7710000276565552,0.019468404243989598
344.01724099999996,,0.003145998175522664,344.104,0.7490000128746033,-0.0285785204484777
344.48275900000004,,0.0013499416122368288,344.57,0.7739999890327454,0.025671161311783257
344.948276,,0.00031582666992301074,345.032,0.7739999890327454,0.02536260820636499
345.413793,,0.001842729062871076,345.502,0.7570000290870667,-0.012064741512371012
345.87931,,0.0028205517225008206,345.962,0.7760000228881836,0.02886952803178474
346.344828,,0.0029549158275431857,346.431,0.7749999761581421,0.026175952457900095
346.81034500000004,,0.0028258218551896587,346.89,0.7720000147819519,0.019086814975094367
347.275862,,0.003071253659232087,347.36,0.753000020980835,-0.022882615720108985
347.741379,,0.003012524841158374,347.825,0.7720000147819519,0.01793199152383078
348.206897,,0.0012773136097710407,348.291,0.7699999809265137,0.013008278479324762
348.672414,,0.0019419265748801388,348.756,0.7559999823570251,-0.01802862551558165
349.13793100000004,,0.004291984640395421,349.221,0.753000020980835,-0.02505431986414289
349.60344799999996,,0.0036129207027075037,349.686,0.7860000133514404,0.04641207087813986
350.068966,,0.0003964359716978748,350.151,0.7739999890327454,0.019913614226110838
350.534483,,0.0026710815257607566,350.61,0.7770000100135803,0.02617989072363021
351.0,,0.003413337463288773,351.08,0.7749999761581421,0.02164513323179959
351.465517,,0.002072287208416921,351.542,0.7739999890327454,0.019386121377250994
351.93103399999995,,0.0006876542837885601,352.006,0.753000020980835,-0.026347608533636175
352.396552,,0.0009416411780609001,352.476,0.75,-0.032769706578474785
352.862069,,0.0026482076550510703,352.936,0.765999972820282,0.002294179284899834
353.32758600000005,,0.003996784633975525,353.405,0.7570000290870667,-0.017022867777062817
353.793103,,0.002978312835573862,353.871,0.7739999890327454,0.02038071617826167
354.258621,,0.0010321042709517188,354.335,0.7739999890327454,0.020812113223038203
354.72413800000004,,0.006278884456425726,354.801,0.7850000262260437,0.04526046675426496
355.189655,,0.009254542369811049,355.265,0.7730000019073486,0.019636628913092376
355.655172,,0.0075013586126721704,355.731,0.7559999823570251,-0.01686021172848925
356.12069,,0.0023876456862362704,356.191,0.7739999890327454,0.022898849752340782
356.586207,,0.0017943067355036392,356.657,0.753000020980835,-0.0223228245291566
357.05172400000004,,0.0022024380282935382,357.122,0.753000020980835,-0.02182286684872838
357.517241,,0.00020221423312917236,357.588,0.7739999890327454,0.024383759612592208
357.982759,,0.0008236275650357095,358.05,0.746999979019165,-0.03404281040878042
358.448276,,0.0004900553375235775,358.52,0.7739999890327454,0.025107942896524807
358.913793,,0.002576531545834071,358.984,0.746999979019165,-0.03346754960232107
359.37931000000003,,0.003436498058680865,359.446,0.7730000019073486,0.02333940137135115
359.844828,,0.0028620138320524374,359.914,0.7749999761581421,0.02776893207835867
360.310345,,0.0020330812670957842,360.377,0.753000020980835,-0.020179995124126604
360.775862,,0.0017211067570648173,360.843,0.8080000281333923,0.09953751585857458
361.241379,,0.0015420687670028381,361.309,0.753000020980835,-0.02048127468161298
361.706897,,0.0008545871882065476,361.775,0.7839999794960022,0.04678489802941053
362.172414,,0.00025548100693499723,362.239,0.8069999814033508,0.09655255336794051
362.63793100000004,,0.0011989628155797338,362.705,0.7789999842643738,0.03515140874029472
363.103448,,0.0015706710386756012,363.17,0.7739999890327454,0.02381321151847684
363.568966,,0.001120752346104533,363.635,0.753000020980835,-0.022416738817671727
364.034483,,0.00039707098922865414,364.099,0.7699999809265137,0.014122408576902236
364.5,,0.002553591880459722,364.561,0.7480000257492065,-0.03431010211883516
364.96551700000003,,0.0038025923228733557,365.028,0.7440000176429749,-0.043517031709414074
365.431034,,0.0026531140376685877,365.491,0.7580000162124634,-0.013483806841406222
365.896552,,0.0006759076907926379,365.962,0.753000020980835,-0.024806145711342188
366.362069,,0.0043255007918139,366.424,0.7730000019073486,0.018389622333137144
366.827586,,0.00645879692366932,366.89,0.7490000128746033,-0.03421188732117351
367.29310300000003,,0.006365158175954975,367.353,0.7699999809265137,0.011297938762308363
367.758621,,0.004199911356871264,367.818,0.7549999952316284,-0.02154434207267216
368.224138,,0.0007389161916255742,368.283,0.7789999842643738,0.030664558100382277
368.689655,,0.0022364582267425594,368.749,0.753000020980835,-0.025972944473646037
369.155172,,0.002474692012790835,369.214,0.753000020980835,-0.02588091802679522
369.62068999999997,,0.0006784362024093214,369.679,0.7739999890327454,0.02004405904959174
370.086207,,0.005128705317523808,370.146,0.7609999775886536,-0.008028742343852181
370.55172400000004,,0.007812849657926321,370.605,0.7860000133514404,0.04675590312940758
371.017241,,0.007446339881943678,371.073,0.7739999890327454,0.020989539054310603
371.482759,,0.005047743466932956,371.535,0.7730000019073486,0.01923578449023263
371.948276,,0.002300378161759725,372.006,0.7730000019073486,0.019694626040571435
372.413793,,0.00020871730797372397,372.468,0.7490000128746033,-0.03211470435634577
372.87931000000003,,0.0008764389245876495,372.932,0.7710000276565552,0.016298107405565053
373.344828,,0.0008670782723798713,373.402,0.7739999890327454,0.023306500471881136
373.810345,,8.336180593253225e-05,373.86,0.7739999890327454,0.023755307147583317
374.275862,,0.0005402840160942627,374.331,0.7689999938011169,0.013273625267932894
374.741379,,9.777586672941994e-05,374.79,0.7689999938011169,0.013635439950875843
375.20689699999997,,0.0011237061852392197,375.258,0.7730000019073486,0.022651382240176078
375.672414,,0.001586816994922042,375.724,0.753000020980835,-0.02068978364604753
376.137931,,0.00025467033679724615,376.191,0.8740000128746033,0.24308388987741655
376.603448,,0.001792677067071758,376.656,0.753000020980835,-0.020452700171122985
377.068966,,0.002295522145750482,377.121,0.777999997138977,0.03401229674102794
377.53448299999997,,0.0004043319624330278,377.58,0.7720000147819519,0.020856961403200782
378.0,,0.0025079951403260852,378.047,0.5410000085830688,-0.482578090275112
378.465517,,0.00468692780917008,378.517,0.7450000047683716,-0.03838379069055983
378.931034,,0.005605364408537726,378.98,0.7630000114440918,0.0005105587062629894
379.396552,,0.005489747699524665,379.443,0.7919999957084656,0.06331431787017217
379.862069,,0.004404502540928429,379.914,0.7680000066757202,0.010607173698037209
380.327586,,0.0025027965198348386,380.376,0.9279999732971191,0.3587448248337389
380.79310300000003,,0.0005347564220115938,380.842,0.7710000276565552,0.01624084631285945
381.258621,,0.0005740073514014687,381.307,0.7730000019073486,0.020143052817625417
381.724138,,0.0006053056486095888,381.765,0.7739999890327454,0.021878671305674655
382.189655,,0.0003199207316359312,382.232,0.7730000019073486,0.019282391453802714
382.655172,,0.0007313728971181015,382.698,0.7409999966621399,-0.0508149506969688
383.12068999999997,,0.0019391486275526382,383.165,0.7739999890327454,0.020747575871172607
383.586207,,0.002743779402673868,383.631,0.7580000162124634,-0.01438595697912137
384.051724,,0.0017342715930259468,384.091,0.7710000276565552,0.01372711222373757
384.517241,,0.0011606358786139198,384.561,0.7850000262260437,0.04409089069976832
384.982759,,0.004404896069792495,385.024,0.7480000257492065,-0.03658067081454173
385.44827599999996,,0.006168297768614442,385.487,0.7720000147819519,0.015721730343565013
385.913793,,0.005771150737796798,385.954,0.796999990940094,0.07027878808057256
386.37931,,0.003974088553081356,386.417,0.7730000019073486,0.018155764170405334
386.84482799999995,,0.0022599750926889537,386.882,0.753000020980835,-0.025185338066562007
387.310345,,0.001881582721088513,387.345,0.7749999761581421,0.023035666448443078
387.775862,,0.0030183701510838783,387.811,0.7710000276565552,0.01466209837412071
388.241379,,0.00437107251942987,388.277,0.7580000162124634,-0.013280022779509846
388.70689699999997,,0.0039956179261243134,388.742,0.7910000085830688,0.059023420626142555
389.172414,,0.0013475481716753639,389.206,0.7559999823570251,-0.016805830429190236
389.637931,,0.0015581847607759572,389.671,0.7649999856948853,0.0032276119590403363
390.103448,,0.0019709514519303134,390.136,0.7580000162124634,-0.011608520586642824
390.56896600000005,,0.0003037658572106967,390.602,0.7590000033378601,-0.009039272492519717
391.03448299999997,,0.0023995328796505852,391.065,0.7760000228881836,0.02835337978985754
391.5,,0.0017800077157488943,391.535,0.7599999904632568,-0.006194599292718055
391.965517,,0.0007797972630961392,391.995,0.765999972820282,0.007133529645138284
392.431034,,0.0024292160285349284,392.465,0.8069999814033508,0.09665368856702343
392.896552,,0.0016754352579902681,392.928,0.753000020980835,-0.02086323852254977
393.36206899999996,,0.00044686908244620234,393.391,0.7509999871253967,-0.02516070771566611
393.827586,,0.0022073304954026976,393.856,0.7739999890327454,0.024936099743841977
394.293103,,0.003097598639972356,394.321,0.7730000019073486,0.02267508397127322
394.75862099999995,,0.0037370288071797058,394.786,0.7580000162124634,-0.010154101006338737
395.224138,,0.004483163853157608,395.251,0.75,-0.02779555952221637
395.68965499999996,,0.004680814251450965,395.716,0.7519999742507935,-0.023706917625974135
396.155172,,0.003506450989358559,396.183,0.75,-0.028380651069505103
396.62069,,0.001370581839878037,396.648,0.75,-0.028735073523519106
397.086207,,0.0001085948351944842,397.114,0.7739999890327454,0.02317162819568286
397.551724,,0.00016899537728372723,397.58,0.746999979019165,-0.036047014045475965
398.017241,,0.0015677828739240145,398.043,0.7789999842643738,0.03327262149053827
398.48275900000004,,0.0026706374578842436,398.505,0.7730000019073486,0.019814222799999608
398.94827599999996,,0.0029837557503140165,398.976,0.7710000276565552,0.015093028400597407
399.413793,,0.002978453134132951,399.439,0.7480000257492065,-0.03534706027246956
399.87931,,0.002662224001586715,399.906,0.7519999742507935,-0.026922024760630967
400.344828,,0.001079077148410479,400.369,0.7519999742507935,-0.027161664275310853
400.810345,,0.0023229504995931393,400.834,0.7689999938011169,0.009692802388952104
401.27586199999996,,0.006419187531593104,401.299,0.7699999809265137,0.011751536772517411
401.741379,,0.009268297132753166,401.764,0.7559999823570251,-0.01880352556645836
402.206897,,0.010152505664187598,402.232,0.722000002861023,-0.09286570451868217
402.672414,,0.00999412277817372,402.69,0.7960000038146973,0.0684309399434514
403.137931,,0.009618365729717358,403.158,0.7239999771118164,-0.08829258940388267
403.60344799999996,,0.008655984422791833,403.623,0.6970000267028809,-0.14692059825473383
404.068966,,0.0068566610305934705,404.091,0.753000020980835,-0.024672337628565345
404.534483,,0.005448334639550119,404.554,0.7730000019073486,0.019187333940587414
405.0,,0.0058679292999502105,405.017,0.7570000290870667,-0.015348808853555324
405.465517,,0.00761448008132635,405.486,0.7739999890327454,0.022036013458573683
405.931034,,0.00873547947996248,405.947,0.7770000100135803,0.028935372313890626
406.39655200000004,,0.00838561767801647,406.411,0.7440000176429749,-0.042592373108595774
406.862069,,0.007655811603243507,406.876,0.7820000052452087,0.04055667666866293
407.327586,,0.007647909127173223,407.346,0.753000020980835,-0.022281512251950398
407.793103,,0.007811127064631051,407.812,0.7739999890327454,0.023784659996445003
408.258621,,0.006704838604343718,408.277,0.7749999761581421,0.026240832242898273
408.72413800000004,,0.0038457867495310066,408.735,0.7839999794960022,0.04608160530628056
409.18965499999996,,0.0004591283839962128,409.207,0.8109999895095825,0.10508749601611234
409.655172,,0.0014022540014588534,409.665,0.765999972820282,0.007175025225099685
410.12069,,0.000621488752816209,410.132,0.7739999890327454,0.0246707766747602
410.586207,,0.0017298607013939075,410.597,0.8069999814033508,0.09657065126423753
411.05172400000004,,0.003131880354454234,411.065,0.4749999940395355,-0.6268032867991733
411.51724099999996,,0.002121917865865436,411.527,0.7509999871253967,-0.025629909672757165
411.982759,,0.00010948641082782859,411.995,0.75,-0.02800502104484002
412.448276,,0.0011873311413840336,412.457,0.7789999842643738,0.034928913010008944
412.913793,,0.0003725260231288431,412.925,0.7739999890327454,0.02374759314422026
413.37931,,0.0009583526774500424,413.388,0.7730000019073486,0.021249346247592536
413.844828,,0.00156868637820586,413.853,0.7570000290870667,-0.013950381997121475
414.31034500000004,,0.0018161402653084553,414.32,0.7480000257492065,-0.03391144155779806
414.775862,,0.0022342954525915114,414.786,0.5199999809265137,-0.5310024594301828
415.241379,,0.0017682468289985673,415.251,0.777999997138977,0.030731868574926584
415.706897,,0.001195796488684528,415.717,0.7730000019073486,0.019499713335046107
416.172414,,0.00614945419280041,416.176,0.75,-0.030914903077230955
416.63793100000004,,0.010042141652821064,416.641,0.7580000162124634,-0.013749337522262397
417.103448,,0.010239022871964343,417.106,0.7739999890327454,0.02089566287160866
417.568966,,0.007441280107552117,417.572,0.7730000019073486,0.018561239026104702
418.034483,,0.0049909213890264184,418.036,0.7739999890327454,0.02064639701387663
418.5,,0.005395836517770109,418.506,0.7559999823570251,-0.018598287463234206
418.96551700000003,,0.008107184497204208,418.969,0.7739999890327454,0.02065292881368605
419.43103399999995,,0.010647855633205309,419.431,0.753000020980835,-0.02500043478731416
419.896552,,0.011209955788851011,419.897,0.7490000128746033,-0.0335584596109881
420.362069,,0.009973002891893951,420.361,0.7820000052452087,0.038546382279950275
420.827586,,0.008559244603637725,420.827,0.7120000123977661,-0.11370419260590275
421.293103,,0.008506739966076982,421.294,0.7739999890327454,0.021662782179153958
421.758621,,0.00973715438432232,421.76,0.7490000128746033,-0.03248588452754811
422.22413800000004,,0.01039593970669092,422.225,0.7680000066757202,0.009242786721473235
422.689655,,0.008818183434639422,422.691,0.7739999890327454,0.02265525010405251
423.15517200000005,,0.005550103516349651,423.15,0.7440000176429749,-0.04236833609202965
423.62069,,0.0026230120551241193,423.616,0.753000020980835,-0.022441090773172828
424.086207,,0.0012073676114047068,424.084,0.7609999775886536,-0.0047192863616600704
424.55172400000004,,0.0012195418157566387,424.546,0.7749999761581421,0.02603932423015854
425.017241,,0.002845365068957672,425.014,0.7730000019073486,0.02189705049617972
425.482759,,0.006663310678480057,425.476,0.7480000257492065,-0.03240358534109198
425.948276,,0.012078883397312883,425.947,0.7699999809265137,0.015637206278732812
426.413793,,0.017375817915817278,426.409,0.75,-0.027883219018769643
426.87931000000003,,0.021949497529336715,426.874,0.7549999952316284,-0.016997019132693327
427.344828,,0.026979344886480277,427.337,0.7730000019073486,0.02215296729873152
427.810345,,0.032823105273293005,427.803,0.7580000162124634,-0.010648019670186762
428.275862,,0.03674287851614525,428.269,0.7739999890327454,0.02403794056327058
428.741379,,0.034564841899180306,428.735,0.7480000257492065,-0.03282446987872523
429.20689699999997,,0.024591422830272682,429.195,0.7720000147819519,0.019207443136641925
429.672414,,0.00918673168647388,429.661,0.746999979019165,-0.03554399066691054
430.137931,,0.0075710237282687505,430.125,0.7459999918937683,-0.03802821482548627
430.603448,,0.023056124189251775,430.591,0.765999972820282,0.005228633824976056
431.068966,,0.036362549787922804,431.061,0.7450000047683716,-0.04083877755446925
431.534483,,0.04623529185627913,431.524,0.7739999890327454,0.022036876151642754
432.0,,0.05046536627588589,431.987,0.7509999871253967,-0.028356321955347038
432.46551700000003,,0.04799704732273035,432.45,0.7749999761581421,0.02367713823671461
432.931034,,0.04072268102266186,432.921,0.7720000147819519,0.0169258487519829
433.396552,,0.03238952270928888,433.383,0.781000018119812,0.036364206044381564
433.862069,,0.025900814732423668,433.849,0.7570000290870667,-0.01604190456214677
434.327586,,0.02182702555443719,434.314,0.8360000252723694,0.15600795532300013
434.79310300000003,,0.019028999155899055,434.78,0.7699999809265137,0.01221155608944369
435.258621,,0.01621102666852886,435.247,0.781000018119812,0.03622809130995657
435.724138,,0.012990148485161897,435.705,0.7739999890327454,0.021082279651485146
436.189655,,0.009944551887482372,436.17,0.7519999742507935,-0.026694310400000063
436.655172,,0.007826192597803913,436.635,0.7739999890327454,0.021432453103685117
437.12068999999997,,0.006523700403554301,437.109,0.765999972820282,0.004235649038460093
437.586207,,0.004777158895702575,437.568,0.9739999771118164,0.45765897267049793
438.051724,,0.0014130740113933757,438.035,0.8029999732971191,0.08540128691284063
438.517241,,0.0028619342793986305,438.498,0.7559999823570251,-0.016690400619510853
438.982759,,0.005502401488560841,438.962,0.746999979019165,-0.03599579100125561
439.448276,,0.004609817132010854,439.432,0.7599999904632568,-0.007384676004324207
439.913793,,0.0011112843358446933,439.89,0.7739999890327454,0.02338196264661751
440.37931000000003,,0.002035833029414148,440.36,0.7730000019073486,0.021437603010498064
440.844828,,0.0025510530175275286,440.826,0.7739999890327454,0.023811677045633438
441.310345,,0.00031145801223580094,441.291,0.753000020980835,-0.021789956752857997
441.775862,,0.0034233637957947595,441.75,0.7490000128746033,-0.03040569540023764
442.241379,,0.0072552956958079435,442.217,0.75,-0.028182622847932746
442.70689699999997,,0.009916921278515014,442.683,0.7720000147819519,0.01973720327131781
443.172414,,0.01040649990813579,443.147,0.7570000290870667,-0.013006314929422322
443.637931,,0.00889944668788565,443.612,0.7760000228881836,0.028273999063265217
444.103448,,0.00713726065343215,444.08,0.7720000147819519,0.01940018030348587
444.568966,,0.0069214817069201615,444.542,0.7580000162124634,-0.011299187091676193
445.03448299999997,,0.008206822994353583,445.006,0.7680000066757202,0.010256993810373942
445.5,,0.009311068641589395,445.476,0.7570000290870667,-0.013961958992732667
445.965517,,0.008970683501503098,445.939,0.7730000019073486,0.020628303001895717
446.431034,,0.007608120123713981,446.402,0.7559999823570251,-0.01668126762461905
446.896552,,0.006488764738541481,446.868,0.7699999809265137,0.013552607913708534
447.36206899999996,,0.0061427212281237095,447.333,0.7480000257492065,-0.03463020084354639
447.827586,,0.006012475588676365,447.799,0.7739999890327454,0.021785414847668536
448.29310300000003,,0.005507527233966652,448.265,0.7739999890327454,0.021588262517672784
448.758621,,0.004838659521572191,448.731,0.7649999856948853,0.0018224400846946027
449.224138,,0.004455941621766309,449.195,0.7590000033378601,-0.0113632806520656
449.689655,,0.004136693067457361,449.661,0.7739999890327454,0.021250325388978943
450.155172,,0.003377554462724046,450.121,0.7570000290870667,-0.01580279321004135
450.62068999999997,,0.002509003644024847,450.586,0.753000020980835,-0.024483830440572465
451.086207,,0.0025217644287614488,451.054,0.75,-0.03093855031025422
451.551724,,0.0035636954635590605,451.516,0.7639999985694885,-0.00031162417471516154
452.017241,,0.0043153612402057825,451.984,0.7940000295639038,0.06521458690418883
452.482759,,0.003379440843608841,452.446,0.7730000019073486,0.01966515852729343
452.94827599999996,,0.0010385657845555175,452.91,0.7720000147819519,0.017716659000039617
453.413793,,0.0008730453297749688,453.38,0.7480000257492065,-0.034322300386445195
453.87931,,0.0009601945548026335,453.845,0.7739999890327454,0.022580000527934196
454.344828,,0.00025331374050330583,454.309,0.6520000100135803,-0.24295994515941727
454.810345,,0.001169400075882046,454.775,0.7739999890327454,0.023077076294801137
455.27586199999996,,0.0011085741942909082,455.235,0.7599999904632568,-0.007202178943394986
455.741379,,0.0008221578456642715,455.701,0.7739999890327454,0.023494810215215038
456.206897,,0.0010935870195221075,456.169,0.7639999985694885,0.0018714039316697854
456.672414,,0.0016141071929985404,456.634,0.753000020980835,-0.021969594934003765
457.137931,,0.001619095041447898,457.095,0.7549999952316284,-0.017532216024703545
457.603448,,0.0011183577987423285,457.565,0.7730000019073486,0.021717021429497035
458.06896600000005,,0.0008663417167644754,458.028,0.7490000128746033,-0.03058452040492495
458.53448299999997,,0.0012250685178281534,458.491,0.7490000128746033,-0.030646075390401442
459.0,,0.0017224853321084138,458.962,0.8939999938011169,0.28515336814237674
459.465517,,0.0019116770010932644,459.424,0.765999972820282,0.006145192714946087
459.931034,,0.001923625031870296,459.89,0.753000020980835,-0.02235197169483679
460.39655200000004,,0.0016830921453332677,460.353,0.7739999890327454,0.02319451619265743
460.86206899999996,,0.0003827023095255885,460.818,0.6710000038146973,-0.20143589414022658
461.327586,,0.002279969789863219,461.284,0.7580000162124634,-0.012141205442524155
461.793103,,0.004770094840914635,461.749,0.7739999890327454,0.022461514347454557
462.258621,,0.004864872193090239,462.21,0.7519999742507935,-0.025721183238218946
462.724138,,0.0023891052256374704,462.675,0.7630000114440918,-0.001996299928600162
463.18965499999996,,0.0001665512289463614,463.147,0.7730000019073486,0.019570819345360434
463.655172,,0.00037313951632062756,463.605,0.7789999842643738,0.03245306077897415
464.12069,,0.0014398150061309635,464.076,0.7649999856948853,0.0017992768891818322
464.58620699999994,,0.0029400359324856197,464.538,0.753000020980835,-0.024455108822345115
465.051724,,0.002771261474168188,465.002,0.7739999890327454,0.02123177510227919
465.517241,,0.0018980870270925705,465.465,0.75,-0.031071676494773236
465.98275900000004,,0.0021113745649966945,465.932,0.7509999871253967,-0.028859672900246013
466.448276,,0.003979370603263906,466.402,0.800000011920929,0.07797660551531212
466.913793,,0.006450206386134268,466.86,0.7870000004768372,0.04978469388214996
467.37931,,0.008009859214931194,467.332,0.7739999890327454,0.021636855372574978
467.844828,,0.007958144811250853,467.79,0.7739999890327454,0.0218489356725493
468.31034500000004,,0.006679486574102439,468.255,0.6190000176429749,-0.31560251953004365
468.77586199999996,,0.004944668876575494,468.72,0.7559999823570251,-0.016872971627645263
469.241379,,0.0032436708670694784,469.187,0.7570000290870667,-0.014430460699246188
469.706897,,0.0018588193950739619,469.653,0.8019999861717224,0.083875891229635
470.172414,,0.0011896672280033548,470.117,0.753000020980835,-0.022615627784967975
470.63793100000004,,0.0014967503672319751,470.583,0.765999972820282,0.005953947508542114
471.10344799999996,,0.002323258185554654,471.046,0.753000020980835,-0.02214560706497678
471.568966,,0.0026868884930869113,471.517,0.7379999756813049,-0.05463569785047848
472.034483,,0.002118145865203327,471.98,0.7760000228881836,0.028302717030617104
472.5,,0.0011115881071207224,472.443,0.7519999742507935,-0.023880393822275338
472.965517,,0.0002598281833649349,472.91,0.7599999904632568,-0.006395844829421731
473.43103399999995,,0.0005745221406731186,473.372,0.7609999775886536,-0.0042137952442736805
473.89655200000004,,0.0018050250803813817,473.838,0.7789999842643738,0.03495322199502633
474.362069,,0.0033057541594339063,474.306,0.7739999890327454,0.023960816194472784
474.827586,,0.004595961218443998,474.772,0.7580000162124634,-0.011044571214751435
475.293103,,0.005561920614962445,475.236,0.753000020980835,-0.02212913908192676
475.758621,,0.006438179755250092,475.695,0.7599999904632568,-0.0071086533152261225
476.22413800000004,,0.00709050273478757,476.161,0.7739999890327454,0.023131580463329523
476.689655,,0.006753357831179359,476.627,0.753000020980835,-0.022902921303156274
477.155172,,0.004761922525098102,477.095,0.7680000066757202,0.009480885344085494
477.62069,,0.001602572949716498,477.558,0.7739999890327454,0.02225407850351545
478.086207,,0.0008290970628840723,478.021,0.7570000290870667,-0.015073981483969972
478.55172400000004,,0.0003842790715096587,478.49,0.7710000276565552,0.01515327536493066
479.01724099999996,,0.003321318254643742,478.951,0.7739999890327454,0.02144237499261922
479.482759,,0.007895920326291852,479.42,0.75,-0.031056239379395126
479.948276,,0.009829922154957002,479.886,0.7570000290870667,-0.015974077277175418
480.413793,,0.007787383398112283,480.348,0.7739999890327454,0.020943449745697992
480.87931000000003,,0.003983410060299998,480.814,0.7950000166893005,0.06663061784346339
481.344828,,0.0017332290930121197,481.28,0.8769999742507935,0.24527566704837128
481.810345,,0.0018881256574609252,481.745,0.7570000290870667,-0.016103761823510688
482.275862,,0.0024318488364338626,482.21,0.7490000128746033,-0.033416667382392067
482.74137900000005,,0.0014648726882501243,482.676,0.7549999952316284,-0.02017633564189154
483.206897,,0.0005129340899559734,483.136,0.7739999890327454,0.02143390807237052
483.672414,,0.0017254871703920544,483.601,0.75,-0.030596655163597632
484.13793100000004,,0.001491445232447501,484.069,0.7429999709129333,-0.04555804018362386
484.603448,,0.0005657971581515144,484.531,0.7149999737739563,-0.1062492906288406
485.068966,,0.0001952513055233988,485.002,0.7490000128746033,-0.031853102354822735
485.534483,,0.0004606312547851189,485.464,0.7739999890327454,0.022936977916856414
486.0,,8.355684289484871e-05,485.925,0.753000020980835,-0.02249821700456084
486.46551700000003,,0.0009206779830567564,486.395,0.7699999809265137,0.014837131680382594
486.931034,,0.002160836471062945,486.861,0.75,-0.028465470161737567
487.396552,,0.003219796490206071,487.324,0.7720000147819519,0.019697973924441434
487.862069,,0.004100416021512113,487.789,0.7509999871253967,-0.025865757840690253
488.327586,,0.004997955178427496,488.255,0.765999972820282,0.006950038704639132
488.79310300000003,,0.005824975755311867,488.72,0.7680000066757202,0.011386847841405662
489.258621,,0.006192334032427865,489.18,0.7490000128746033,-0.029987878497487224
489.724138,,0.005759731829189507,489.646,0.7739999890327454,0.024436576733357397
490.189655,,0.004583960360755008,490.11,0.7570000290870667,-0.012702440251859515
490.655172,,0.0032519451587101236,490.575,0.7739999890327454,0.02417493057342033
491.12069,,0.00264742071922323,491.043,0.7730000019073486,0.021784089573842633
491.586207,,0.003437029334149053,491.506,0.7490000128746033,-0.03076218255622349
492.05172400000004,,0.005544651336959118,491.977,0.7590000033378601,-0.009273768318368514
492.517241,,0.007839917008130285,492.439,0.902999997138977,0.3041261657059261
492.982759,,0.008540468352322587,492.91,0.7559999823570251,-0.016475347078288544
493.448276,,0.00666756347779897,493.365,0.7599999904632568,-0.008107394078911645
493.913793,,0.003314103864132476,493.83,0.7730000019073486,0.019870313605138953
494.37931000000003,,0.0007578471511172018,494.295,0.7739999890327454,0.02171760479898972
494.844828,,5.428815156630838e-06,494.761,0.746999979019165,-0.03741343673898272
495.310345,,9.970601858210016e-05,495.228,0.7300000190734863,-0.07472534184187593
495.775862,,0.0007588477025992173,495.694,0.7580000162124634,-0.013957084321889104
496.241379,,0.0014900873002320182,496.162,0.7599999904632568,-0.009783973861809191
496.70689699999997,,0.0011896535326177857,496.62,0.7519999742507935,-0.027340584882613858
497.172414,,0.0003298580462286765,497.087,0.7580000162124634,-0.014334571681982534
497.637931,,0.0006625301179796587,497.55,0.7789999842643738,0.03141582203723004
498.103448,,0.002827823065114805,498.017,0.7870000004768372,0.048910631684615735
498.568966,,0.00533834694580579,498.48,0.7689999938011169,0.009826377610058949
499.03448299999997,,0.0061053859224255306,498.95,0.7699999809265137,0.012198418860556316
499.5,,0.004350991865630777,499.413,0.7519999742507935,-0.026767947775414185
499.96551700000003,,0.0010824018686012263,499.878,0.7239999771118164,-0.08747331786258783
500.431034,,0.0017503987241830076,500.341,0.7730000019073486,0.01961551885069491
500.89655200000004,,0.0026867738588535143,500.807,0.7350000143051147,-0.06280949704569545
501.362069,,0.0019190458184741295,501.272,0.8429999947547913,0.1728672639639851
501.827586,,0.0010783783753228254,501.738,0.7739999890327454,0.022932361989469775
502.293103,,0.0015286381593395955,502.203,0.9150000214576721,0.330512791441646
502.758621,,0.0028644186699629736,502.669,0.7570000290870667,-0.013335655483120348
503.224138,,0.0034199823704856454,503.135,0.7699999809265137,0.015336533889731507
503.68965499999996,,0.0023157549322792882,503.601,0.753000020980835,-0.021393451112932258
504.15517200000005,,0.0005409205540701191,504.061,0.7369999885559082,-0.055999114545175484
504.62068999999997,,0.0003265917625766716,504.531,0.7789999842643738,0.03569371075551179
505.08620699999994,,3.9508399276321046e-05,504.991,0.7509999871253967,-0.02518832554058825
505.55172400000004,,0.00028325623405801316,505.461,0.7739999890327454,0.024966718677202102
506.017241,,0.0002290870719529259,505.925,0.7739999890327454,0.02493671869720615
506.48275899999993,,0.001316927003454776,506.388,0.753000020980835,-0.02092089528686935
506.948276,,0.0023206063712664588,506.854,0.7739999890327454,0.02465065912246677
507.413793,,0.0030504080011908128,507.32,0.7480000257492065,-0.03224329204788414
507.87931,,0.0036822122047086223,507.786,0.7519999742507935,-0.02384038426427453
508.344828,,0.004307751480139715,508.251,0.7730000019073486,0.02154670989360873
508.810345,,0.004888806271477389,508.71,0.7789999842643738,0.034213105227161325
509.27586199999996,,0.005380030405921659,509.176,0.75,-0.029401302343789723
509.74137900000005,,0.005688130157212474,509.641,0.7699999809265137,0.013722957456303746
510.20689699999997,,0.005582200981276103,510.106,0.7739999890327454,0.021988428857900196
510.67241399999995,,0.004698990890564263,510.572,0.746999979019165,-0.03727019988528378
511.13793100000004,,0.0027838092011994654,511.036,0.7739999890327454,0.02114612641002517
511.603448,,0.00021590111074581416,511.506,0.7979999780654907,0.07306875100852932
512.0689659999999,,0.0017997649216563434,511.969,0.7440000176429749,-0.044888212768563765
512.534483,,0.0020961195807671796,512.431,0.753000020980835,-0.02552621282031333
513.0,,0.0007868064415980676,512.897,0.7490000128746033,-0.03441462034784342
513.465517,,0.0007413666432747681,513.361,0.7739999890327454,0.01995678199553927
513.931034,,0.001302169207650431,513.827,0.75,-0.03234210379950855
514.396552,,0.0010795699428389552,514.292,0.7519999742507935,-0.02791174445619106
514.862069,,0.0010835875419790105,514.757,0.7580000162124634,-0.014683753901800515
515.327586,,0.0017375847395123825,515.224,0.7620000243186951,-0.00573386884248578
515.793103,,0.002497871775666412,515.69,0.7940000295639038,0.06429177406622327
516.258621,,0.0028550466069065545,516.154,0.7570000290870667,-0.0159442248190242
516.724138,,0.0030848371986739592,516.619,0.7739999890327454,0.0215202245941067
517.189655,,0.0035626868534808535,517.084,0.7739999890327454,0.021988051654538328
517.655172,,0.003746881059734479,517.546,0.7680000066757202,0.009409999758363964
518.1206900000001,,0.00261358922836803,518.01,0.7739999890327454,0.02298595111753494
518.5862070000001,,0.0001910483714514979,518.48,0.753000020980835,-0.0222676112126977
519.051724,,0.001982741305454248,518.943,0.7770000100135803,0.030495535788541323
519.517241,,0.002324687493104393,519.405,0.7519999742507935,-0.02353311892901171
519.982759,,0.0008297663198567736,519.871,0.7749999761581421,0.026960963040265774
520.448276,,0.0010052211382123452,520.335,0.753000020980835,-0.020649598800616186
520.9137929999999,,0.0015341913454943099,520.8,0.777999997138977,0.03405972187572693
521.37931,,8.935248725138504e-05,521.265,0.7620000243186951,-0.0006404277537469891
521.844828,,0.00258304469966391,521.731,0.800000011920929,0.08221592793001938
522.310345,,0.004540322566960907,522.198,0.777999997138977,0.034260293492878735
522.7758620000001,,0.003977721278109833,522.664,0.753000020980835,-0.020325180671625417
523.241379,,0.0012016636387420171,523.129,0.7509999871253967,-0.024894585163969727
523.7068969999999,,0.0010869408438332008,523.594,0.7689999938011169,0.014021782473632087
524.172414,,0.00041793218025319175,524.055,0.7509999871253967,-0.025571723998624594
524.637931,,0.002628515504646734,524.524,0.7689999938011169,0.013198858206490608
525.103448,,0.0050831648901779256,524.987,0.7599999904632568,-0.006907795874379536
525.568966,,0.004983939878516634,525.45,0.7739999890327454,0.023056406558952275
526.034483,,0.0030880552673043797,525.917,0.7739999890327454,0.022498537178980354
526.5,,0.0011294128964878815,526.38,0.7239999771118164,-0.08699588315397093
526.9655170000001,,0.00033465850774799604,526.846,0.7570000290870667,-0.015649655449318407
527.4310340000001,,0.0016393572654790807,527.31,0.7979999780654907,0.07315700703399967
527.8965519999999,,0.0025378869395056205,527.776,0.7730000019073486,0.018223114197477245
528.362069,,0.0022145164321653163,528.243,0.7910000085830688,0.057036938556428
528.827586,,0.0007329042972365797,528.708,0.7739999890327454,0.019677273409416864
529.293103,,0.0004504544082236993,529.173,0.7760000228881836,0.02380223566862783
529.7586210000001,,4.279485326519846e-05,529.64,0.7620000243186951,-0.006833226499962033
530.224138,,0.0018667073183009312,530.107,0.7480000257492065,-0.037366085543366505
530.689655,,0.003264058412533053,530.565,0.7580000162124634,-0.01550726619402654
531.155172,,0.00288319238148819,531.035,0.7490000128746033,-0.034939854176913254
531.62069,,0.0009165136628069013,531.498,0.7739999890327454,0.019800410621378835
532.086207,,0.001336643903231811,531.961,0.7450000047683716,-0.04301483070061053
532.5517239999999,,0.002553755372313507,532.431,0.7739999890327454,0.020612347191037824
533.017241,,0.002204131356266696,532.89,0.7699999809265137,0.012412183739239387
533.482759,,0.0008314359532132568,533.36,0.7730000019073486,0.019515602734931338
533.9482760000001,,0.0003988136899798218,533.826,0.7490000128746033,-0.03216937247148026
534.413793,,0.0006568897674477038,534.291,0.7549999952316284,-0.018479218965377308
534.87931,,3.265587979321887e-05,534.75,0.6399999856948853,-0.26841165873078593
535.344828,,0.0011356543382457112,535.221,0.7720000147819519,0.019755249063481882
535.810345,,0.0021138467725970987,535.68,0.777999997138977,0.03336949646957906
536.275862,,0.002572611233050203,536.146,0.7549999952316284,-0.016254901312248264
536.7413789999999,,0.0023915904074078057,536.612,0.7699999809265137,0.016835283198683
537.206897,,0.0018964304496818553,537.076,0.7739999890327454,0.025872920780939432
537.672414,,0.0015366551005557036,537.546,0.7590000033378601,-0.006582084510699358
538.137931,,0.0013217275056902078,538.006,0.7990000247955322,0.0806825021709415
538.6034480000001,,0.0010307098068711644,538.476,0.5130000114440918,-0.5424077500135591
539.0689659999999,,0.0009694608109926267,538.939,0.7440000176429749,-0.039258235498253136
539.5344829999999,,0.001765328541450235,539.402,0.8870000243186951,0.27205702007717686
540.0,,0.0030880294100889857,539.868,0.6600000262260437,-0.2228291777899073
540.465517,,0.0032920657469162748,540.334,0.753000020980835,-0.02064330292006176
540.931034,,0.001096409990123569,540.799,0.7720000147819519,0.020239168369569245
541.396552,,0.0025031525235843684,541.265,0.7279999852180481,-0.07619958250277692
541.862069,,0.004667810969905072,541.731,0.7450000047683716,-0.03979021410643496
542.327586,,0.003523122167114721,542.191,0.746999979019165,-0.036091073779825206
542.7931030000001,,0.0004619883343846265,542.657,0.7549999952316284,-0.019329331823276983
543.258621,,0.0009185000522649604,543.121,0.722000002861023,-0.09188098050743337
543.7241379999999,,0.0013613821727783842,543.587,0.7710000276565552,0.014248445966275364
544.189655,,0.005265361418845137,544.05,0.7599999904632568,-0.01028852183424476
544.655172,,0.006821475201607323,544.52,0.7670000195503235,0.00446203101637516
545.12069,,0.004383817253703317,544.98,0.7739999890327454,0.019300537726421367
545.5862070000001,,7.535616253575631e-05,545.45,0.753000020980835,-0.02676139565852186
546.051724,,0.002925265878987881,545.91,0.7730000019073486,0.01661289018600181
546.517241,,0.0036655525255925242,546.38,0.7739999890327454,0.01871186951728572
546.982759,,0.0036840023027165086,546.846,0.7739999890327454,0.018754865442591147
547.448276,,0.004701776739385497,547.306,0.7739999890327454,0.018919863847222433
547.9137929999999,,0.006823307146152196,547.772,0.7400000095367432,-0.05487232012005801
548.3793099999999,,0.008890286555310623,548.239,0.7730000019073486,0.017412899648794878
548.844828,,0.00977430940929165,548.705,0.7639999985694885,-0.0017084002476231287
549.310345,,0.00898400863726196,549.165,0.7749999761581421,0.02282570484894405
549.775862,,0.006690906888197038,549.631,0.7509999871253967,-0.02882803414443479
550.241379,,0.0038127958280055373,550.099,0.7509999871253967,-0.028149690048449357
550.706897,,0.0017036687670598622,550.561,0.7739999890327454,0.022661011842531976
551.172414,,0.0010730397992961642,551.031,0.7590000033378601,-0.009314854908036586
551.637931,,0.0012759707687392775,551.494,0.7739999890327454,0.0240488041998472
552.103448,,0.0010898002267758177,551.958,0.7889999747276306,0.057371514957671114
552.568966,,7.266764024729851e-05,552.42,0.7760000228881836,0.029631355167144664
553.034483,,0.0011747779369771295,552.886,0.7549999952316284,-0.01561830798836291
553.5,,0.001890536161845931,553.356,0.7710000276565552,0.019644983612788255
553.965517,,0.0018780656975853013,553.822,0.753000020980835,-0.019276572496908995
554.4310340000001,,0.001423133074763184,554.287,0.7549999952316284,-0.014746156501952188
554.896552,,0.0008920953196031317,554.745,0.75,-0.025593724275751035
555.3620689999999,,0.0005862930427171424,555.21,0.753000020980835,-0.01914183732030206
555.827586,,0.0008124597742245822,555.676,0.7739999890327454,0.02639818138524507
556.293103,,0.0018177744911633221,556.143,0.765999972820282,0.008636619008826864
556.758621,,0.003479580604767794,556.608,0.6700000166893005,-0.20095863923521554
557.224138,,0.005090758457680451,557.076,0.7329999804496765,-0.06425065636017653
557.689655,,0.005741985540499283,557.539,0.7599999904632568,-0.006057864617246549
558.155172,,0.0052202350519136706,558.002,0.7590000033378601,-0.00892935723757371
558.6206900000001,,0.004433182159921747,558.472,0.7739999890327454,0.023017827340460307
559.0862070000001,,0.0045843731883511325,558.932,0.7549999952316284,-0.019125422986825603
559.5517239999999,,0.005890973661641935,559.395,0.7739999890327454,0.02152715852257288
560.017241,,0.007333386926686011,559.86,0.7720000147819519,0.01645921469737483
560.482759,,0.007552039337453866,560.331,0.746999979019165,-0.03866430685296984
560.948276,,0.005773092152963552,560.79,0.753000020980835,-0.02617587140616926
561.413793,,0.0022103843970687495,561.257,0.765999972820282,0.0016553791852671933
561.87931,,0.001891557090802744,561.723,0.7950000166893005,0.06445479895656535
562.344828,,0.004721380396173371,562.188,0.777999997138977,0.027159363986036078
562.8103450000001,,0.005045599456142157,562.654,0.7699999809265137,0.009603357053625534
563.275862,,0.003283790536182861,563.121,0.777999997138977,0.027041428772381505
563.7413789999999,,0.001164714783473917,563.58,0.7730000019073486,0.016292928632908654
564.206897,,0.0003469663979632502,564.05,0.7699999809265137,0.010033371144671715
564.672414,,0.0028228753972110486,564.513,0.7580000162124634,-0.015710930886307747
565.137931,,0.009017478372632556,564.976,0.7699999809265137,0.010942674925220122
565.603448,,0.018888807046340834,565.446,0.8080000281333923,0.09433700554659147
566.068966,,0.02767271439290009,565.905,0.7699999809265137,0.012231536308351812
566.534483,,0.029178323400577716,566.376,0.777999997138977,0.030399836366449162
567.0,,0.021127126748389156,566.841,0.7739999890327454,0.02245628333919582
567.465517,,0.006803510985661326,567.306,0.7599999904632568,-0.007266408151891273
567.931034,,0.00816854195045008,567.772,0.7519999742507935,-0.023935371204318063
568.396552,,0.02000524393458659,568.236,0.7519999742507935,-0.02321799930674575
568.862069,,0.028088732483763586,568.695,0.7519999742507935,-0.022566564443745565
569.327586,,0.03321870223574929,569.161,0.7739999890327454,0.025928816119223427
569.793103,,0.03532854698537192,569.627,0.7580000162124634,-0.008468447162594468
570.2586210000001,,0.033206566748716665,570.095,0.7689999938011169,0.015838817743688182
570.724138,,0.026466431100958542,570.558,0.6340000033378601,-0.27806912685960816
571.189655,,0.01740914585334323,571.021,0.7910000085830688,0.06404714372601415
571.655172,,0.0101367452208011,571.491,0.7570000290870667,-0.01009958955862333
572.12069,,0.007204614990208352,571.954,0.7730000019073486,0.024549070527491383
572.586207,,0.007340730262658125,572.417,0.7450000047683716,-0.03679387094158918
573.051724,,0.006995832799076324,572.883,0.7490000128746033,-0.028541223394047726
573.517241,,0.004024807713652334,573.345,0.7710000276565552,0.01882040174177172
573.982759,,0.0006361037415972154,573.811,0.7459999918937683,-0.03630304340261616
574.4482760000001,,0.004670214298772801,574.276,0.7789999842643738,0.03486754951978133
574.913793,,0.007117087745791945,574.742,0.7739999890327454,0.02320533456993733
575.37931,,0.009834290527632173,575.207,0.7699999809265137,0.013702185470876963
575.844828,,0.01715039970247481,575.672,0.7490000128746033,-0.032833223357092246
576.310345,,0.03322284978364185,576.139,0.7699999809265137,0.012163479990876996
576.775862,,0.05729812344391086,576.605,0.7570000290870667,-0.016860696080050926
577.241379,,0.08077443628306838,577.065,0.765999972820282,0.0021205303860175693
577.706897,,0.0910852883249864,577.535,0.7770000100135803,0.025554812048932906
578.172414,,0.08081584982689889,577.999,0.7390000224113464,-0.05765243599072728
578.6379310000001,,0.053327935510222434,578.461,0.7630000114440918,-0.005658518474391297
579.1034480000001,,0.019212570316523018,578.925,0.7609999775886536,-0.010174930603344349
579.5689659999999,,0.011897374504198413,579.395,0.6919999718666077,-0.16052182407926013
580.034483,,0.03554872931147298,579.86,0.7559999823570251,-0.02096986041555255
580.5,,0.050690498546857296,580.324,0.7480000257492065,-0.03814449944245875
580.965517,,0.05706346493494971,580.79,0.8920000195503235,0.27596748310441094
581.431034,,0.05542773589959518,581.254,0.7870000004768372,0.04771923670227751
581.896552,,0.04846469518847558,581.721,0.777999997138977,0.028727482202699082
582.362069,,0.03957891386471298,582.18,0.859000027179718,0.20590015050330981
582.827586,,0.030981007919327532,582.646,0.7699999809265137,0.012767125676899216
583.2931030000001,,0.023589127879819132,583.111,0.7649999856948853,0.002679214145181962
583.758621,,0.01806146428078537,583.576,0.75,-0.029184615225792288
584.2241379999999,,0.014725619426000702,584.047,0.7490000128746033,-0.030563620450037788
584.689655,,0.012743650515596195,584.509,0.7519999742507935,-0.023270289417751243
585.155172,,0.010627384131377341,584.977,0.753000020980835,-0.020400378751968564
585.6206900000001,,0.00786322163317365,585.439,0.7739999890327454,0.025954373838652893
586.0862070000001,,0.005146284223114714,585.91,0.7739999890327454,0.026451044945651776
586.551724,,0.0028912897196441663,586.365,0.7739999890327454,0.02682561369461124
587.017241,,0.0007209369347232573,586.831,0.7519999742507935,-0.020864763331458536
587.482759,,0.0009986474055411363,587.296,0.7599999904632568,-0.003338740348263149
587.948276,,0.00034008544238859706,587.761,0.75,-0.025175133204753716
588.4137929999999,,0.004241686243597505,588.228,0.7710000276565552,0.020381519400529607
588.87931,,0.011600107349793205,588.693,0.7580000162124634,-0.008274678397666648
589.344828,,0.018257752404925585,589.158,0.765999972820282,0.008692565449749562
589.810345,,0.020507884950671976,589.624,0.7730000019073486,0.0233679975481582
590.2758620000001,,0.015973252371146184,590.087,0.6240000128746033,-0.30192333255370407
590.741379,,0.004776657202071408,590.55,0.7730000019073486,0.0219441178580324
591.2068969999999,,0.009651943277652055,591.021,0.7720000147819519,0.018962472031567493
591.672414,,0.022331830121918927,591.483,0.7480000257492065,-0.03415172026045141
592.137931,,0.030789177402421812,591.951,0.7450000047683716,-0.04151230169551724
592.603448,,0.03652722242156902,592.413,0.753000020980835,-0.02487942788585508
593.068966,,0.04143106661441158,592.878,0.7739999890327454,0.02013038448989339
593.534483,,0.043955844092519354,593.341,0.7329999804496765,-0.06985722385480965
594.0,,0.040612585973019984,593.807,0.7620000243186951,-0.00723958854405304
594.4655170000001,,0.030796999463086262,594.272,0.7710000276565552,0.011923469785745301
594.9310340000001,,0.018478469396534553,594.738,0.7689999938011169,0.007255175806812934
595.3965519999999,,0.008687398076519848,595.202,0.765999972820282,0.0005523860738608074
595.862069,,0.0032007875587844637,595.668,0.7480000257492065,-0.03868077650761128
596.327586,,6.293734251505353e-05,596.132,0.7490000128746033,-0.036370495058132044
596.793103,,0.0033365744852926088,596.598,0.6710000038146973,-0.2060300345771722
597.2586210000001,,0.007375310403478271,597.062,0.75,-0.033508191023283306
597.724138,,0.010208803026644977,597.531,0.7739999890327454,0.01931049897412847
598.189655,,0.010092363704134244,597.991,0.7860000133514404,0.04609390059335271
598.655172,,0.007326710710841681,598.462,0.7329999804496765,-0.0686469845578112
599.12069,,0.0038855566585313433,598.925,0.7739999890327454,0.021469095224422235
599.586207,,0.001417496873548048,599.387,0.7739999890327454,0.022299609198664513
600.0517239999999,,1.449811700746529e-05,599.853,0.7699999809265137,0.01442861801660644
600.517241,,0.0009001176244627677,600.317,0.6449999809265137,-0.2570754612802487
600.982759,,0.000743376376762566,600.783,0.7739999890327454,0.024751825797709067
601.448276,,0.0025583484841911123,601.25,0.7689999938011169,0.014571756622590849
601.913793,,0.010529560889833749,601.715,0.753000020980835,-0.019662854310564696
602.37931,,0.021833141176988844,602.18,0.7739999890327454,0.026602446862846022
602.844828,,0.03250720736949416,602.646,0.6700000166893005,-0.19959148886242448
603.310345,,0.038702629410382425,603.107,0.7020000219345093,-0.1296329646427572
603.775862,,0.03906415841147894,603.572,0.7490000128746033,-0.027146392257608957
604.2413789999999,,0.034763737383770796,604.04,0.7570000290870667,-0.009779309480729154
604.706897,,0.02799550862275461,604.502,0.777999997138977,0.035761275510550854
605.172414,,0.02068740469953552,604.965,0.7599999904632568,-0.0038070764584428743
605.637931,,0.014042654727910945,605.435,0.7609999775886536,-0.0021119760491634674
606.1034480000001,,0.008571167934127422,605.901,0.7480000257492065,-0.03103401116754809
606.5689659999999,,0.0042670502213451485,606.367,0.7760000228881836,0.029271291272206255
607.0344829999999,,0.0007521432886073799,606.826,0.7730000019073486,0.0219640775884064
607.5,,0.0026455172881069537,607.291,0.9150000214576721,0.33051424986169015
607.965517,,0.006586347024281794,607.757,0.7580000162124634,-0.012370417030606925
608.431034,,0.011022431412876954,608.221,0.7490000128746033,-0.03281070537496426
608.896552,,0.014810366365380627,608.686,0.7699999809265137,0.012135999850112737
609.362069,,0.016530583486762104,609.151,0.7789999842643738,0.030992708359337717
609.827586,,0.015981991908681006,609.617,0.7710000276565552,0.012890465451344105
610.293103,,0.014615204736803812,610.08,0.7689999938011169,0.00795904898307383
610.758621,,0.014204919531741089,610.55,0.75,-0.03389262205896621
611.2241379999999,,0.015116670125464306,611.01,0.7730000019073486,0.015889883888337827
611.689655,,0.01601897579126375,611.479,0.753000020980835,-0.02786797653092245
612.155172,,0.015365110463226216,611.943,0.7559999823570251,-0.02136973117427502
612.62069,,0.013077260689102007,612.406,0.7580000162124634,-0.016901454073426303
613.0862070000001,,0.010612301147570974,612.871,0.7559999823570251,-0.021002495857464817
613.551724,,0.009407414821643336,613.335,0.7739999890327454,0.018607515640998103
614.017241,,0.009504020756624942,613.801,0.7570000290870667,-0.017908907570237536
614.4827590000001,,0.009745430809439744,614.265,0.7730000019073486,0.017580094844882203
614.948276,,0.009069364605412888,614.731,0.7519999742507935,-0.027450450637180743
615.4137929999999,,0.007421551292848714,615.196,0.7570000290870667,-0.015768292311683602
615.8793099999999,,0.00553550039289386,615.661,0.8100000023841858,0.10053268144066535
616.344828,,0.004107405982208,616.128,0.7490000128746033,-0.03151355198809273
616.810345,,0.0032849554341137146,616.594,0.7739999890327454,0.023795158049291363
617.275862,,0.0027590067210201937,617.055,0.7620000243186951,-0.0015417867050993139
617.741379,,0.002205726440437939,617.524,0.7570000290870667,-0.011689543180629902
618.206897,,0.0017720633768141777,617.987,0.7739999890327454,0.02600791892569035
618.672414,,0.0021091453694797183,618.45,0.7710000276565552,0.02002712152451492
619.137931,,0.0035464627348086174,618.921,0.7710000276565552,0.020459236945085182
619.603448,,0.0051927471954468386,619.383,0.753000020980835,-0.018461595006771244
620.068966,,0.0054778812006686635,619.849,0.7739999890327454,0.027437683084599797
620.534483,,0.003918296071955106,620.314,0.7760000228881836,0.03179107511165511
621.0,,0.00178046670324261,620.779,0.7429999709129333,-0.04026056480904554
621.465517,,0.0005177527904678197,621.247,0.7739999890327454,0.02697325864386615
621.9310340000001,,7.707343317528713e-05,621.706,0.753000020980835,-0.019221559375401077
622.396552,,0.000557760556963707,622.173,0.7710000276565552,0.019425685415138727
622.862069,,0.0015505351140747325,622.638,0.7580000162124634,-0.009572847664071564
623.327586,,0.0019410491010078234,623.11,0.7260000109672546,-0.08005307635334104
623.793103,,0.0012544852687338677,623.568,0.7559999823570251,-0.015521542611739164
624.258621,,0.0004375249313469995,624.036,0.8859999775886536,0.2668394216460317
624.724138,,0.000705557034583179,624.498,0.7630000114440918,-0.0020031247764134416
625.189655,,0.00208764103768744,624.962,0.7599999904632568,-0.0093882386883231
625.655172,,0.0037073116616240824,625.431,0.7549999952316284,-0.021086858686458803
626.1206900000001,,0.005034166075061149,625.89,0.7490000128746033,-0.034895413876948285
626.5862070000001,,0.006088887626909207,626.36,0.7730000019073486,0.016747507208540863
627.0517239999999,,0.0066391917603928485,626.826,0.7910000085830688,0.0554321972174018
627.5172409999999,,0.006169525301939674,627.291,0.7689999938011169,0.0071021362853651085
627.982759,,0.0049182934755593035,627.75,0.7739999890327454,0.017739334460356318
628.448276,,0.004078904018318385,628.217,0.7730000019073486,0.01545649146489788
628.913793,,0.004322692486099414,628.683,0.7739999890327454,0.017686391488831252
629.37931,,0.00473349526527008,629.147,0.7720000147819519,0.013534652270976725
629.844828,,0.004029357316140481,629.613,0.7480000257492065,-0.03839977701544357
630.3103450000001,,0.002456650609242213,630.076,0.7739999890327454,0.018734607329775575
630.7758620000001,,0.0015228418775837717,630.546,0.7870000004768372,0.04766888010600123
631.2413789999999,,0.0019091620359844353,631.01,0.7519999742507935,-0.027868410587943728
631.706897,,0.002603663538209202,631.472,0.7879999876022339,0.05135961187042279
632.172414,,0.002422569810188453,631.935,0.7459999918937683,-0.039290738938412444
632.637931,,0.001561046099416281,632.406,0.7730000019073486,0.020415047146491127
633.103448,,0.0009861279298935886,632.871,0.7559999823570251,-0.015738099279609282
633.568966,,0.0009329038018053488,633.335,0.7580000162124634,-0.010522827205470812
634.034483,,0.000916473878264958,633.801,0.7549999952316284,-0.016254125222546968
634.5,,0.0008674112799472773,634.266,0.7789999842643738,0.03676004813904125
634.9655170000001,,0.0012313861189006605,634.732,0.7699999809265137,0.01777854894173374
635.431034,,0.0019907135514774096,635.191,0.7620000243186951,0.0008557127629897016
635.8965519999999,,0.002497706867816556,635.656,0.6890000104904175,-0.15781745443114742
636.362069,,0.0024529134630866447,636.121,0.7739999890327454,0.027584875984688673
636.827586,,0.0023761639993162844,636.588,0.7490000128746033,-0.026820834899634098
637.293103,,0.0028583780780066775,637.05,0.7760000228881836,0.03190553038323461
637.7586210000001,,0.003732741977458812,637.521,0.7549999952316284,-0.014098025833611505
638.224138,,0.00410890611449439,637.984,0.7730000019073486,0.024718845497805758
638.689655,,0.003086409922435926,638.446,0.7509999871253967,-0.023745156783057667
639.155172,,0.000713746760346582,638.91,0.7990000247955322,0.08017841601583654
639.62069,,0.001535940512590071,639.38,0.7710000276565552,0.018427592481641865
640.086207,,0.0018589347176489431,639.845,0.7739999890327454,0.024140896553801916
640.551724,,0.0002249069169829631,640.309,0.7789999842643738,0.03416281416161692
641.017241,,0.0012481197268626443,640.775,0.7699999809265137,0.013661963241671682
641.482759,,0.000723290422495665,641.235,0.7739999890327454,0.021489423910312735
641.9482760000001,,0.0011371060759273856,641.701,0.7480000257492065,-0.03600964315443015
642.413793,,0.002189158847764712,642.166,0.75,-0.032448070375924926
642.87931,,0.0015371435828221028,642.631,0.7549999952316284,-0.022267404702230154
643.344828,,0.00022804872486541043,643.099,0.7739999890327454,0.018520341300867178
643.810345,,0.0006468648836543543,643.561,0.7760000228881836,0.02239705153385861
644.275862,,0.0014355649194467616,644.028,0.7760000228881836,0.022057926774449243
644.7413789999999,,0.002993497426403501,644.492,0.7480000257492065,-0.0391315156475402
645.206897,,0.004944324277287698,644.955,0.7699999809265137,0.00876871724501131
645.672414,,0.005698012333863476,645.425,0.753000020980835,-0.028139654637340344
646.1379310000001,,0.004161753057361944,645.891,0.7639999985694885,-0.0038911508904868877
646.6034480000001,,0.0009015150209516206,646.353,0.75,-0.03396264473548799
647.0689659999999,,0.0024827986941018897,646.818,0.7480000257492065,-0.037757492664858366
647.534483,,0.004722202938779153,647.284,0.765999972820282,0.002136124626488816
648.0,,0.005435327276171662,647.75,0.7720000147819519,0.015981802458347346
648.465517,,0.004778361371334154,648.214,0.7730000019073486,0.01900657027151525
648.931034,,0.0031905430802470413,648.68,0.7580000162124634,-0.01278075248866512
649.396552,,0.0015368384701608944,649.146,0.7720000147819519,0.018631080780386083
649.862069,,0.0007966822893780325,649.605,0.7699999809265137,0.01517478787590886
650.327586,,0.0010083544219148797,650.073,0.7459999918937683,-0.0362496320503639
650.7931030000001,,0.0008106012261285218,650.535,0.7590000033378601,-0.00712956478114442
651.258621,,0.0012624766681051986,651.006,0.7519999742507935,-0.021673115644894256
651.7241379999999,,0.004873127727943008,651.468,0.7739999890327454,0.026851958324307184
652.189655,,0.007650020541436457,651.936,0.7739999890327454,0.02731640270993097
652.655172,,0.007235534585140954,652.398,0.7739999890327454,0.027636222521994776
653.12069,,0.0037843815551534352,652.864,0.7490000128746033,-0.02666552263750168
653.5862070000001,,0.00034560560496038796,653.327,0.7720000147819519,0.02344644732533108
654.051724,,0.0001119445338348073,653.793,0.753000020980835,-0.018106717395482832
654.517241,,0.002747959300516787,654.258,0.7549999952316284,-0.014065924313463872
654.982759,,0.004096084344630562,654.723,0.7710000276565552,0.02032792112802611
655.448276,,0.0006666682214236353,655.191,0.7770000100135803,0.03280180251171971
655.9137929999999,,0.00583038978231449,655.657,0.6019999980926514,-0.3491777023259315
656.37931,,0.00981733740088057,656.122,0.7300000190734863,-0.07112633879309993
656.844828,,0.007978677877510347,656.58,0.7519999742507935,-0.024084601630825816
657.310345,,0.002842320509966921,657.05,0.7720000147819519,0.018558720033253085
657.7758620000001,,0.00035725049072874983,657.513,0.7549999952316284,-0.01941943744857877
658.241379,,0.0006038777449465505,657.981,0.7570000290870667,-0.015985162930504594
658.7068969999999,,0.003330562168619318,658.443,0.7829999923706055,0.039783773474302585
659.172414,,0.004356308619760197,658.913,0.7519999742507935,-0.028555026043435953
659.637931,,0.002898947583000704,659.376,0.7739999890327454,0.018674855588376622
660.103448,,0.0006834019763587913,659.842,0.7509999871253967,-0.03201238495098016
660.568966,,0.0007274086816055831,660.306,0.7490000128746033,-0.03680796963141005
661.034483,,0.0010977970822951865,660.765,0.7559999823570251,-0.021842277754958235
661.5,,0.0004629246788164853,661.232,0.7580000162124634,-0.017606677923217934
661.965517,,0.00143571184291388,661.698,0.843999981880188,0.16980424601337868
662.4310340000001,,0.004033197457614114,662.161,0.7490000128746033,-0.03695100685449323
662.8965519999999,,0.005401704408902342,662.627,0.7760000228881836,0.02225005105409395
663.362069,,0.00406833856635957,663.095,0.7390000224113464,-0.057834479196199474
663.827586,,0.0011613233218254484,663.558,0.7490000128746033,-0.03539157800290459
664.293103,,0.0002760854584242926,664.021,0.765999972820282,0.0024122806870083596
664.7586210000001,,0.0015654059220740141,664.491,0.7590000033378601,-0.011984039029550283
665.224138,,0.005225601818504189,664.954,0.7730000019073486,0.01943209344448615
665.689655,,0.007288452570106441,665.417,0.7480000257492065,-0.034086851121184716
666.155172,,0.005545412344408543,665.882,0.7739999890327454,0.023507512508634545
666.62069,,0.0008719258607470074,666.345,0.6740000247955322,-0.19343658245521816
667.086207,,0.003709168993317529,666.811,0.7549999952316284,-0.016104726623840375
667.5517239999999,,0.005624559440372496,667.276,0.7649999856948853,0.0064580463529601735
668.017241,,0.0045713598916964126,667.742,0.7850000262260437,0.05070037034053613
668.482759,,0.002123173261446415,668.21,0.7730000019073486,0.025098457951340445
668.948276,,9.663787184491045e-05,668.676,0.7609999775886536,-0.000648138547848026
669.413793,,0.0016354732071668901,669.14,0.753000020980835,-0.017838095323065694
669.87931,,0.0027851296993943427,669.606,0.7739999890327454,0.02798669119111386
