Trial: ,14
Threshold: ,0.0
Maximum EMG: ,0.0772500020579631
Success: ,True

EMG Time,Raw EMG,Filtered EMG,Force Time,Raw Force (V),Filtered Force (N)
0.0,samples,2.208651692960985e-07,0.471,0.7590000033378601,-0.025249609202128105
0.46551699999999996,time,2.3295861559500266e-07,0.934,0.7730000019073486,0.005199121939415791
0.9310339999999999,value,2.447440406265256e-07,1.399,0.781000018119812,0.022650617774911782
1.396552,,2.5616613624068506e-07,1.86,0.7789999842643738,0.018390367219039652
1.862069,,2.6716850063596974e-07,2.325,0.7760000228881836,0.012023836610445628
2.327586,,2.776937921537169e-07,2.797,0.7609999775886536,-0.020419850752562533
2.793103,,2.876838930643228e-07,3.255,0.7580000162124634,-0.02666051588985189
3.258621,,2.9708008319304516e-07,3.72,0.7590000033378601,-0.024136995410152212
3.724138,,3.0582322319150956e-07,4.186,0.777999997138977,0.01764170534299423
4.189654999999999,,3.1385394721828197e-07,4.66,0.7680000066757202,-0.0037322043590601794
4.655172,,3.211128647481116e-07,5.119,0.777999997138977,0.018482394101571663
5.12069,,3.275407711848038e-07,5.587,0.7760000228881836,0.014555643180126693
5.586207,,3.3307886690726734e-07,6.049,0.7599999904632568,-0.019883652141908792
6.051723999999999,,3.37668984332222e-07,6.512,0.7739999890327454,0.011011667075465274
6.517241,,3.4125382253049415e-07,6.981,0.7549999952316284,-0.03002599423277765
6.982759,,3.437771888869045e-07,7.44,0.7580000162124634,-0.023182694104158935
7.448276,,3.451842472466228e-07,7.91,0.7620000243186951,-0.014220176373753033
7.913793000000001,,3.454217719436841e-07,8.376,0.828000009059906,0.12975252866429796
8.379309999999998,,3.444384070602981e-07,8.841,0.7770000100135803,0.018752839413491734
8.844828000000001,,3.421849302188075e-07,9.3,0.777999997138977,0.020967829583172486
9.310345,,3.3861452016184616e-07,9.765,0.8040000200271606,0.0775720050888448
9.775862,,3.336830273305935e-07,10.23,0.7609999775886536,-0.016226961646199977
10.241379,,3.2734924660621623e-07,10.697,0.765999972820282,-0.005524815735407501
10.706897,,3.195751913358172e-07,11.163,0.8600000143051147,0.1990096561275587
11.172414,,3.103263677216861e-07,11.63,0.8460000157356262,0.16819326197431758
11.637931,,2.995720486115681e-07,12.093,0.7620000243186951,-0.015176305631527442
12.103447999999998,,2.872855456882416e-07,12.556,0.7369999885559082,-0.0700465666764288
12.568966000000001,,2.7344447901914097e-07,13.026,0.6359999775886536,-0.29052733121469393
13.034483,,2.5803104289128545e-07,13.486,0.7940000295639038,0.05324103633123533
13.5,,2.4103226682359957e-07,13.956,0.7620000243186951,-0.016937528666421137
13.965517,,2.2244027061805194e-07,14.422,0.7649999856948853,-0.01085049973509334
14.431034,,2.0225251228311357e-07,14.88,0.7919999957084656,0.04755149013693089
14.896552,,1.8047202763806234e-07,15.346,0.7480000257492065,-0.04868947823349048
15.362069,,1.5710766038485465e-07,15.815,0.7820000052452087,0.02505706904826152
15.827586000000002,,1.3217428141586244e-07,16.28,0.7770000100135803,0.013900530231974004
16.293103,,1.0569299611094482e-07,16.746,0.7519999742507935,-0.04075601476379512
16.758621,,7.769133836629679e-08,17.211,0.75,-0.04522481311248266
17.224138,,4.820345009049723e-08,17.675,0.7599999904632568,-0.02346729132834852
17.689655,,1.7270244900362142e-08,18.141,0.7910000085830688,0.04412719297328088
18.155172,,1.5060445249211787e-08,18.604,0.7739999890327454,0.007231806383317779
18.62069,,4.8733741761069656e-08,19.067,0.7739999890327454,0.007455171725593263
19.086207,,8.368761066602838e-08,19.53,0.7590000033378601,-0.024926374650030465
19.551724,,1.1985277470041907e-07,20.0,0.6869999766349792,-0.18142682503321977
20.017241000000002,,1.5715264740293137e-07,20.464,0.7739999890327454,0.008530133342101886
20.482758999999998,,1.955032904166113e-07,20.926,0.7699999809265137,0.0002714816599201828
20.948276,,2.3481339515037157e-07,21.392,0.7620000243186951,-0.016672615571962743
21.413793000000002,,2.749842899174053e-07,21.857,0.7770000100135803,0.01650618305611229
21.87931,,3.15909973625346e-07,22.322,0.777999997138977,0.01918295944386534
22.344828,,3.5747717704480177e-07,22.789,0.781000018119812,0.02620094561013218
22.810344999999998,,3.995654526289344e-07,23.255,0.777999997138977,0.02011557729692753
23.275862,,4.4204729379700077e-07,23.72,0.7620000243186951,-0.014338329413195535
23.741379,,4.847882845291858e-07,24.185,0.7739999890327454,0.012149977112039825
24.206897,,5.276472800486146e-07,24.646,0.75,-0.039864573910554216
24.672414,,5.704766192891404e-07,25.115,0.753000020980835,-0.03313709694613638
25.137931,,6.131223697643828e-07,25.578,0.7580000162124634,-0.02214097701203292
25.603448,,6.554246053645897e-07,26.04,0.796999990940094,0.06283745075475594
26.068966,,6.972177175132758e-07,26.509,0.7739999890327454,0.012647819021968976
26.534483,,7.383307600153482e-07,26.971,0.7599999904632568,-0.01802463132340854
27.0,,7.785878278226681e-07,27.436,0.7570000290870667,-0.02481911664599736
27.465517,,8.17808469831869e-07,27.906,0.7789999842643738,0.022772435052230203
27.931034,,8.558081357129149e-07,28.365,0.5540000200271606,-0.46783584397346356
28.396552,,8.923986566455236e-07,28.831,0.8399999737739563,0.15478148239141462
28.862069,,9.27388759714419e-07,29.296,0.7739999890327454,0.01047030202677346
29.327586,,9.605846155836556e-07,29.764,0.7739999890327454,0.009924871352111975
29.793103000000002,,9.917904189352446e-07,30.229,0.7570000290870667,-0.02766708698167616
30.258620999999998,,1.0208090010183001e-06,30.693,0.7749999761581421,0.011001063524539025
30.724138,,1.0474424735122418e-06,31.159,0.7559999823570251,-0.030915728749181037
31.189655000000002,,1.071492902761583e-06,31.62,0.7990000247955322,0.0622858999758406
31.655172000000004,,1.0927630132908803e-06,32.089,0.7839999794960022,0.029184239744999143
32.12069,,1.1110569193569284e-06,32.552,0.7599999904632568,-0.023453057891601535
32.586207,,1.1261808831416677e-06,33.015,0.7770000100135803,0.013317036282072967
33.051724,,1.1379440980340162e-06,33.486,0.7739999890327454,0.006605944301699742
33.517241000000006,,1.1461594952923872e-06,33.948,0.777999997138977,0.015243793355474097
33.982759,,1.1506445722225513e-06,34.414,0.7519999742507935,-0.04137686038580092
34.448276,,1.151222239848263e-06,34.878,0.7620000243186951,-0.019465708877662115
34.913793,,1.147721687895236e-06,35.344,0.8489999771118164,0.17029981021049434
35.37931,,1.139979264753223e-06,35.809,0.7739999890327454,0.007218556455375615
35.844828,,1.127839369926719e-06,36.274,0.7739999890327454,0.00761962898987126
36.310345,,1.1111553563327784e-06,36.742,0.7730000019073486,0.005912138815871194
36.775862,,1.0897904396552607e-06,37.2,0.7870000004768372,0.03694016743398812
37.241378999999995,,1.0636186118191445e-06,37.665,0.7760000228881836,0.013541799597750714
37.706897000000005,,1.0325255555070501e-06,38.13,0.7490000128746033,-0.04469359307988996
38.172414,,9.964095565034733e-07,38.601,0.7480000257492065,-0.04628232639056814
38.637931,,9.551824105211437e-07,39.063,0.765999972820282,-0.006493939731209548
39.103448,,9.087703210391072e-07,39.531,0.824999988079071,0.12258577322998399
39.568965999999996,,8.571147845642826e-07,39.993,0.7739999890327454,0.011965001202060269
40.034483,,8.00173459618102e-07,40.464,0.7770000100135803,0.01892575559489414
40.5,,7.379210156481253e-07,40.926,0.7369999885559082,-0.0678765115172394
40.965517,,6.703499579719576e-07,41.385,0.7609999775886536,-0.015338567253683112
41.431034,,5.974714247781032e-07,41.856,0.7570000290870667,-0.023904394038683285
41.896552,,5.193159521362962e-07,42.322,0.7760000228881836,0.017532269403367037
42.362069000000005,,4.359342029090711e-07,42.787,0.7739999890327454,0.01310961942226316
42.827586000000004,,3.4739765540757353e-07,43.245,0.7739999890327454,0.012938484285107108
43.293103,,2.5379924759855904e-07,43.713,0.7739999890327454,0.01266627141521194
43.758621,,1.552539726468618e-07,44.179,0.7490000128746033,-0.04216564450069238
44.224138,,5.189942156899925e-08,44.641,0.777999997138977,0.02056651221438048
44.689655,,5.6103731220355946e-08,45.111,0.7580000162124634,-0.023524021322952053
45.155172,,1.6857130366594137e-07,45.572,0.7599999904632568,-0.01973753074676169
45.620689999999996,,2.8529524729316934e-07,46.041,0.7870000004768372,0.03848004638556871
46.086206999999995,,4.06043357999073e-07,46.504,0.7549999952316284,-0.031858544139898005
46.551724,,5.305590604482849e-07,46.967,0.7739999890327454,0.008917347315828874
47.017241,,6.58561270021334e-07,47.432,0.7789999842643738,0.019215268545852073
47.482759,,7.897443361566136e-07,47.895,0.7599999904632568,-0.02273215630229084
47.948276,,9.237780708031678e-07,48.361,0.7760000228881836,0.011632764007340785
48.413793,,1.0603078655586308e-06,48.826,0.7559999823570251,-0.03235852611796391
48.879310000000004,,1.1989549009049236e-06,49.293,0.7889999747276306,0.03920775587386905
49.344828,,1.3393164507734535e-06,49.76,0.9150000214576721,0.31349169890971385
49.810345,,1.480966285471357e-06,50.225,0.7749999761581421,0.008368187880695967
50.275862,,1.6234551757806706e-06,50.69,0.777999997138977,0.014906160632743973
50.741379,,1.766311500803159e-06,51.155,0.7639999985694885,-0.015481002969819274
51.206897,,1.909041961864875e-06,51.616,0.7739999890327454,0.006527747871622784
51.672414,,2.0511324045164495e-06,52.086,0.7990000247955322,0.06131856538194044
52.137931,,2.192048750367756e-06,52.549,0.7599999904632568,-0.02323163687271294
52.603448,,2.331238040179235e-06,53.011,0.7599999904632568,-0.02273563641599838
53.068966,,2.4681295892970276e-06,53.479,0.7570000290870667,-0.02871285665049352
53.534483,,2.602136256165618e-06,53.941,0.777999997138977,0.01764292292800852
54.0,,2.7326558242803492e-06,54.407,0.6949999928474426,-0.16255480468505062
54.465517,,2.859072497553497e-06,54.874,0.777999997138977,0.01890844566583304
54.931034,,2.980758508662228e-06,55.34,0.7559999823570251,-0.02839993680065772
55.396552,,3.097075839525443e-06,55.805,0.7620000243186951,-0.014737933460415645
55.862069,,3.207378052620016e-06,56.271,0.7739999890327454,0.011945542890519809
56.327586,,3.311012231396196e-06,56.731,0.7630000114440918,-0.011546534068040907
56.793102999999995,,3.4073210275879536e-06,57.197,0.7739999890327454,0.012810031677320668
57.258621000000005,,3.4956448127378398e-06,57.664,0.7739999890327454,0.013107845723250739
57.724138,,3.5753239307687443e-06,58.129,0.7739999890327454,0.013302753223385984
58.189655,,3.6457010479379935e-06,58.59,0.7739999890327454,0.013388456710436512
58.655172,,3.706123596003878e-06,59.06,0.7620000243186951,-0.012781920966158818
59.120689999999996,,3.7559463039223844e-06,59.52,0.546999990940094,-0.4813345341171692
59.586207,,3.7945338128741466e-06,59.989,0.7609999775886536,-0.015362852375803322
60.051724,,3.821263368900073e-06,60.455,0.7739999890327454,0.012596468666310551
60.517241,,3.835527586900381e-06,60.921,0.7599999904632568,-0.018355968610401195
60.982758999999994,,3.836737279227723e-06,61.387,0.7760000228881836,0.015977183387040017
61.448276,,3.824324341582506e-06,61.845,0.7739999890327454,0.011037366667608052
61.913793,,3.7977446883993455e-06,62.31,0.7599999904632568,-0.020085071237036498
62.379310000000004,,3.7564812293998867e-06,62.782,0.753000020980835,-0.035977050725166236
62.84482800000001,,3.7000468784809565e-06,63.24,0.7609999775886536,-0.019189914009987232
63.310345000000005,,3.627987585610381e-06,63.705,0.7609999775886536,-0.019812098910926005
63.775862000000004,,3.5398853819179677e-06,64.171,0.7739999890327454,0.007927794958958474
64.241379,,3.4353614276983458e-06,64.641,0.7829999923706055,0.02701152728893848
64.706897,,3.3140790525878743e-06,65.103,0.777999997138977,0.015669433284860795
65.172414,,3.175746776741984e-06,65.571,0.7739999890327454,0.006595047087979599
65.637931,,3.0201213014244776e-06,66.034,0.7590000033378601,-0.026344774905601928
66.103448,,2.8470104570288658e-06,66.497,0.7879999876022339,0.03668342304478934
66.56896599999999,,2.656276096186167e-06,66.967,0.777999997138977,0.0148570706047091
67.03448300000001,,2.4478369192761343e-06,67.425,0.781000018119812,0.0214671528652915
67.5,,2.2216712193520626e-06,67.897,0.7789999842643738,0.017295169525209122
67.965517,,1.9778195332155546e-06,68.355,0.781000018119812,0.021943196645722158
68.431034,,1.716387185139321e-06,68.827,0.753000020980835,-0.03867289163206522
68.896552,,1.4375467095355916e-06,69.285,0.7649999856948853,-0.012060768882673694
69.362069,,1.141540138707401e-06,69.75,0.7590000033378601,-0.024596929788215253
69.827586,,8.286811417021969e-07,70.215,0.777999997138977,0.017383830977668893
70.293103,,4.99357000214139e-07,70.682,0.7570000290870667,-0.02774878324149652
70.75862099999999,,1.5403040745530989e-07,71.148,0.7760000228881836,0.01427751800415667
71.22413800000001,,2.067589240610394e-07,71.612,0.902999997138977,0.29159384080253425
71.689655,,5.823928598080847e-07,72.081,0.781000018119812,0.026405693025176903
72.15517200000001,,9.72173659459715e-07,72.542,0.7820000052452087,0.029149115324497044
72.62069,,1.3753230257054558e-06,73.011,0.7599999904632568,-0.018279125086046615
73.086207,,1.7909813991014822e-06,73.475,0.7730000019073486,0.010466260770756595
73.551724,,2.218207512096498e-06,73.937,0.7590000033378601,-0.019704581298006243
74.017241,,2.6559782150149285e-06,74.403,0.7739999890327454,0.013202321429278274
74.482759,,3.1031885863626107e-06,74.868,0.777999997138977,0.022034372528776637
74.94827599999999,,3.5586523393408125e-06,75.333,0.7580000162124634,-0.021534433090960436
75.41379300000001,,4.0211025359119715e-06,75.801,0.7590000033378601,-0.019465628271876676
75.87931,,4.489192619154264e-06,76.267,0.7910000085830688,0.05003127659782388
76.344828,,4.961497773971391e-06,76.727,0.753000020980835,-0.033079690240267155
76.810345,,5.436516625488386e-06,77.193,0.7829999923706055,0.03186505576462669
77.275862,,5.9126732836636265e-06,77.657,0.7979999780654907,0.06405171203571283
77.741379,,6.388319741781666e-06,78.124,0.7480000257492065,-0.045436167046269516
78.206897,,6.861738635561215e-06,78.586,0.7620000243186951,-0.015536729260550376
78.67241399999999,,7.331146368618161e-06,79.055,0.7770000100135803,0.016514199063483434
79.137931,,7.794696608965632e-06,79.519,0.7490000128746033,-0.04512359539690023
79.603448,,8.25048416011284e-06,79.982,0.7630000114440918,-0.01524527827967324
80.068966,,8.696549209143171e-06,80.447,0.7739999890327454,0.008129902914453375
80.53448300000001,,9.13088195291118e-06,80.911,0.7580000162124634,-0.02726634789315293
81.0,,9.55142760219966e-06,81.377,0.777999997138977,0.015837744280447954
81.465517,,9.95609176232398e-06,81.842,0.777999997138977,0.01545331248811903
81.931034,,1.0342746187263864e-05,82.307,0.7490000128746033,-0.048015460679905045
82.396552,,1.0709234902945335e-05,82.774,0.7739999890327454,0.00626770062011197
82.86206899999999,,1.1053380693790852e-05,83.24,0.7609999775886536,-0.02212687300213821
83.327586,,1.1372991945106835e-05,83.705,0.7590000033378601,-0.026443091934430087
83.79310299999999,,1.1665869832288634e-05,84.171,0.777999997138977,0.015104114066884323
84.258621,,1.1929815846197376e-05,84.634,0.7549999952316284,-0.03474469274172997
84.72413800000001,,1.2162639642405174e-05,85.096,0.7770000100135803,0.013544638818680914
85.189655,,1.2362167200319558e-05,85.56,0.7609999775886536,-0.020867231612828767
85.65517200000001,,1.252624927648937e-05,86.03,0.7749999761581421,0.01015389599833021
86.12069,,1.2652770134667915e-05,86.49,0.7739999890327454,0.008552441720661169
86.586207,,1.2739656533470338e-05,86.96,0.7570000290870667,-0.02786866981369282
87.051724,,1.2784886950716479e-05,87.425,0.7739999890327454,0.009802853495253613
87.517241,,1.2786501021803958e-05,87.889,0.7630000114440918,-0.01352901557294911
87.98275899999999,,1.2742609167715016e-05,88.355,0.7730000019073486,0.008869264173818893
88.448276,,1.2651402386531157e-05,88.819,0.777999997138977,0.02033366716581416
88.913793,,1.2511162180618654e-05,89.284,0.7839999794960022,0.03391832447225574
89.37931,,1.2320270589962259e-05,89.749,0.7749999761581421,0.01474867127032235
89.844828,,1.2077220300471226e-05,90.215,0.7590000033378601,-0.019760632258811025
90.310345,,1.1780624794468227e-05,90.675,0.7770000100135803,0.01970326503161076
90.775862,,1.1429228509005399e-05,91.141,0.7630000114440918,-0.010658363310852993
91.241379,,1.1021916966140243e-05,91.612,0.7609999775886536,-0.014989804560918566
91.706897,,1.0557726837855081e-05,92.073,0.6079999804496765,-0.3484148601363533
92.17241399999999,,1.0035855906925302e-05,92.536,0.781000018119812,0.028282539650107078
92.63793100000001,,9.455672883741495e-06,93.006,0.8240000009536743,0.12164936266357418
93.103448,,8.816727037876847e-06,93.47,0.7839999794960022,0.03409655206554922
93.568966,,8.118757602071917e-06,93.933,0.7739999890327454,0.011823747116320152
94.03448300000001,,7.361702905292213e-06,94.398,0.7630000114440918,-0.012692993681233247
94.5,,6.545709190607885e-06,94.863,0.7580000162124634,-0.02418627529627606
94.965517,,5.671139072857319e-06,95.329,0.781000018119812,0.02529340208097989
95.431034,,4.738579590395476e-06,95.794,0.7739999890327454,0.009405031029107018
95.896552,,3.7488498047011504e-06,96.259,0.7580000162124634,-0.026079368150443254
96.36206899999999,,2.703007901232772e-06,96.727,0.781000018119812,0.02343483128631178
96.827586,,1.6023577446872708e-06,97.185,0.7519999742507935,-0.04029054072660664
97.293103,,4.484548417383656e-07,97.652,0.7590000033378601,-0.025517283398195482
97.758621,,7.568883355837266e-07,98.115,0.7580000162124634,-0.028091248296588843
98.224138,,2.011597712452807e-06,98.586,0.7739999890327454,0.00646675366125948
98.689655,,3.313333705895635e-06,99.048,0.7760000228881836,0.010629035528679017
99.155172,,4.659488097060788e-06,99.512,0.7570000290870667,-0.030848876656350135
99.62069,,6.047181725833292e-06,99.982,0.6140000224113464,-0.34236847297089795
100.086207,,7.473263051521024e-06,100.44,0.7609999775886536,-0.02197272388342177
100.551724,,8.93430762213991e-06,100.91,0.7789999842643738,0.017483692622466043
101.017241,,1.0426618493422684e-05,101.375,0.7570000290870667,-0.030103776334824903
101.482759,,1.19462276370664e-05,101.835,0.8360000252723694,0.14244462663631302
101.948276,,1.3488898375914027e-05,102.3,0.7760000228881836,0.012241015385878792
102.413793,,1.5050128881732568e-05,102.767,0.5540000200271606,-0.4708447182652179
102.87931,,1.6625156769002335e-05,103.233,0.781000018119812,0.024318820313626702
103.344828,,1.8208964815667916e-05,103.698,0.597000002861023,-0.3759249500703466
103.810345,,1.9796287839120582e-05,104.164,0.8360000252723694,0.14539984243387766
104.275862,,2.1381620752784425e-05,104.627,0.7760000228881836,0.015293209231941314
104.741379,,2.2959227825565537e-05,105.097,0.7820000052452087,0.028945407960872884
105.206897,,2.4523153163096615e-05,105.56,0.7580000162124634,-0.022813349917361232
105.672414,,2.6067232426171327e-05,106.023,0.7670000195503235,-0.0027455685028103683
106.13793100000001,,2.7585105798016873e-05,106.486,0.7699999809265137,0.004166657429826519
106.603448,,2.9070232208104044e-05,106.956,0.5329999923706055,-0.5118966386751207
107.068966,,3.051590481604689e-05,107.421,0.7580000162124634,-0.021537287884067845
107.534483,,3.1915267754804983e-05,107.88,0.7739999890327454,0.013370022443951442
108.0,,3.326133412787744e-05,108.346,0.6949999928474426,-0.1588067275795936
108.46551699999999,,3.454700525047769e-05,108.815,0.75,-0.03915658065333865
108.931034,,3.5765091119810326e-05,109.28,0.765999972820282,-0.004579564015150057
109.396552,,3.690833209454624e-05,109.741,0.7620000243186951,-0.013670744818793778
109.862069,,3.796942175842148e-05,110.207,0.7739999890327454,0.012013002652563056
110.32758600000001,,3.894103093757986e-05,110.671,0.7760000228881836,0.015841837459140792
110.793103,,3.981583283585326e-05,111.137,0.7580000162124634,-0.023954639558560413
111.258621,,4.0586529246640796e-05,111.6,0.8130000233650208,0.09525640594902092
111.724138,,4.1245877794423366e-05,112.071,0.777999997138977,0.018375051375710168
112.189655,,4.1786720153249665e-05,112.534,0.7570000290870667,-0.028000361242404494
112.655172,,4.220201118377118e-05,112.997,0.7850000262260437,0.03240086767549002
113.12069,,4.248484892460408e-05,113.467,0.7900000214576721,0.04273517443244184
113.586207,,4.262850536797476e-05,113.93,0.7839999794960022,0.02916389901586633
114.051724,,4.262645794378295e-05,114.396,0.7580000162124634,-0.027906024410319634
114.51724100000001,,4.2472421630411834e-05,114.861,0.843999981880188,0.15912012913174345
114.982759,,4.216038160485104e-05,115.326,0.7749999761581421,0.008554766777797458
115.448276,,4.1684626338996784e-05,115.786,0.7599999904632568,-0.02425870618651299
115.913793,,4.1039781043377676e-05,116.252,0.781000018119812,0.02146629212793538
116.37931,,4.022084135404841e-05,116.719,0.7739999890327454,0.006296907892408178
116.84482799999999,,3.922320715302066e-05,117.185,0.765999972820282,-0.010946005717686447
117.310345,,3.804271640738611e-05,117.646,0.7760000228881836,0.011125762038292032
117.77586199999999,,3.6675678907256446e-05,118.116,0.777999997138977,0.015858301511120273
118.241379,,3.5118909777824675e-05,118.579,0.6200000047683716,-0.3279172145340044
118.70689700000001,,3.3369762636267775e-05,119.041,0.7480000257492065,-0.04854062063236708
119.172414,,3.1426162259889085e-05,119.512,0.7580000162124634,-0.026199721479340292
119.63793100000001,,2.928663662786651e-05,119.974,0.7789999842643738,0.020137768267445542
120.103448,,2.6950348195256554e-05,120.44,0.7749999761581421,0.012023938065362014
120.568966,,2.4417124254531398e-05,120.902,0.7590000033378601,-0.022236766960614367
121.034483,,2.168748623692332e-05,121.368,0.7710000276565552,0.0044832373588824526
121.5,,1.8762677803244494e-05,121.83,0.7739999890327454,0.011556817603264408
121.96551699999999,,1.564469157166718e-05,122.295,0.7580000162124634,-0.02281821861760568
122.431034,,1.233629432821532e-05,122.762,0.7730000019073486,0.010275719900153038
122.896552,,8.84105056445945e-06,123.227,0.7580000162124634,-0.022071127651059074
123.362069,,5.163344186147246e-06,123.694,0.7739999890327454,0.013028866289866475
123.827586,,1.3083982362667374e-06,124.16,0.7570000290870667,-0.023864715854163894
124.293103,,2.717707523648798e-06,124.623,0.765999972820282,-0.004216249686211381
124.758621,,6.9080213292830364e-06,125.086,0.7480000257492065,-0.043495093494215174
125.22413800000001,,1.1254706580201025e-05,125.556,0.781000018119812,0.02823517998540271
125.68965500000002,,1.5749031609165407e-05,126.019,0.8050000071525574,0.08026217964227345
126.15517200000001,,2.0381362203137634e-05,126.482,0.7850000262260437,0.036342300318749264
126.62069000000001,,2.5141157021632532e-05,126.945,0.8149999976158142,0.10127907273702784
127.086207,,3.001696605406528e-05,127.41,0.7820000052452087,0.02889803170361856
127.55172400000001,,3.499643225302183e-05,127.875,0.781000018119812,0.026184475411392707
128.017241,,4.006629647498425e-05,128.34,0.7639999985694885,-0.011422022708592643
128.48275900000002,,4.5212405853941004e-05,128.812,0.746999979019165,-0.04904718007829655
128.948276,,5.041972572649991e-05,129.27,0.7490000128746033,-0.045280093847483695
129.413793,,5.567235521959254e-05,129.735,0.7580000162124634,-0.02624733211518821
129.87931,,6.0953546603608395e-05,130.201,0.7089999914169312,-0.1335445465853946
130.344828,,6.624572850482366e-05,130.667,0.7990000247955322,0.06203858419238757
130.81034499999998,,7.153053306129343e-05,131.133,0.7799999713897705,0.020213683146229643
131.275862,,7.678882709596176e-05,131.601,0.7749999761581421,0.008968733668962317
131.741379,,8.200074736961624e-05,132.063,0.7580000162124634,-0.02833148502207168
132.206897,,8.714573996448185e-05,132.526,0.7870000004768372,0.03468223206382306
132.67241399999997,,9.220260383672443e-05,132.997,0.777999997138977,0.015009168108667554
133.13793099999998,,9.714953856293198e-05,133.456,0.781000018119812,0.021584095425637627
133.60344800000001,,0.00010196419629177957,133.921,0.7559999823570251,-0.03274075986613244
134.06896600000002,,0.00010662373789758253,134.387,0.7940000295639038,0.050287647567991714
134.53448300000002,,0.00011110489331732549,134.852,0.7680000066757202,-0.0060261078381948045
135.0,,0.00011538402603704985,135.318,0.7609999775886536,-0.020864248188269843
135.465517,,0.00011943720167721943,135.783,0.7580000162124634,-0.026919443974186847
135.931034,,0.00012324026060989826,136.248,0.7760000228881836,0.012830906488907539
136.396552,,0.00012676889452330073,136.715,0.7590000033378601,-0.023633155416615526
136.862069,,0.0001299987268315544,137.181,0.777999997138977,0.01835554986886863
137.327586,,0.0001329053968093945,137.642,0.7979999780654907,0.06252730464048785
137.793103,,0.00013546464731303042,138.111,0.7549999952316284,-0.030568902598855554
138.258621,,0.00013765241592964163,138.575,0.7910000085830688,0.048416957408147776
138.724138,,0.00013944492937892575,139.037,0.722000002861023,-0.10140396305840592
139.189655,,0.0001408188009708915,139.501,0.7699999809265137,0.0036123064609247784
139.655172,,0.0001417511309047243,139.97,0.7649999856948853,-0.006917296051944909
140.12069,,0.00014221960917411554,140.436,0.777999997138977,0.02168137043032078
140.586207,,0.00014220262082500357,140.898,0.7609999775886536,-0.015175128155501512
141.05172399999998,,0.00014167935329229448,141.364,0.7879999876022339,0.04372807332210671
141.51724099999998,,0.00014062990552288348,141.831,0.7580000162124634,-0.021654917145254724
141.982759,,0.00013903539857326,142.296,0.7990000247955322,0.06754370457444622
142.44827600000002,,0.00013687808735122657,142.761,0.7599999904632568,-0.017648230791257356
142.913793,,0.0001341414731528713,143.227,0.7739999890327454,0.01253594972186591
143.37931,,0.00013081041662798897,143.686,0.7590000033378601,-0.020544176932378966
143.844828,,0.00012687125078972663,144.152,0.777999997138977,0.02037810875801221
144.310345,,0.00012231189366742294,144.615,0.7580000162124634,-0.023724439867969536
144.77586200000002,,0.00011712196018550162,145.085,0.7749999761581421,0.012740987094698486
145.241379,,0.0001112928728359545,145.546,0.777999997138977,0.018680856514035
145.706897,,0.00010481797069749746,146.015,0.7599999904632568,-0.02113772799693477
146.172414,,9.76926163409907e-05,146.475,0.7720000147819519,0.004414045291395832
146.637931,,8.991430014827466e-05,146.945,0.7590000033378601,-0.024472137400872007
147.103448,,8.148274156027075e-05,147.41,0.7760000228881836,0.012046491174162625
147.568966,,7.23999867601224e-05,147.875,0.7760000228881836,0.011589237028753493
148.034483,,6.267050228839497e-05,148.341,0.7609999775886536,-0.021472889308624545
148.5,,5.2301264079999106e-05,148.801,0.777999997138977,0.015268132952079912
148.965517,,4.1301841406638614e-05,149.267,0.753000020980835,-0.03939902748962611
149.43103399999998,,2.968447520429372e-05,149.734,0.7599999904632568,-0.024248800094057093
149.89655199999999,,1.7464150262618006e-05,150.199,0.7590000033378601,-0.02642399985450331
150.362069,,4.658660752230593e-06,150.664,0.7760000228881836,0.010720688559274801
150.82758600000003,,8.711331433197544e-06,151.13,0.7749999761581421,0.008751340141747041
151.293103,,2.2622246040359057e-05,151.593,0.7889999747276306,0.0395581237261594
151.758621,,3.7047542040759885e-05,152.056,0.7749999761581421,0.009450322672899886
152.224138,,5.195768394494706e-05,152.526,0.7739999890327454,0.007740682038539146
152.68965500000002,,6.732011734638331e-05,152.989,0.7549999952316284,-0.033123533559893684
153.155172,,8.309925418381778e-05,153.455,0.7760000228881836,0.013203288049294203
153.62069,,9.925646819778684e-05,153.921,0.7440000176429749,-0.055910651362016735
154.086207,,0.000115750101041421,154.387,0.8370000123977661,0.14731723931543036
154.551724,,0.00013253547948799277,154.845,0.777999997138977,0.019384527256186605
155.017241,,0.00014956494415758315,155.311,0.7739999890327454,0.011252830581704783
155.482759,,0.00016678789016284345,155.782,0.7739999890327454,0.011792174511648618
155.948276,,0.00018415082004906493,156.24,0.7590000033378601,-0.020408471468240152
156.413793,,0.0002015974093766295,156.705,0.7580000162124634,-0.02218346650597506
156.87931,,0.00021906858526439497,157.171,0.7850000262260437,0.036956144992085445
157.34482799999998,,0.0002365026181806748,157.641,0.7590000033378601,-0.019469482553653834
157.81034499999998,,0.00025383522723421685,158.104,0.7770000100135803,0.019861825241506724
158.275862,,0.0002709996991809902,158.572,0.7770000100135803,0.019870222902057654
158.741379,,0.00028792702132368506,159.034,0.7580000162124634,-0.02162341591567576
159.20689700000003,,0.0003045460284396613,159.497,0.7770000100135803,0.019566270900998786
159.672414,,0.0003207835638296941,159.967,0.7580000162124634,-0.022132070995336917
160.137931,,0.0003365646545343254,160.425,0.7599999904632568,-0.01816960428366004
160.60344800000001,,0.00035181270071700895,160.896,0.7649999856948853,-0.007750371309442863
161.06896600000002,,0.00036644967916361085,161.362,0.7739999890327454,0.011318789458659636
161.534483,,0.0003803963607963013,161.826,0.777999997138977,0.019446668101478888
162.0,,0.00039357254204653837,162.285,0.7730000019073486,0.007936485714142408
162.465517,,0.00040589728987682914,162.75,0.7739999890327454,0.009486401825271381
162.931034,,0.0004172892001843712,163.216,0.7609999775886536,-0.019457897195698022
163.396552,,0.0004276666692616746,163.682,0.7879999876022339,0.03876948807114225
163.862069,,0.00043694817792998405,164.148,0.8690000176429749,0.2146899422403663
164.327586,,0.00044505258790092687,164.612,0.7630000114440918,-0.016732971529630325
164.793103,,0.000451899449860474,165.081,0.777999997138977,0.015537200653018026
165.258621,,0.00045740932270719553,165.542,0.7580000162124634,-0.02835825078744874
165.72413799999998,,0.0004615041033141182,166.011,0.7739999890327454,0.006274123133986989
166.189655,,0.00046410736612044435,166.475,0.7820000052452087,0.023581161565195012
166.655172,,0.00046514471179619275,166.938,0.7570000290870667,-0.030899562846576745
167.12069,,0.0004645441241596834,167.403,0.7910000085830688,0.04326795889799438
167.58620699999997,,0.0004622363344649483,167.87,0.7580000162124634,-0.028428411133157694
168.051724,,0.0004581551921138475,168.337,0.777999997138977,0.01544305898457844
168.517241,,0.0004522380407861549,168.802,0.7889999747276306,0.039797698615718816
168.98275900000002,,0.00044442609892040425,169.26,0.7609999775886536,-0.020735183072868122
169.44827600000002,,0.00043466484341912574,169.727,0.7739999890327454,0.008121775131576902
169.913793,,0.0004229043953945233,170.192,0.7570000290870667,-0.028331735896097953
170.37931,,0.0004090999067149126,170.66,0.7480000257492065,-0.04732512791016549
170.844828,,0.0003932119460586495,171.126,0.7850000262260437,0.03391212978421683
171.310345,,0.0003752068831311265,171.586,0.7620000243186951,-0.015574666438953841
171.775862,,0.000355057269651987,172.055,0.7770000100135803,0.01770367682880266
172.241379,,0.0003327422156742853,172.516,0.7730000019073486,0.009546402951895433
172.706897,,0.00030824775975517386,172.987,0.7609999775886536,-0.016098132172385964
173.172414,,0.0002815672314591593,173.445,0.7749999761581421,0.014829030683573444
173.637931,,0.00025270160464038846,173.915,0.7570000290870667,-0.024046505224099145
174.103448,,0.00022165983992008544,174.381,0.7749999761581421,0.01541276365766836
174.568966,,0.00018845921474932212,174.846,0.777999997138977,0.02208915096046296
175.034483,,0.0001531256394259809,175.312,0.7620000243186951,-0.012736236618950314
175.5,,0.00011569395741855056,175.771,0.7749999761581421,0.015510173121432894
175.96551699999998,,7.620822833888557e-05,176.237,0.7889999747276306,0.045829037994353665
176.43103399999998,,3.472199190135451e-05,176.704,0.7739999890327454,0.012866573352681668
176.896552,,8.701488793637322e-06,177.17,0.753000020980835,-0.0332607281355579
177.36206900000002,,5.3989006307976e-05,177.63,0.7730000019073486,0.00985382748193844
177.827586,,0.00010105721188956532,178.1,0.7910000085830688,0.04854269276941218
178.293103,,0.0001498124440934864,178.56,0.7590000033378601,-0.021753363447526212
178.758621,,0.00020015058459361192,179.03,0.7789999842643738,0.021204527037442016
179.224138,,0.00025195694274575745,179.493,0.7990000247955322,0.06414551283631438
179.68965500000002,,0.0003051061704290406,179.956,0.7739999890327454,0.009049482979329374
180.155172,,0.0003594622086457644,180.422,0.7590000033378601,-0.024239743206004347
180.62069,,0.000414878267292986,180.888,0.777999997138977,0.016582691537946528
181.086207,,0.00047119683944304264,181.354,0.7549999952316284,-0.034043469879682264
181.551724,,0.0005282497514132518,181.819,0.7599999904632568,-0.023597751170140555
182.01724099999998,,0.0005858582498637096,182.285,0.7760000228881836,0.010896397866428308
182.482759,,0.0006438331270772832,182.749,0.7739999890327454,0.006269602450547146
182.948276,,0.0007019748854064112,183.215,0.753000020980835,-0.039648431881866335
183.413793,,0.0007600739417062765,183.675,0.781000018119812,0.021295127936510134
183.87931,,0.0008179108725689006,184.141,0.7599999904632568,-0.024405034621337016
184.34482799999998,,0.000875256701268761,184.612,0.7480000257492065,-0.05038879292986983
184.81034499999998,,0.0009318732271607918,185.074,0.7590000033378601,-0.026160394481169212
185.27586200000002,,0.0009875133976649225,185.542,0.753000020980835,-0.03887300534207652
185.74137900000002,,0.0010419217225457597,186.004,0.777999997138977,0.016038486104897057
186.206897,,0.0010948347307970473,186.468,0.7509999871253967,-0.04226626111067799
186.672414,,0.0011459814714719534,186.93,0.7739999890327454,0.008419749319566957
187.137931,,0.001195084059048635,187.395,0.746999979019165,-0.049785490471025554
187.60344800000001,,0.0012418582608468398,187.86,0.7509999871253967,-0.04042998502441671
188.06896600000002,,0.0012860141227375448,188.326,0.7850000262260437,0.03428905955194356
188.534483,,0.0013272566343112003,188.793,0.7580000162124634,-0.02390381079747775
189.0,,0.0013652864408237825,189.259,0.781000018119812,0.026802956064694256
189.465517,,0.0013998006036200642,189.723,0.7760000228881836,0.016457144208096595
189.931034,,0.0014304933931826068,190.189,0.777999997138977,0.021295266499447598
190.39655199999999,,0.0014570570960868066,190.661,0.7609999775886536,-0.015342356506619277
190.862069,,0.001479182850512044,191.119,0.7609999775886536,-0.015037129920266932
191.327586,,0.0014965615570375068,191.587,0.7599999904632568,-0.017014557382090845
191.793103,,0.0015088848679806943,192.049,0.777999997138977,0.022292192147158916
192.25862099999998,,0.0015158461574530783,192.512,0.753000020980835,-0.03219606485567176
192.72413799999998,,0.0015171413826129954,192.982,0.7760000228881836,0.017777670610534736
193.189655,,0.001512469960627046,193.44,0.7739999890327454,0.013175859721053437
193.655172,,0.0015015359390581195,193.91,0.7770000100135803,0.01936536763273069
194.12069000000002,,0.0014840494190663687,194.376,0.4869999885559082,-0.6128870031102404
194.586207,,0.001459727621412648,194.837,0.7760000228881836,0.016208636244145348
195.051724,,0.0014282951851960072,195.303,0.753000020980835,-0.03450349104297048
195.517241,,0.0013894846191562654,195.767,0.7599999904632568,-0.019902447642197306
195.98275900000002,,0.001343038474685429,196.233,0.7860000133514404,0.03606677241381215
196.448276,,0.0012887125926455102,196.7,0.7879999876022339,0.039743636311579546
196.913793,,0.0012262766720554314,197.166,0.6290000081062317,-0.30732840147651086
197.37931,,0.001155510491111368,197.627,0.7739999890327454,0.007939431209011336
197.844828,,0.001076202154469036,198.09,0.7559999823570251,-0.03186035339243494
198.310345,,0.0009881568746616064,198.56,0.7739999890327454,0.006843808385395117
198.775862,,0.0008912099580901207,199.022,0.7599999904632568,-0.024080391510241172
199.241379,,0.0007852214421861667,199.486,0.7599999904632568,-0.02440214243130804
199.706897,,0.0006700473980724953,199.956,0.7770000100135803,0.012424651450848895
200.172414,,0.0005455302867785404,200.415,0.7400000095367432,-0.06827759545028939
200.63793099999998,,0.00041155242279744227,200.885,0.7720000147819519,0.001467614882827761
201.103448,,0.000268100515076733,201.351,0.7620000243186951,-0.020170089781376146
201.568966,,0.00011520918537751041,201.811,0.7749999761581421,0.008417520726693547
202.034483,,4.7214934848201345e-05,202.277,0.7580000162124634,-0.028245550671663802
202.5,,0.00021941563131732577,202.742,0.7860000133514404,0.03322799650278021
202.965517,,0.00040144167261363335,203.208,0.7739999890327454,0.007639268782848917
203.431034,,0.0005928236590034211,203.675,0.7749999761581421,0.0104399608588702
203.896552,,0.0007930252078565787,204.141,0.7440000176429749,-0.05642880805736226
204.36206900000002,,0.001002466155467261,204.601,0.7749999761581421,0.011804649360453652
204.827586,,0.0012224099840244626,205.071,0.7860000133514404,0.03647092044284631
205.293103,,0.0014527692166385728,205.534,0.7760000228881836,0.015370392008189916
205.758621,,0.0016905856191438166,205.996,0.7609999775886536,-0.016660200691487503
206.224138,,0.0019333300613569861,206.468,0.7630000114440918,-0.011711070262759882
206.689655,,0.0021846595943681483,206.93,0.777999997138977,0.021484634531053474
207.155172,,0.002452224390165059,207.395,0.765999972820282,-0.004234654800661961
207.62069,,0.0027340804909342952,207.86,0.7649999856948853,-0.006093635648965783
208.086207,,0.0030123612325194684,208.326,0.765999972820282,-0.003710618817922165
208.551724,,0.0032761683798201388,208.786,0.7730000019073486,0.01162273045942636
209.01724099999998,,0.0035528460702687445,209.251,0.7599999904632568,-0.01674143920096864
209.482759,,0.003885858792029184,209.716,0.753000020980835,-0.0321575579594305
209.948276,,0.004252839248578078,210.182,0.7760000228881836,0.01766655363749499
210.413793,,0.004545706739057222,210.645,0.7570000290870667,-0.02412288292560956
210.87930999999998,,0.004723323881411022,211.115,0.7730000019073486,0.010242000863961782
211.344828,,0.00497414173786528,211.575,0.7820000052452087,0.02927348410544066
211.810345,,0.005531987792253188,212.045,0.7519999742507935,-0.036727701140815305
212.27586200000002,,0.006194587698537066,212.505,0.7770000100135803,0.017050820187293467
212.741379,,0.0063185748281623325,212.974,0.8669999837875366,0.21241838959657425
213.206897,,0.005808252429185637,213.44,0.7770000100135803,0.015630112684284075
213.672414,,0.00592313177068966,213.903,0.7559999823570251,-0.030810977047655636
214.137931,,0.007891391962109064,214.369,0.7749999761581421,0.009933389108488198
214.60344800000001,,0.010036300684113727,214.834,0.777999997138977,0.015879130864934067
215.068966,,0.007802552980924232,215.299,0.7580000162124634,-0.0282061531346725
215.534483,,0.0013122113042915576,215.764,0.7570000290870667,-0.030804138394410915
216.0,,0.013616613880622117,216.23,0.7799999713897705,0.018991293084227902
216.465517,,0.022242623050196964,216.694,0.7870000004768372,0.03404529331142981
216.93103399999998,,0.023706705628834087,217.16,0.777999997138977,0.014364383614229249
217.39655199999999,,0.019489139678286988,217.623,0.7689999938011169,-0.005190872427332099
217.862069,,0.012453312616452779,218.085,0.7720000147819519,0.0015215581650016134
218.327586,,0.004655690194354165,218.553,0.7760000228881836,0.01053132807707705
218.793103,,0.0017961161792787624,219.016,0.7570000290870667,-0.030458044626017783
219.25862099999998,,0.0048193720524196465,219.486,0.7620000243186951,-0.01906274335905695
219.724138,,0.004697695011893515,219.948,0.7649999856948853,-0.011942913135237484
220.18965500000002,,0.005333733699002222,220.414,0.777999997138977,0.017028258598352386
220.65517200000002,,0.011787588300265103,220.878,0.7870000004768372,0.03733065290281679
221.12069,,0.025836604409948866,221.344,0.7730000019073486,0.007549199247864464
221.586207,,0.04374636146026847,221.809,0.753000020980835,-0.035301650742870956
222.051724,,0.058575315510307924,222.274,0.7599999904632568,-0.019349521032500542
222.517241,,0.06499669253410405,222.742,0.753000020980835,-0.03394045813168885
222.98275900000002,,0.062218183132993404,223.2,0.7559999823570251,-0.02680739681699491
223.448276,,0.05286564641176355,223.667,0.7480000257492065,-0.04372007968458502
223.913793,,0.03988700477425041,224.133,0.7850000262260437,0.03731021239152404
224.37931,,0.024640268207674135,224.597,0.7580000162124634,-0.021201390226904784
224.844828,,0.007091392237122089,225.066,0.7820000052452087,0.03128028948397896
225.31034499999998,,0.01280331432439389,225.527,0.7760000228881836,0.018278923974473827
225.775862,,0.03353066606596691,225.996,0.7580000162124634,-0.020992384601363816
226.241379,,0.051210772761245096,226.455,0.7580000162124634,-0.021173420031121677
226.706897,,0.060735129579348485,226.92,0.781000018119812,0.02863442392240674
227.172414,,0.059088146731749176,227.386,0.6660000085830688,-0.222323754317905
227.63793099999998,,0.04853804571195665,227.853,0.7760000228881836,0.01681240600520803
228.103448,,0.03602937467263248,228.319,0.7570000290870667,-0.02518175609101087
228.56896600000002,,0.028166421740912568,228.786,0.7739999890327454,0.011190739374903178
229.03448300000002,,0.026385017236473626,229.252,0.7620000243186951,-0.015661721404580987
229.5,,0.027336858210595286,229.716,0.7620000243186951,-0.01639326022821745
229.965517,,0.02750599029098958,230.175,0.7889999747276306,0.041698454674314746
230.431034,,0.026202494844551033,230.645,0.7599999904632568,-0.022191387382408174
230.896552,,0.02387985219844167,231.108,0.777999997138977,0.016359344035031594
231.362069,,0.019360464196774323,231.571,0.7630000114440918,-0.016921081942901546
231.827586,,0.010963995928766599,232.041,0.7760000228881836,0.010883301258352737
232.293103,,0.0005674919805093174,232.505,0.777999997138977,0.014821192524641142
232.758621,,0.005696798248999128,232.967,0.7239999771118164,-0.10313438351336854
233.224138,,0.0028989071773163145,233.433,0.7570000290870667,-0.03142833094876555
233.689655,,0.007290545031972446,233.895,0.777999997138977,0.014259250478810655
234.155172,,0.019286704499030697,234.361,0.7620000243186951,-0.020534352648645806
234.62069,,0.031882608615909885,234.826,0.7609999775886536,-0.022521717310563332
235.086207,,0.0502046057007971,235.292,0.7870000004768372,0.03443572024543204
235.55172399999998,,0.07649853927709767,235.76,0.7770000100135803,0.013074247095792538
236.01724099999998,,0.10092067234770638,236.226,0.7570000290870667,-0.02997433277463291
236.482759,,0.10548427584623575,236.69,0.7590000033378601,-0.025010187691450286
236.94827600000002,,0.0785766459601332,237.156,0.7739999890327454,0.008340485175165542
237.413793,,0.025285296399451502,237.619,0.7549999952316284,-0.03233898968450287
237.87931,,0.03560750956282429,238.081,0.906000018119812,0.29737642715182283
238.344828,,0.0836476876447674,238.549,0.8659999966621399,0.210976132084722
238.810345,,0.10744649122740385,239.011,0.7739999890327454,0.011269049025281933
239.27586200000002,,0.10746741342487479,239.475,0.7590000033378601,-0.020726256962747405
239.741379,,0.09119283960062347,239.945,0.753000020980835,-0.03318182016615173
240.206897,,0.06623867725626115,240.41,0.7549999952316284,-0.028296209374120567
240.672414,,0.03731328879615994,240.874,0.7620000243186951,-0.01262167367042792
241.137931,,0.008037533453989066,241.34,0.7760000228881836,0.018186108761788815
241.603448,,0.016445507689999434,241.804,0.777999997138977,0.022723799693302005
242.068966,,0.03004011763897076,242.27,1.0299999713897705,0.5717967878085018
242.534483,,0.029166315932748828,242.73,0.7739999890327454,0.013991693104905549
243.0,,0.015672848321224963,243.196,0.7749999761581421,0.015971751863673823
243.465517,,0.0037092815119849094,243.661,0.7490000128746033,-0.040999066145981373
243.93103399999998,,0.021383773897849026,244.127,0.7689999938011169,0.002129240264484383
244.39655199999999,,0.03354437608361179,244.59,0.7630000114440918,-0.011492527946419973
244.862069,,0.041622344900615095,245.06,0.777999997138977,0.020548999161202935
245.327586,,0.04895749336303643,245.523,0.765999972820282,-0.006301637747930353
245.793103,,0.05607300205881966,245.986,0.777999997138977,0.019088539926175544
246.258621,,0.060363907776849746,246.451,0.7990000247955322,0.06406357716254056
246.724138,,0.06089733840396458,246.915,0.7820000052452087,0.026251634481917425
247.18965500000002,,0.061039287044718164,247.38,0.7559999823570251,-0.03114295761795577
247.655172,,0.06272098776296592,247.845,0.753000020980835,-0.038381157466414115
248.12069,,0.05846085767654417,248.311,0.7739999890327454,0.006737340145898561
248.586207,,0.034953543715029345,248.778,0.8209999799728394,0.1085917864215988
249.051724,,0.010102716949462317,249.244,0.7760000228881836,0.010120344579162898
249.517241,,0.05708508967550644,249.71,0.7630000114440918,-0.018511728929854747
249.982759,,0.07765841133076547,250.176,0.7749999761581421,0.00745424688946467
250.44827600000002,,0.06155908319618461,250.638,0.7739999890327454,0.005236165508694683
250.913793,,0.02639616575040056,251.1,0.7580000162124634,-0.029521499500338538
251.37931000000003,,0.0007699062832051467,251.571,0.7559999823570251,-0.03364111885928463
251.844828,,0.007420844310489995,252.033,0.7820000052452087,0.023372134863947763
252.31034499999998,,0.00023773108404934095,252.497,0.7570000290870667,-0.030605386370039588
252.77586200000002,,0.01052069187408644,252.967,0.7749999761581421,0.009204570363106308
253.241379,,0.017175946089057044,253.425,0.7749999761581421,0.009887039292665673
253.706897,,0.019188009855295472,253.896,0.75,-0.04382940115327833
254.172414,,0.016761481196782474,254.361,0.7570000290870667,-0.027785468709289024
254.63793099999998,,0.010518429052546994,254.822,0.7580000162124634,-0.02479445815568259
255.10344800000001,,0.0024081471494314974,255.288,0.7789999842643738,0.02176409003207012
255.56896600000002,,0.004745610851687244,255.753,0.7940000295639038,0.05522159767679036
256.03448299999997,,0.008370212809664627,256.219,0.7760000228881836,0.016730627151906523
256.5,,0.006801470450551673,256.686,0.7739999890327454,0.01302183862289723
256.965517,,0.00018896930204921484,257.152,0.7570000290870667,-0.02346397358055951
257.431034,,0.008649066280503624,257.612,0.7749999761581421,0.01618728180557834
257.896552,,0.015403323423884884,258.082,0.7870000004768372,0.042637750043700094
258.362069,,0.017304439679831706,258.545,0.7519999742507935,-0.033447609216144314
258.827586,,0.014828743256193872,259.008,0.777999997138977,0.023218913139828296
259.29310300000003,,0.01032607334684889,259.475,0.8069999814033508,0.08627479201987188
259.758621,,0.005519527370286652,259.937,0.7760000228881836,0.018469301302462514
260.224138,,0.0005001264042185076,260.403,0.43299999833106995,-0.7292170766591081
260.689655,,0.005365678648074849,260.868,0.753000020980835,-0.03259650190632582
261.155172,,0.011928273855168281,261.334,0.7739999890327454,0.012492877222050745
261.62068999999997,,0.01765466785013116,261.801,0.7620000243186951,-0.014400889657246126
262.086207,,0.02051696631876248,262.267,0.7760000228881836,0.015285855624648757
262.551724,,0.019441606613044216,262.727,0.7910000085830688,0.04711295857231347
263.017241,,0.014853805730120278,263.193,0.7739999890327454,0.009212203375896632
263.482759,,0.008049128599914456,263.66,0.7839999794960022,0.030150826901498933
263.94827599999996,,0.00033088628586998384,264.126,0.7620000243186951,-0.018585126418218516
264.413793,,0.007324048688221551,264.587,0.9629999995231628,0.4185880777275692
264.87931,,0.014080237569300571,265.057,0.7739999890327454,0.006185277999597339
265.34482799999995,,0.0190896389991237,265.519,0.7519999742507935,-0.04226977250299472
265.810345,,0.0220479211181062,265.982,0.7950000166893005,0.05101358368387518
266.27586199999996,,0.02417518758968784,266.447,0.7820000052452087,0.02243190721074096
266.741379,,0.027781076357284242,266.91,0.7519999742507935,-0.043039561571953586
267.206897,,0.033447895181020725,267.376,0.7760000228881836,0.009286104265183143
267.672414,,0.037777332974804484,267.844,0.777999997138977,0.01383051423474429
268.137931,,0.03587806325783248,268.31,0.7580000162124634,-0.029411614754022743
268.603448,,0.027131019525367388,268.777,0.7730000019073486,0.003731990272076539
269.06896600000005,,0.017028414245721237,269.235,0.7739999890327454,0.006493557100237381
269.53448299999997,,0.011676183561955997,269.701,0.7559999823570251,-0.03203809115377236
270.0,,0.011141145738953317,270.166,0.7749999761581421,0.010120039215143158
270.465517,,0.00970192983113571,270.634,0.7739999890327454,0.008761818639359906
270.931034,,0.002354699973577121,271.097,0.7490000128746033,-0.044852797682779486
271.396552,,0.01008657568113952,271.56,0.7760000228881836,0.014826773840763838
271.86206899999996,,0.021706687054235185,272.03,0.7609999775886536,-0.017018721341715125
272.327586,,0.025674899535140586,272.49,0.7559999823570251,-0.0271251819995021
272.793103,,0.018376794124393588,272.96,0.777999997138977,0.021520005744602614
273.258621,,0.0021599631110231455,273.425,0.7760000228881836,0.01778435410914763
273.724138,,0.01481582404989985,273.889,0.7760000228881836,0.01829377995706321
274.18965499999996,,0.023285342321830976,274.355,0.7820000052452087,0.03174717615729755
274.655172,,0.01985787776526868,274.819,0.7760000228881836,0.018917194507947065
275.12069,,0.010119938328881728,275.285,0.7620000243186951,-0.01148967181527211
275.586207,,0.004174080626799134,275.75,0.6970000267028809,-0.15316023407339482
276.051724,,0.007978773231105882,276.215,0.7739999890327454,0.014385133048025219
276.517241,,0.018184070338211702,276.675,0.7620000243186951,-0.01211342532755845
276.98275900000004,,0.02529978124043026,277.141,0.7820000052452087,0.030972661153016036
277.448276,,0.02217986266867541,277.609,0.7739999890327454,0.01293993686324298
277.913793,,0.00940717551401829,278.071,0.7549999952316284,-0.02915620969589123
278.37931,,0.007371586398546546,278.541,0.7730000019073486,0.00928043624362582
278.844828,,0.023906391181735404,279.004,0.7609999775886536,-0.017695579121967463
279.31034500000004,,0.03966367065610187,279.468,0.7490000128746033,-0.0446992425495727
279.77586199999996,,0.05442173660339174,279.93,0.7620000243186951,-0.017238376166703148
280.241379,,0.06469389004414539,280.395,0.777999997138977,0.016783911640130288
280.706897,,0.06460188396175996,280.86,0.7820000052452087,0.024714837287432338
281.172414,,0.050304477531184846,281.325,0.7760000228881836,0.010936235605333472
281.637931,,0.024050118723059382,281.79,0.753000020980835,-0.03978121658463102
282.10344799999996,,0.005705209789255669,282.256,0.7689999938011169,-0.005415017010688871
282.568966,,0.02896087121395639,282.723,0.7549999952316284,-0.036276685246665684
283.034483,,0.04006054455075497,283.188,0.7580000162124634,-0.029958682435312616
283.5,,0.03960193923959419,283.66,0.7739999890327454,0.004831228971080829
283.965517,,0.031606655706498316,284.119,0.7699999809265137,-0.003799420957394656
284.431034,,0.020097569087948373,284.582,0.8980000019073486,0.27530412925412606
284.89655200000004,,0.007888880030075754,285.045,0.7739999890327454,0.0055355488043555
285.362069,,0.0037338881450836936,285.515,0.7760000228881836,0.010410236724085534
285.827586,,0.015625534449691968,285.978,0.7570000290870667,-0.0303521937793509
286.293103,,0.02995160999878404,286.443,0.7799999713897705,0.02048310073002495
286.758621,,0.0469578364354679,286.906,0.7739999890327454,0.008210070928266429
287.22413800000004,,0.06251079948684356,287.372,0.7950000166893005,0.05480865008691877
287.689655,,0.07019010547817064,287.838,0.7870000004768372,0.038248514468262954
288.155172,,0.06660057175851732,288.304,0.7599999904632568,-0.019711220319088115
288.62069,,0.05427847892573382,288.771,0.7620000243186951,-0.014523340126087206
289.086207,,0.03914806585638203,289.237,0.8069999814033508,0.08428754785240532
289.55172400000004,,0.025698527161894257,289.702,0.7739999890327454,0.013082266341674928
290.01724099999996,,0.01473605863366684,290.16,0.777999997138977,0.022383579591574537
290.482759,,0.004461542651809707,290.63,0.7609999775886536,-0.014189273086593986
290.948276,,0.007385957610716457,291.093,0.7770000100135803,0.020996246085971566
291.413793,,0.021336194313738913,291.556,0.800000011920929,0.07128564340362009
291.87931,,0.03435541296791028,292.026,0.7559999823570251,-0.02454637143374997
292.344828,,0.04076915061514845,292.49,0.777999997138977,0.02325904728438465
292.81034500000004,,0.037176157347522096,292.952,0.746999979019165,-0.044554183179274856
293.275862,,0.02678298224419519,293.417,0.7820000052452087,0.03128189587983937
293.74137900000005,,0.01705620137352119,293.881,0.7480000257492065,-0.04333731674259222
294.206897,,0.01256472126421775,294.347,0.7749999761581421,0.014829412275433594
294.672414,,0.012073995046949122,294.811,0.7990000247955322,0.06637029832506233
295.13793100000004,,0.01349172186083081,295.277,0.7739999890327454,0.011091391054571674
295.603448,,0.01897788689138955,295.741,0.777999997138977,0.01895259325670461
296.068966,,0.03235361234747984,296.207,0.7590000033378601,-0.023309987985694537
296.534483,,0.052436097594565516,296.671,0.7820000052452087,0.025942731944818442
297.0,,0.07199597247281052,297.137,0.8510000109672546,0.17545387608484558
297.46551700000003,,0.08400470267955322,297.6,0.7549999952316284,-0.03444498738628491
297.931034,,0.08673796081240792,298.07,0.7760000228881836,0.010646684370246105
298.396552,,0.08158002387524091,298.534,0.777999997138977,0.014451847660323843
298.862069,,0.06823469914596152,298.996,0.777999997138977,0.014025253397739672
299.327586,,0.045303704232673096,299.464,0.7749999761581421,0.0072012936590951995
299.79310300000003,,0.01529486863594658,299.926,0.7599999904632568,-0.025619299919979684
300.258621,,0.014067480450362569,300.392,0.7770000100135803,0.01142795370260833
300.724138,,0.035055556152511325,300.86,0.7720000147819519,0.0006958145693286103
301.189655,,0.04517420031097353,301.325,0.7739999890327454,0.005360167619997736
301.65517200000005,,0.04633376311938036,301.789,0.7689999938011169,-0.00508966034799584
302.12069,,0.0405199677835207,302.255,0.7519999742507935,-0.04156132774686284
302.586207,,0.028536702548998222,302.719,0.7749999761581421,0.009217138024670654
303.05172400000004,,0.01295719450321279,303.185,0.7739999890327454,0.007791897985620348
303.517241,,1.4422295409365201e-05,303.645,0.5210000276565552,-0.5425967387066741
303.982759,,0.003800273574143356,304.115,0.777999997138977,0.01815211238638898
304.448276,,0.00316564142587149,304.578,0.7590000033378601,-0.022400614784766126
304.913793,,0.016331580573958067,305.041,0.7739999890327454,0.011105033872729911
305.37931000000003,,0.029580064006833957,305.512,0.7770000100135803,0.01842649586281543
305.844828,,0.03998879625421397,305.974,0.6069999933242798,-0.3512255612133944
306.310345,,0.04807285860269447,306.44,0.7620000243186951,-0.012908786044395765
306.775862,,0.05505411040404331,306.902,0.7829999923706055,0.033360792796876745
307.241379,,0.060951337197406634,307.368,0.781000018119812,0.029401701601831448
307.70689699999997,,0.06423364584300273,307.83,0.7549999952316284,-0.02697695767761902
308.172414,,0.06231589024623005,308.296,0.7789999842643738,0.025436531682329868
308.637931,,0.05332395306333488,308.761,0.7720000147819519,0.010168243920203041
309.103448,,0.03844839655708463,309.226,0.7480000257492065,-0.04228049913072428
309.568966,,0.022014541604339063,309.693,0.7739999890327454,0.014064128395653713
310.034483,,0.008486818310011541,310.158,0.7580000162124634,-0.02122402265472325
310.5,,0.00021592744197147036,310.627,0.7580000162124634,-0.021770597942923124
310.96551700000003,,0.004441072651810815,311.089,0.7789999842643738,0.02333424899362237
311.431034,,0.005353356674679405,311.556,0.7559999823570251,-0.0275016711452995
311.896552,,0.004700475728760534,312.018,0.7749999761581421,0.013107205552599263
312.362069,,0.004648326225840901,312.486,0.7749999761581421,0.01228723562197817
312.827586,,0.006126886117356973,312.948,0.6439999938011169,-0.27394768817000803
313.29310300000003,,0.007622383301053663,313.414,0.7699999809265137,-0.0002592316754087781
313.758621,,0.006765143941303375,313.878,0.7549999952316284,-0.03372281825327382
314.224138,,0.0031278162768134414,314.344,0.7760000228881836,0.011308417235981751
314.689655,,0.0010712888261362869,314.809,0.7749999761581421,0.008494983834565269
315.155172,,0.0028393451087087617,315.274,0.7490000128746033,-0.048679602275769826
315.62068999999997,,0.0007574110308265624,315.742,0.7870000004768372,0.03369992725574733
316.086207,,0.0038717533343652455,316.2,0.7639999985694885,-0.01668455901664583
316.551724,,0.007604325771170123,316.668,0.753000020980835,-0.04078367099980523
317.017241,,0.007172102267623398,317.134,0.7739999890327454,0.004978977740354969
317.482759,,0.0022805022677189384,317.597,0.7760000228881836,0.009492781302378855
317.94827599999996,,0.0038482325118192225,318.067,0.781000018119812,0.020683565225385975
318.413793,,0.007398301043730524,318.527,0.7620000243186951,-0.02028131731805111
318.87931000000003,,0.007403060613576885,318.997,0.7770000100135803,0.012946270521439785
319.344828,,0.005746705749846165,319.456,0.902999997138977,0.2881082077375778
319.810345,,0.004053036309037861,319.921,0.7620000243186951,-0.018342445154230648
320.275862,,0.0013117020266822151,320.387,0.777999997138977,0.017316031557674527
320.741379,,0.0055328983273396585,320.853,0.753000020980835,-0.03631584222696525
321.20689699999997,,0.018877406292418016,321.318,0.777999997138977,0.018992960096727848
321.672414,,0.037602596858587266,321.783,0.7910000085830688,0.048141194585020614
322.137931,,0.05661352687034661,322.249,0.7820000052452087,0.029317703694555084
322.603448,,0.07060831781111286,322.715,0.777999997138977,0.021321801758639288
323.068966,,0.07929965612053425,323.181,0.7760000228881836,0.01759521989845921
323.53448299999997,,0.08755220910714283,323.641,0.777999997138977,0.022475623219347853
324.0,,0.09875483873013932,324.111,0.7609999775886536,-0.014162095646033065
324.465517,,0.10902829937069666,324.571,0.7820000052452087,0.03185275496251885
324.931034,,0.10999083409654999,325.04,0.7630000114440918,-0.009422495747926639
325.396552,,0.0968784173963665,325.501,0.7490000128746033,-0.03995272393897467
325.86206899999996,,0.07212287703462972,325.971,0.550000011920929,-0.47368483236394293
326.327586,,0.041668963486566166,326.43,0.7570000290870667,-0.023035036481877522
326.793103,,0.010799760051675275,326.9,0.7760000228881836,0.017894024980222027
327.258621,,0.01597205976624231,327.366,0.7559999823570251,-0.026259745221648
327.724138,,0.0344271381544633,327.83,0.7609999775886536,-0.016044425587065717
328.189655,,0.04293742025904381,328.296,0.7760000228881836,0.015881834860821797
328.655172,,0.04441511873365114,328.76,0.7820000052452087,0.02814894912289717
329.12068999999997,,0.04407484116704379,329.225,0.7730000019073486,0.007710728310940375
329.586207,,0.04504021970799986,329.69,0.7789999842643738,0.019952341576961345
330.051724,,0.046539546375203106,330.156,0.7570000290870667,-0.028782583335191018
330.517241,,0.04589748015825811,330.619,0.7749999761581421,0.00967820257580786
330.982759,,0.04166067383344593,331.081,0.7490000128746033,-0.047648480391653626
331.44827599999996,,0.034961415107638324,331.545,0.7760000228881836,0.01058678359157411
331.913793,,0.02831382750955179,332.015,0.777999997138977,0.014467742190842302
332.37931,,0.023305638374512556,332.476,0.7620000243186951,-0.020740288677132318
332.844828,,0.01965114186135502,332.946,0.7390000224113464,-0.07106303166546965
333.310345,,0.01671443288555899,333.411,0.796999990940094,0.05522663504007403
333.77586199999996,,0.01577148515335412,333.871,0.7990000247955322,0.05965740417317873
334.241379,,0.020104768964970415,334.336,0.75,-0.04688039206440571
334.706897,,0.03229475367157187,334.801,0.7590000033378601,-0.02692275947678377
335.17241399999995,,0.051189515800830934,335.266,0.7860000133514404,0.032372763888768294
335.637931,,0.0712708724436067,335.735,0.777999997138977,0.015523544945792767
336.103448,,0.08490440896898685,336.201,0.753000020980835,-0.03827333000595849
336.56896600000005,,0.08622111581102825,336.66,0.7820000052452087,0.025644334779971793
337.034483,,0.07460359187388818,337.126,0.7450000047683716,-0.054184510409405556
337.5,,0.05523182722661923,337.597,0.777999997138977,0.018511704927584114
337.965517,,0.03560977560331398,338.059,0.765999972820282,-0.006836327696314742
338.431034,,0.020880960259429565,338.527,0.7570000290870667,-0.025677907891461228
338.89655200000004,,0.012171345594930293,338.989,0.777999997138977,0.020786314828364415
339.36206899999996,,0.00807245461830686,339.455,0.777999997138977,0.021424233597818955
339.827586,,0.005668980781655426,339.92,0.7480000257492065,-0.043391639028916525
340.293103,,0.0004626260719531516,340.386,0.7730000019073486,0.011506591085566878
340.758621,,0.011341098082754427,340.846,0.6890000104904175,-0.17119347587706293
341.224138,,0.028237172129678096,341.311,0.7620000243186951,-0.011981419644644633
341.68965499999996,,0.042770135456001966,341.778,0.7490000128746033,-0.04027272854186267
342.155172,,0.047840890871862995,342.244,0.7620000243186951,-0.012057629401890035
342.62069,,0.04322117203262825,342.708,0.7490000128746033,-0.04062182941839538
343.086207,,0.03446925505501741,343.174,0.7829999923706055,0.03308480427533324
343.551724,,0.026316523814137755,343.642,0.7820000052452087,0.030426307658914107
344.01724099999996,,0.018953077007196773,344.104,0.7749999761581421,0.014599379589185264
344.48275900000004,,0.010510470453845006,344.567,0.7760000228881836,0.016123537003356787
344.948276,,0.0011259969282414908,345.03,0.7570000290870667,-0.025983376633066508
345.413793,,0.0065546323556842515,345.501,0.753000020980835,-0.03544695847820231
345.87931,,0.010098907348502351,345.963,0.8529999852180481,0.18165730050334747
346.344828,,0.009290420981950216,346.429,0.7749999761581421,0.01097622371680874
346.81034500000004,,0.0054837707776707245,346.892,0.7770000100135803,0.014623262510004655
347.275862,,0.000394068998374513,347.358,0.7820000052452087,0.024862569108401116
347.741379,,0.0037454787655950435,347.823,0.7739999890327454,0.006855607471023085
348.206897,,0.005010915171423548,348.288,0.75,-0.04591690815623423
348.672414,,0.005831094136506825,348.752,0.753000020980835,-0.03975981615792356
349.13793100000004,,0.014637600214809362,349.218,0.7919999957084656,0.044945946939724146
349.60344799999996,,0.03737028482393947,349.686,0.7599999904632568,-0.02490673529302408
350.068966,,0.06498438610581127,350.151,0.7760000228881836,0.009944646681853388
350.534483,,0.07497620185805176,350.612,0.8389999866485596,0.14732178250930109
351.0,,0.051338958799354815,351.081,0.7329999804496765,-0.08336729269117334
351.465517,,0.0023349068743045427,351.542,0.7770000100135803,0.012856082139881162
351.93103399999995,,0.044969736627355934,352.011,0.7580000162124634,-0.028073176575161826
352.396552,,0.06752998243662428,352.472,0.7570000290870667,-0.0296993405054915
352.862069,,0.061577016587125694,352.942,0.7770000100135803,0.014495853208019657
353.32758600000005,,0.03702132652744668,353.4,0.7760000228881836,0.01299039804646345
353.793103,,0.0025643541864793533,353.867,0.777999997138977,0.018051076560654127
354.258621,,0.03964607773890027,354.332,0.7749999761581421,0.01222697153392242
354.72413800000004,,0.08669279638337817,354.797,0.7739999890327454,0.010746656219569148
355.189655,,0.1280450229667293,355.263,0.7620000243186951,-0.014734035350324515
355.655172,,0.14977667046981388,355.73,0.7599999904632568,-0.018484324917892463
356.12069,,0.14528326244186382,356.196,0.7910000085830688,0.049586984342677276
356.586207,,0.12026190164739879,356.66,0.7860000133514404,0.03913810505221314
357.05172400000004,,0.08717284703158672,357.126,0.7739999890327454,0.013336940385359194
357.517241,,0.055774907257659385,357.589,0.777999997138977,0.022282219523061544
357.982759,,0.028580343823221395,358.052,0.7749999761581421,0.015858372577515597
358.448276,,0.003433277085707757,358.516,0.781000018119812,0.02892136948715868
358.913793,,0.021035569899142785,358.986,0.7609999775886536,-0.014780992963968188
359.37931000000003,,0.042397657764238504,359.451,0.7549999952316284,-0.028098450454164335
359.844828,,0.0562366156326773,359.915,0.777999997138977,0.021656709929070313
360.310345,,0.06086447372975674,360.381,0.7760000228881836,0.016849828455480446
360.775862,,0.06008782712263527,360.846,0.7080000042915344,-0.1318302920222509
361.241379,,0.060656431072426735,361.312,0.800000011920929,0.06800732613583609
361.706897,,0.06632180962267087,361.771,0.7490000128746033,-0.04374795852131902
362.172414,,0.07414188402225923,362.237,0.7620000243186951,-0.0160954121276937
362.63793100000004,,0.07691610905322854,362.705,0.746999979019165,-0.049450736275160286
363.103448,,0.07001479703783116,363.171,0.7739999890327454,0.008712931993675453
363.568966,,0.05622589313878151,363.634,0.7609999775886536,-0.020232938831823425
364.034483,,0.0434942265653324,364.096,0.7870000004768372,0.035844698163223845
364.5,,0.03776665878523613,364.564,0.777999997138977,0.01574348532084302
364.96551700000003,,0.038691945995281626,365.026,0.7820000052452087,0.024053717965200276
365.431034,,0.04203585322221467,365.497,0.781000018119812,0.02157159314924533
365.896552,,0.044306478174076847,365.959,0.7559999823570251,-0.03308907457008553
366.362069,,0.044003445400901293,366.425,0.7850000262260437,0.030011458694386664
366.827586,,0.04041118584534052,366.889,0.7599999904632568,-0.02441946246233717
367.29310300000003,,0.033686442318914774,367.355,0.7839999794960022,0.02801736777672211
367.758621,,0.025638331723343066,367.819,0.7749999761581421,0.008667460140703765
368.224138,,0.018293848054466873,368.285,0.7609999775886536,-0.021475984443237145
368.689655,,0.011557675788646304,368.749,0.7509999871253967,-0.04281785356620343
369.155172,,0.003935731886829556,369.215,0.5669999718666077,-0.4431763037000626
369.62068999999997,,0.004177101653522112,369.675,0.7760000228881836,0.012723497084153448
370.086207,,0.009656830772295498,370.141,0.7599999904632568,-0.021537440745039885
370.55172400000004,,0.010111806175272369,370.608,0.7599999904632568,-0.020919467586283217
371.017241,,0.00715090111655571,371.07,0.7459999918937683,-0.05080156476638493
371.482759,,0.004876540504550577,371.541,0.777999997138977,0.019516525859420097
371.948276,,0.005294159662593735,372.004,0.7570000290870667,-0.025668989828926923
372.413793,,0.006351390799377753,372.467,0.777999997138977,0.020596640502307716
372.87931000000003,,0.005112318084380847,372.93,0.7379999756813049,-0.06610290946104208
373.344828,,0.0022484410866469248,373.395,0.7620000243186951,-0.013450126344714024
373.810345,,0.00202718875193212,373.86,0.7990000247955322,0.06743390958058995
374.275862,,0.007184783079580329,374.326,0.7739999890327454,0.013144162015746343
374.741379,,0.014926152270096154,374.793,0.7820000052452087,0.0306476298100086
375.20689699999997,,0.01955656146501965,375.259,0.6819999814033508,-0.1872491545677043
375.672414,,0.018707506865059644,375.723,0.7739999890327454,0.013048422928100885
376.137931,,0.015393463948176915,376.188,0.7609999775886536,-0.015512403654334974
376.603448,,0.014026175648658771,376.66,0.7319999933242798,-0.07902317288940994
377.068966,,0.01605322353245308,377.118,0.7580000162124634,-0.022790039840393756
377.53448299999997,,0.019701804228712233,377.586,0.8859999775886536,0.2555992594107499
378.0,,0.02218959347057313,378.048,0.7680000066757202,-0.0020069213961655496
378.465517,,0.021294976391784223,378.512,0.7739999890327454,0.010505644674471275
378.931034,,0.01632880847688469,378.981,0.7480000257492065,-0.04671757329131925
379.396552,,0.009385129310815882,379.44,0.7570000290870667,-0.02769050032377557
379.862069,,0.005249025079597138,379.91,0.777999997138977,0.017495608873211253
380.327586,,0.008298541550384673,380.375,0.753000020980835,-0.03750333386010549
380.79310300000003,,0.018723519779858897,380.837,0.7580000162124634,-0.02709482125091972
381.258621,,0.032165378038840495,381.303,0.7739999890327454,0.007341112092649621
381.724138,,0.04298085876030306,381.767,0.7739999890327454,0.006994055667079433
382.189655,,0.04742829213955014,382.233,0.777999997138977,0.015447298671632326
382.655172,,0.04447079434637084,382.697,0.7680000066757202,-0.006507579559639525
383.12068999999997,,0.035243761511955456,383.163,0.7260000109672546,-0.09808289973948178
383.586207,,0.022542455570000387,383.63,0.7620000243186951,-0.019626739203358636
384.051724,,0.010034996754803724,384.093,0.796999990940094,0.05674739314275237
384.517241,,0.000658967241264696,384.556,0.7590000033378601,-0.025825971212348788
384.982759,,0.004940762836474119,385.026,0.7789999842643738,0.018048647165561277
385.44827599999996,,0.008189541718192212,385.486,0.7739999890327454,0.007533848319800515
385.913793,,0.010310718512223574,385.957,0.7590000033378601,-0.02470259143836377
386.37931,,0.01061086289077674,386.415,0.7609999775886536,-0.01985158833280997
386.84482799999995,,0.008115885973216524,386.885,0.7580000162124634,-0.02585860392151699
387.310345,,0.005055058806246494,387.351,0.777999997138977,0.018262485503966263
387.775862,,0.007065058786469166,387.815,0.8320000171661377,0.13646216963008395
388.241379,,0.018184161699634153,388.281,0.777999997138977,0.019356827969132587
388.70689699999997,,0.035785804735358966,388.746,0.628000020980835,-0.30692966574656777
389.172414,,0.051892383160728035,389.205,0.7540000081062317,-0.0319594563417364
389.637931,,0.06006097574999452,389.671,0.7730000019073486,0.009833689346859947
390.103448,,0.06020215441274188,390.137,0.7570000290870667,-0.02469609585348225
390.56896600000005,,0.05619680923469389,390.605,0.753000020980835,-0.033162008038953764
391.03448299999997,,0.04987525971729592,391.067,0.777999997138977,0.021466269993207793
391.5,,0.03867162874941203,391.53,0.7580000162124634,-0.022034830710139338
391.965517,,0.0189772920948737,392.0,0.7739999890327454,0.01280367918355332
392.431034,,0.009144497100824697,392.468,0.7730000019073486,0.01051509291553863
392.896552,,0.04030465748724089,392.93,0.7739999890327454,0.012497850686265842
393.36206899999996,,0.06603062748396302,393.395,0.7620000243186951,-0.013921360070475255
393.827586,,0.0792793322019625,393.86,0.7760000228881836,0.016233199980383594
394.293103,,0.07831220632261666,394.326,0.7950000166893005,0.057221424066849706
394.75862099999995,,0.0670244599611965,394.787,0.7829999923706055,0.030625118207685
395.224138,,0.05159545644118149,395.252,0.7820000052452087,0.027961250067508575
395.68965499999996,,0.03657375808998413,395.72,0.777999997138977,0.01874278126353392
396.155172,,0.023386177733664647,396.185,0.7620000243186951,-0.01662355201756101
396.62069,,0.011573762487395618,396.649,0.7590000033378601,-0.02365750756394507
397.086207,,0.0009768949857399544,397.112,0.7609999775886536,-0.019774032267676885
397.551724,,0.007388688659810762,397.575,0.7789999842643738,0.019006182114178642
398.017241,,0.012673948275218321,398.045,0.7390000224113464,-0.06852442767319762
398.48275900000004,,0.0158666520610273,398.508,0.7580000162124634,-0.02745391517661611
398.94827599999996,,0.01900316055728135,398.971,0.781000018119812,0.022401642251378605
399.413793,,0.02240692195324302,399.437,0.7229999899864197,-0.10413587449139734
399.87931,,0.023766187833014943,399.906,0.777999997138977,0.015595633168265816
400.344828,,0.021006361950941604,400.365,0.7739999890327454,0.006871607528167277
400.810345,,0.015829687645540158,400.831,0.7549999952316284,-0.03444696711922388
401.27586199999996,,0.013248083715145726,401.296,0.7820000052452087,0.02453453388270531
401.741379,,0.01687306776558397,401.764,0.8510000109672546,0.17509836052600183
402.206897,,0.02503951546869128,402.229,0.777999997138977,0.01636730645054178
402.672414,,0.03230106051554815,402.694,0.7760000228881836,0.012382659735064088
403.137931,,0.034576231822831954,403.16,0.7559999823570251,-0.030768892972597214
403.60344799999996,,0.03201190709270282,403.623,0.7730000019073486,0.0067253017044825196
404.068966,,0.027016656281504597,404.085,0.7609999775886536,-0.01893960987910049
404.534483,,0.021151910498098114,404.553,0.796999990940094,0.059978730820041896
405.0,,0.015010043342160497,405.015,0.7620000243186951,-0.015792999003573716
405.465517,,0.009826257897363931,405.483,0.7580000162124634,-0.024047649143656494
405.931034,,0.006730381721486203,405.945,0.7829999923706055,0.030843697813125983
406.39655200000004,,0.003617999999102226,406.411,0.7509999871253967,-0.03849482068193352
406.862069,,0.00514899097817985,406.878,0.7789999842643738,0.022827634568652926
407.327586,,0.022904843978357552,407.344,0.7599999904632568,-0.018313371819138776
407.793103,,0.04408292357082758,407.811,0.75,-0.039920886837545085
408.258621,,0.056595659163811644,408.276,0.7609999775886536,-0.01585646689456258
408.72413800000004,,0.05370681272398632,408.741,0.7739999890327454,0.01248383880918004
409.18965499999996,,0.04192482233775367,409.2,0.7689999938011169,0.0015276762718663519
409.655172,,0.03334818680488482,409.671,0.7739999890327454,0.01227987416944937
410.12069,,0.03088934707375292,410.137,0.75,-0.04022239888765231
410.586207,,0.02623971117900161,410.597,0.7699999809265137,0.003068652664704596
411.05172400000004,,0.014007047600160513,411.06,0.7620000243186951,-0.014700490734033319
411.51724099999996,,0.0023584609189260643,411.53,0.7599999904632568,-0.01944549020467905
411.982759,,0.004799773910446865,411.993,0.777999997138977,0.01934697286827194
412.448276,,0.024114105894469013,412.464,0.8510000109672546,0.17794436412669773
412.913793,,0.049403838256815207,412.926,0.7730000019073486,0.007559747997741747
413.37931,,0.06737292093458203,413.385,0.7789999842643738,0.02018751562702841
413.844828,,0.07075786588795525,413.85,0.7860000133514404,0.035011681229359
414.31034500000004,,0.05595226113745226,414.315,0.7599999904632568,-0.022029924471963218
414.775862,,0.020395308759005554,414.782,0.6809999942779541,-0.19450118505582353
415.241379,,0.03163556934026208,415.248,0.7620000243186951,-0.018341657075123117
415.706897,,0.08360347801184197,415.712,0.777999997138977,0.016262994401443846
416.172414,,0.11427074426751956,416.178,0.777999997138977,0.016075937675713376
416.63793100000004,,0.11395282937827825,416.646,0.7770000100135803,0.013782216875171045
417.103448,,0.0920129435513437,417.108,0.7570000290870667,-0.029831381176338084
417.568966,,0.06741495207534694,417.571,0.753000020980835,-0.038512350477620104
418.034483,,0.05294516181185202,418.041,0.753000020980835,-0.038406388902232205
418.5,,0.048379414851798926,418.504,0.7839999794960022,0.02930690017366544
418.96551700000003,,0.04595662039270206,418.966,0.7580000162124634,-0.027098192764296727
419.43103399999995,,0.03965216019465155,419.432,0.777999997138977,0.01677153596242756
419.896552,,0.029288604046201455,419.895,0.7609999775886536,-0.01992071503725213
420.362069,,0.01801363364963067,420.361,0.8450000286102295,0.1634697821401884
420.827586,,0.007893007486111332,420.826,0.7739999890327454,0.009198517565227552
421.293103,,0.0016784381358822323,421.292,0.7580000162124634,-0.025231520674524124
421.758621,,0.012083063269049846,421.757,0.7549999952316284,-0.031338560582564956
422.22413800000004,,0.02255514554822902,422.223,0.7739999890327454,0.010472669099698021
422.689655,,0.029307618352216097,422.69,0.7739999890327454,0.01086598647036028
423.15517200000005,,0.028230349629911836,423.156,0.7839999794960022,0.033011300423160105
423.62069,,0.018953531975293012,423.616,0.777999997138977,0.020253715242001306
424.086207,,0.005752642162459305,424.086,0.7590000033378601,-0.02088030342617634
424.55172400000004,,0.005909058710896281,424.549,0.7720000147819519,0.007640542707451085
425.017241,,0.013317417968954016,425.011,0.7570000290870667,-0.024908357467099324
425.482759,,0.017225386774106625,425.475,0.7889999747276306,0.044868343280210644
425.948276,,0.01968844866771916,425.945,0.597000002861023,-0.37344699864541914
426.413793,,0.021411220522929687,426.411,0.777999997138977,0.020796702891137192
426.87931000000003,,0.020620380558724463,426.875,0.7739999890327454,0.011919717824297125
427.344828,,0.014541388480920748,427.341,0.7590000033378601,-0.02098446802417194
427.810345,,0.0025517876259826605,427.801,0.7860000133514404,0.03755965652995568
428.275862,,0.012026368457926703,428.267,0.8429999947547913,0.16141887087712226
428.741379,,0.023783869767157753,428.734,0.7570000290870667,-0.026301951797127125
429.20689699999997,,0.029673115316720174,429.2,0.7820000052452087,0.027782947280824106
429.672414,,0.03215186149763188,429.66,0.765999972820282,-0.007470642598421312
430.137931,,0.03707670408863871,430.127,0.7749999761581421,0.011739882636793647
430.603448,,0.04662200471228132,430.597,0.777999997138977,0.01788801368780154
431.068966,,0.0541537858843762,431.059,0.6330000162124634,-0.29838574182896194
431.534483,,0.048629768210762245,431.52,0.7770000100135803,0.01499621281366191
432.0,,0.025866782539406715,431.99,0.5379999876022339,-0.5060102900692272
432.46551700000003,,0.005763446916378529,432.456,0.777999997138977,0.016597754545896296
432.931034,,0.03220093119012264,432.92,0.7699999809265137,-0.0010454552582968737
433.396552,,0.045069032091815064,433.386,0.7590000033378601,-0.025160307054591997
433.862069,,0.04501113894455087,433.845,0.7760000228881836,0.011795456258013927
434.327586,,0.03608155348719822,434.311,0.7390000224113464,-0.06882533044678588
434.79310300000003,,0.02122033038854375,434.779,1.0099999904632568,0.5216525463655769
435.258621,,0.004257320876808723,435.244,0.7720000147819519,0.003275659128208338
435.724138,,0.00799796775671567,435.705,0.7570000290870667,-0.029193792021092145
436.189655,,0.01031756989089828,436.17,0.7620000243186951,-0.01803353523328557
436.655172,,0.005252420573000607,436.641,0.7590000033378601,-0.024254583664802917
437.12068999999997,,0.001210403366231291,437.104,0.7749999761581421,0.01095681165859302
437.586207,,0.0032325553279764596,437.567,0.7739999890327454,0.009158733474403285
438.051724,,0.007831226311862878,438.03,0.7739999890327454,0.009555081206839821
438.517241,,0.00858806851308928,438.501,0.7739999890327454,0.009954875011869714
438.982759,,0.005527908887607115,438.963,0.7559999823570251,-0.028870284130952776
439.448276,,0.0063730587579697365,439.429,0.7770000100135803,0.017250437199412372
439.913793,,0.017997750151036395,439.892,0.7620000243186951,-0.015092808500390045
440.37931000000003,,0.038689149526308274,440.358,0.7739999890327454,0.011344733694896574
440.844828,,0.06011636590266202,440.823,0.7739999890327454,0.011587367496674644
441.310345,,0.07522123075164033,441.289,0.7429999709129333,-0.05576679818260615
441.775862,,0.08236111476314134,441.756,0.7749999761581421,0.014069582602267589
442.241379,,0.08314595824988373,442.222,0.7590000033378601,-0.020736402861930157
442.70689699999997,,0.07926165201319982,442.686,0.7639999985694885,-0.009859028372020098
443.172414,,0.07223141929556104,443.151,0.796999990940094,0.0619538937406605
443.637931,,0.0642645651109412,443.612,0.753000020980835,-0.034052097248025985
444.103448,,0.05703670922640983,444.081,0.781000018119812,0.026746092312582303
444.568966,,0.04935342108899897,444.542,0.777999997138977,0.01995456234309683
445.03448299999997,,0.0375576346254636,445.012,0.7480000257492065,-0.04570379697400412
445.5,,0.01950773678454327,445.475,0.7739999890327454,0.010607520215813513
445.965517,,0.0021414851334882216,445.937,0.7599999904632568,-0.020250877184076924
446.431034,,0.02149335464833808,446.403,0.7110000252723694,-0.12737548404527424
446.896552,,0.03442491532261386,446.868,0.777999997138977,0.018220271348458238
447.36206899999996,,0.041741396744051515,447.333,0.7739999890327454,0.009142313524588917
447.827586,,0.04726008842516595,447.801,0.777999997138977,0.017516340247866947
448.29310300000003,,0.053144370355727284,448.26,0.7129999995231628,-0.12440440166621197
448.758621,,0.05774125700797048,448.727,0.7739999890327454,0.008224817186388912
449.224138,,0.05822978404848202,449.193,0.7590000033378601,-0.024674205276728943
449.689655,,0.05475356777153103,449.66,0.7549999952316284,-0.033552073487231736
450.155172,,0.051045604358986064,450.126,0.7820000052452087,0.0251690803886829
450.62068999999997,,0.050804335338580836,450.586,0.7580000162124634,-0.027156745199851808
451.086207,,0.05399089554543175,451.055,0.7699999809265137,-0.000986584523433003
451.551724,,0.05715342600147875,451.519,0.7689999938011169,-0.0030753462188382696
452.017241,,0.05723253782348755,451.981,0.777999997138977,0.016682866846326222
452.482759,,0.05441111493717336,452.447,0.777999997138977,0.016888898856698573
452.94827599999996,,0.050893369886575356,452.916,0.7739999890327454,0.00842919613043951
453.413793,,0.04757495725709222,453.382,0.7739999890327454,0.00872444657730996
453.87931,,0.043092014334394184,453.841,0.7620000243186951,-0.01709359439083647
454.344828,,0.036298308481994536,454.307,0.7699999809265137,0.0006807892501544169
454.810345,,0.028483196939869154,454.772,0.7730000019073486,0.007570756949614749
455.27586199999996,,0.022220204215406776,455.238,0.7570000290870667,-0.026936190362735736
455.741379,,0.01854926242533941,455.704,0.7749999761581421,0.012616882923064078
456.206897,,0.016198636475976722,456.17,0.7609999775886536,-0.017571022681708785
456.672414,,0.013353731956913884,456.63,0.7760000228881836,0.015388061043613977
457.137931,,0.009330917826329952,457.1,0.777999997138977,0.019982389402453435
457.603448,,0.004603471905304652,457.564,0.7599999904632568,-0.019045543864775413
458.06896600000005,,0.0001672320177632208,458.026,0.7820000052452087,0.029017421523175314
458.53448299999997,,0.0028308268618486864,458.494,0.777999997138977,0.02037695396144396
459.0,,0.0037552852635888054,458.957,0.753000020980835,-0.03407571867053698
459.465517,,0.0035601662144693754,459.422,0.7730000019073486,0.009449447676762089
459.931034,,0.0047240119231292885,459.888,0.7720000147819519,0.007163969431499831
460.39655200000004,,0.009121726023102034,460.353,0.753000020980835,-0.034392505938712174
460.86206899999996,,0.015900038025533192,460.819,0.7590000033378601,-0.021533182240256316
461.327586,,0.022054094965723612,461.284,0.781000018119812,0.026141611299865662
461.793103,,0.025049754989154665,461.749,0.7799999713897705,0.023673701741784056
462.258621,,0.024547062015218953,462.215,0.7549999952316284,-0.031105933364043815
462.724138,,0.022080387837794938,462.675,0.7870000004768372,0.03828287109650329
463.18965499999996,,0.01971490426961277,463.141,0.7490000128746033,-0.044837749046957684
463.655172,,0.018673617734153866,463.612,0.7459999918937683,-0.051700022426780005
464.12069,,0.018677354430535763,464.074,0.8180000185966492,0.1048530548576827
464.58620699999994,,0.018586378152174805,464.542,0.7540000081062317,-0.034862508870355434
465.051724,,0.01755200324259001,465.004,0.7749999761581421,0.010642913359191233
465.517241,,0.015199594796631426,465.468,0.8019999861717224,0.0692638115993101
465.98275900000004,,0.011127985761154006,465.93,0.7760000228881836,0.01246685729315317
466.448276,,0.005181056233654484,466.395,0.7739999890327454,0.008011731350932532
466.913793,,0.0017339313196604415,466.86,0.7559999823570251,-0.03124560004478202
467.37931,,0.0077912750580646185,467.326,0.7770000100135803,0.014521086473609321
467.844828,,0.011368694343150363,467.793,0.7710000276565552,0.0015202045271546702
468.31034500000004,,0.011713279812381879,468.259,0.777999997138977,0.016895196013528426
468.77586199999996,,0.008499344729641863,468.723,0.7749999761581421,0.01053292063217799
469.241379,,0.0010219873175669604,469.189,0.75,-0.04371674512373676
469.706897,,0.011676214322369,469.652,0.7739999890327454,0.008822312644626431
470.172414,,0.029151576612546963,470.115,0.7480000257492065,-0.04754435520031293
470.63793100000004,,0.04795852371279025,470.586,0.7570000290870667,-0.027641147591348166
471.10344799999996,,0.062767825452867,471.048,0.8100000023841858,0.08813113174664738
471.568966,,0.06981066538919713,471.512,0.7580000162124634,-0.024854605413144843
472.034483,,0.06860236208418899,471.982,0.7760000228881836,0.01465490686304503
472.5,,0.06007456221959144,472.44,0.7760000228881836,0.01492899767849023
472.965517,,0.04472964985356968,472.91,0.7770000100135803,0.017353801734399262
473.43103399999995,,0.02425412775626417,473.376,0.7480000257492065,-0.04561681841396309
473.89655200000004,,0.0038619804013588065,473.841,0.7599999904632568,-0.019306168895616285
474.362069,,0.00970402077339239,474.307,0.7839999794960022,0.03310050515824695
474.827586,,0.013728862467061835,474.771,0.6190000176429749,-0.3263105540840601
475.293103,,0.012070964149818897,475.236,0.7739999890327454,0.011388481983722675
475.758621,,0.011058013658555752,475.701,0.7820000052452087,0.02877194736869148
476.22413800000004,,0.013156684708753582,476.166,0.7689999938011169,0.0003546549523458049
476.689655,,0.015431675993472345,476.627,0.7760000228881836,0.015464903179173465
477.155172,,0.013914001385073349,477.097,0.7950000166893005,0.05667882938960276
477.62069,,0.008497235338649064,477.56,0.7179999947547913,-0.111291932105395
478.086207,,0.003310634368149936,478.022,0.7599999904632568,-0.020032148341614573
478.55172400000004,,0.00279502503533881,478.49,0.7599999904632568,-0.020296074963731335
479.01724099999996,,0.007369220728297322,478.952,0.7979999780654907,0.062218434559785575
479.482759,,0.012215213625365104,479.418,0.7940000295639038,0.05322990460330191
479.948276,,0.010526976782108245,479.881,0.7879999876022339,0.039893192972283865
480.413793,,0.00026890513386760315,480.347,0.7739999890327454,0.009144447417513874
480.87931000000003,,0.01439996703474997,480.811,0.7739999890327454,0.008920818747214383
481.344828,,0.02130623083088899,481.277,0.7630000114440918,-0.015237638219975327
481.810345,,0.015375577400022095,481.741,0.7580000162124634,-0.02628884812814822
482.275862,,0.001818073786886028,482.207,0.7829999923706055,0.028059247102297267
482.74137900000005,,0.008760068158500514,482.671,0.7760000228881836,0.012734379142197324
483.206897,,0.011422689763550582,483.137,0.7749999761581421,0.010526761368135018
483.672414,,0.01105942131889874,483.6,0.7739999890327454,0.00836475805536244
484.13793100000004,,0.015627000438873575,484.07,0.7609999775886536,-0.01989721987407744
484.603448,,0.0268874846487504,484.534,0.7770000100135803,0.015062691129069293
485.068966,,0.038549558611575455,484.996,0.7599999904632568,-0.021835892203353822
485.534483,,0.042961188182909504,485.464,0.7620000243186951,-0.017308352467576543
486.0,,0.039063291345522895,485.926,0.7770000100135803,0.015567240615843622
486.46551700000003,,0.033491090093924966,486.392,0.7599999904632568,-0.021254656887711297
486.931034,,0.03382199776315358,486.86,0.7450000047683716,-0.0537077224972289
487.396552,,0.041377603687050894,487.326,0.7739999890327454,0.009703410614086529
487.862069,,0.05113938087045701,487.786,0.7570000290870667,-0.027106404313906016
488.327586,,0.05750862035474445,488.252,0.7710000276565552,0.003611638580677568
488.79310300000003,,0.05818647053640831,488.72,0.7820000052452087,0.02777723839722102
489.258621,,0.05258190197916608,489.185,0.7749999761581421,0.012705186747952148
489.724138,,0.03915417228139549,489.649,0.7739999890327454,0.010677843712201925
490.189655,,0.016722886540061994,490.112,0.765999972820282,-0.006632008292013438
490.655172,,0.011771141029832342,490.575,0.7829999923706055,0.03048933014141131
491.12069,,0.038556917878709546,491.045,0.7580000162124634,-0.023929734070469083
491.586207,,0.05530339943059605,491.508,0.7820000052452087,0.028366800563200026
492.05172400000004,,0.058538315263633,491.971,0.7609999775886536,-0.017413609021179874
492.517241,,0.051437568038908685,492.436,0.7730000019073486,0.008665322750304141
492.982759,,0.04072034896113271,492.907,0.7490000128746033,-0.04372099392979256
493.448276,,0.0309496002498475,493.365,0.7960000038146973,0.05854689226774578
493.913793,,0.020659974046410113,493.83,0.7739999890327454,0.010463705219015344
494.37931000000003,,0.004622099749806009,494.296,0.7590000033378601,-0.022387992637589726
494.844828,,0.018416815918444653,494.76,0.7789999842643738,0.020999118431509062
495.310345,,0.040296413023122736,495.226,0.7599999904632568,-0.0205885480939883
495.775862,,0.04776835371567686,495.69,0.7559999823570251,-0.029498081882682287
496.241379,,0.033623854689553395,496.156,0.777999997138977,0.01824194262798385
496.70689699999997,,0.0030376990389189575,496.627,0.7760000228881836,0.013705793431972021
497.172414,,0.03153744721594827,497.089,0.9520000219345093,0.39698971441956904
497.637931,,0.06043813524559864,497.556,0.7739999890327454,0.009060190852171471
498.103448,,0.0804522076920537,498.018,0.753000020980835,-0.03679308234924427
498.568966,,0.09014024533630575,498.482,0.7480000257492065,-0.04776164630227806
499.03448299999997,,0.08578496483294829,498.945,0.7570000290870667,-0.02820162523584288
499.5,,0.06487920410937703,499.41,0.7699999809265137,0.00010152680168376907
499.96551700000003,,0.03260459373728402,499.882,0.7549999952316284,-0.03256857280184297
500.431034,,0.0015548271395306556,500.34,0.7739999890327454,0.008863075430378667
500.89655200000004,,0.017440033946748854,500.811,0.7730000019073486,0.006747974411149404
501.362069,,0.02429049813677494,501.27,0.777999997138977,0.01772863338544108
501.827586,,0.02782775301441035,501.742,0.7369999885559082,-0.07148866116850522
502.293103,,0.03429669124472885,502.2,0.7509999871253967,-0.04086539717037959
502.758621,,0.03953890621953875,502.671,0.8330000042915344,0.1379179536463339
503.224138,,0.03451943995196067,503.137,0.7910000085830688,0.046558733731650905
503.68965499999996,,0.017180734436578516,503.6,0.7990000247955322,0.06413735028709011
504.15517200000005,,0.004003222811197877,504.063,0.7749999761581421,0.011998632582363758
504.62068999999997,,0.01803803573148283,504.527,0.7820000052452087,0.027392449274676184
505.08620699999994,,0.02049479373367168,504.996,0.7570000290870667,-0.02694137082304517
505.55172400000004,,0.014531915251213834,505.455,0.7549999952316284,-0.031182038745651446
506.017241,,0.005782366653810356,505.92,0.7760000228881836,0.014667230342916173
506.48275899999993,,0.0019894970934470524,506.386,0.7940000295639038,0.05395987546006975
506.948276,,0.007702690488601944,506.853,0.7739999890327454,0.010441967119181052
507.413793,,0.011930383622000041,507.319,0.7549999952316284,-0.03092083139454646
507.87931,,0.015690746192615634,507.786,0.7870000004768372,0.03880305961431231
508.344828,,0.019465296474062324,508.251,0.7620000243186951,-0.015679533927535218
508.810345,,0.022929344150028994,508.716,0.7620000243186951,-0.015718514692841003
509.27586199999996,,0.025689604124170002,509.182,0.7760000228881836,0.014722824061682457
509.74137900000005,,0.028083033778597954,509.645,0.7609999775886536,-0.018034637401540817
510.20689699999997,,0.030745237107905016,510.107,0.7749999761581421,0.012374080069232019
510.67241399999995,,0.03311546613338194,510.571,0.7620000243186951,-0.0160517960123761
511.13793100000004,,0.0327284343464983,511.041,0.7480000257492065,-0.04666423702459004
511.603448,,0.027022662205193674,511.504,0.7490000128746033,-0.044601525086948965
512.0689659999999,,0.016692037095104407,511.967,0.7570000290870667,-0.02728876196037556
512.534483,,0.00666755734697187,512.433,0.7990000247955322,0.06410257672338647
513.0,,0.0023173834575453793,512.895,0.777999997138977,0.01824856290739032
513.465517,,0.004322529037771047,513.361,0.7580000162124634,-0.02541421891631349
513.931034,,0.008278793090373502,513.826,0.7860000133514404,0.03551267649803764
514.396552,,0.009675795345973251,514.292,0.7749999761581421,0.011489299838138364
514.862069,,0.008209401484765688,514.757,0.7789999842643738,0.020164478366770443
515.327586,,0.0064246228307047225,515.222,0.7580000162124634,-0.0256075728691618
515.793103,,0.0049726599314822715,515.686,0.7739999890327454,0.009248779852442192
516.258621,,0.0009494757243622201,516.152,0.7789999842643738,0.02015816035599029
516.724138,,0.008165707504187474,516.615,0.753000020980835,-0.036453697963678526
517.189655,,0.01979089503533477,517.085,0.7820000052452087,0.026774607015725666
517.655172,,0.027219403570290374,517.545,0.7599999904632568,-0.02109579617727577
518.1206900000001,,0.026042091837547895,518.015,0.7710000276565552,0.0029389352925118612
518.5862070000001,,0.018785820553967478,518.479,0.7770000100135803,0.016087020874597926
519.051724,,0.012367830964039936,518.941,0.7870000004768372,0.037953919433264025
519.517241,,0.011206315250950819,519.407,0.8289999961853027,0.1295398694271749
519.982759,,0.013433390313791711,519.874,0.7620000243186951,-0.01634733283764171
520.448276,,0.014062574159930145,520.34,0.781000018119812,0.025124250768301454
520.9137929999999,,0.011625226650846842,520.804,0.7739999890327454,0.009942369264045453
521.37931,,0.010824565568289922,521.27,0.7480000257492065,-0.04664510868881988
521.844828,,0.017224751380782905,521.73,0.7639999985694885,-0.011743617720303414
522.310345,,0.028939263407401924,522.196,0.7570000290870667,-0.026966427034061536
522.7758620000001,,0.035721091299323306,522.664,0.7599999904632568,-0.020418929877133285
523.241379,,0.028922998594935707,523.129,0.7670000195503235,-0.005172559393008033
523.7068969999999,,0.01190674299197757,523.59,0.7680000066757202,-0.003012992893923239
524.172414,,0.0019759621653259625,524.06,0.7739999890327454,0.01002659577970903
524.637931,,0.0019840933498670977,524.523,0.7580000162124634,-0.024875421826921408
525.103448,,0.011321450779054427,524.985,0.7739999890327454,0.009929904749906397
525.568966,,0.029383735046089522,525.451,0.781000018119812,0.02512127778329941
526.034483,,0.04421417126433827,525.915,0.7710000276565552,0.0032725802363786057
526.5,,0.05226009842462631,526.381,0.7570000290870667,-0.027291282206727847
526.9655170000001,,0.052414297276312326,526.845,0.7559999823570251,-0.029531159182100333
527.4310340000001,,0.04379409679205661,527.311,0.7820000052452087,0.02705731700528525
527.8965519999999,,0.027175980787318185,527.775,0.7739999890327454,0.00957972281765565
528.362069,,0.00805598189027143,528.241,0.7760000228881836,0.013899281198795257
528.827586,,0.004262648503137762,528.708,0.7739999890327454,0.009516290652877379
529.293103,,0.0038003105323536107,529.173,0.6890000104904175,-0.17568268364894665
529.7586210000001,,0.004980296212873794,529.641,0.7540000081062317,-0.034073825747607256
530.224138,,0.009314163340687097,530.104,0.9129999876022339,0.31234262707945437
530.689655,,0.0005240278275405148,530.567,0.7480000257492065,-0.04710482583113225
531.155172,,0.02215292513124686,531.03,0.7760000228881836,0.013941343991315072
531.62069,,0.04373609334943788,531.501,0.7749999761581421,0.011817022913913637
532.086207,,0.05440476824968024,531.963,0.7789999842643738,0.020594654225265244
532.5517239999999,,0.051259725884581,532.429,0.7570000290870667,-0.027267029616289268
533.017241,,0.03838195757998336,532.892,0.7710000276565552,0.0033044505931387243
533.482759,,0.02247419645098557,533.358,0.7609999775886536,-0.01841317724648537
533.9482760000001,,0.009968283681331699,533.823,0.7580000162124634,-0.024884886468003506
534.413793,,0.005327736358046478,534.289,0.7739999890327454,0.01002969668851093
534.87931,,0.009246949413605907,534.753,0.777999997138977,0.018790480014255755
535.344828,,0.01824512724128231,535.219,0.753000020980835,-0.03564207563039478
535.810345,,0.02708688424952516,535.686,0.7749999761581421,0.012306767516253984
536.275862,,0.032213184595767254,536.151,0.7620000243186951,-0.01601315223509387
536.7413789999999,,0.03331185332187407,536.612,0.6100000143051147,-0.3471853356949188
537.206897,,0.03236338514739268,537.082,0.777999997138977,0.018787675467444895
537.672414,,0.03148017160812295,537.545,0.7580000162124634,-0.024843607938817177
538.137931,,0.031245242073531996,538.007,0.781000018119812,0.025193483119531304
538.6034480000001,,0.0309228514145313,538.476,0.7770000100135803,0.01639650889252442
539.0689659999999,,0.03045925899725779,538.938,0.7559999823570251,-0.029445121052002372
539.5344829999999,,0.03172079626637772,539.405,0.7739999890327454,0.009675961788672822
540.0,,0.0365207411602293,539.871,0.7559999823570251,-0.029635406291922996
540.465517,,0.04351548004182952,540.337,0.7720000147819519,0.005130126570565609
540.931034,,0.04876541779265529,540.801,0.7889999747276306,0.042081295408966934
541.396552,,0.049875995059951446,541.26,0.777999997138977,0.01804193256523408
541.862069,,0.04794413129762651,541.727,0.7720000147819519,0.004910377506493102
542.327586,,0.04467961856356745,542.192,0.7689999938011169,-0.0016684514420274056
542.7931030000001,,0.03928456242812206,542.665,0.7559999823570251,-0.030015155488645803
543.258621,,0.029546393846884456,543.123,0.7549999952316284,-0.03219841975843299
543.7241379999999,,0.015184591664195432,543.586,0.7739999890327454,0.00921180857608688
544.189655,,0.0011483488274827616,544.056,0.7749999761581421,0.011427738808971308
544.655172,,0.016115990637827142,544.519,0.7549999952316284,-0.03208713045161885
545.12069,,0.028258669410602257,544.981,0.7620000243186951,-0.016759734035677477
545.5862070000001,,0.03836890813481312,545.447,0.7760000228881836,0.013834823896065154
546.051724,,0.04815495625267179,545.91,0.7570000290870667,-0.027451899103077146
546.517241,,0.05899168507132615,546.375,0.7739999890327454,0.009703186807771715
546.982759,,0.07119026776166104,546.841,0.8489999771118164,0.1732282585811994
547.448276,,0.0832608349103475,547.307,0.7620000243186951,-0.01618236188062757
547.9137929999999,,0.09188583586227732,547.772,0.7910000085830688,0.047129438833406354
548.3793099999999,,0.09385449144595302,548.238,0.7789999842643738,0.021110132570248498
548.844828,,0.0886809622779983,548.704,0.7760000228881836,0.014687501470725237
549.310345,,0.07850039445634173,549.17,0.7820000052452087,0.02785644783501786
549.775862,,0.06478067823499264,549.631,0.7749999761581421,0.012682657882045464
550.241379,,0.04656008048248378,550.1,0.7609999775886536,-0.017765846479681404
550.706897,,0.023795276414056363,550.563,0.7770000100135803,0.017117830229806022
551.172414,,0.001466024710095139,551.026,0.7599999904632568,-0.01992322513110348
551.637931,,0.012908524972424664,551.494,0.7599999904632568,-0.019957566770294064
552.103448,,0.017067264152500792,551.956,0.7879999876022339,0.04098035522149092
552.568966,,0.01710000756726351,552.422,0.765999972820282,-0.00704214076523805
553.034483,,0.020626305702706803,552.888,0.8330000042915344,0.13881064348268046
553.5,,0.02757320883462133,553.354,0.7789999842643738,0.021026527650091963
553.965517,,0.029366134118096306,553.819,0.7519999742507935,-0.03795148716423208
554.4310340000001,,0.01716791928676029,554.284,0.7599999904632568,-0.02069127345417142
554.896552,,0.009983200403099395,554.749,0.7839999794960022,0.03141840440179733
555.3620689999999,,0.04429789328819508,555.215,0.7480000257492065,-0.0471933008427231
555.827586,,0.07411038629712925,555.675,0.7739999890327454,0.009274313609894266
556.293103,,0.08909117688068248,556.141,0.5529999732971191,-0.4723786630008399
556.758621,,0.08350186444101584,556.612,0.7789999842643738,0.019833211817770285
557.224138,,0.05839968133994679,557.074,0.777999997138977,0.017511075415345138
557.689655,,0.022300723787908767,557.535,0.7720000147819519,0.0043251990402284075
558.155172,,0.01245338536601702,558.004,0.8080000281333923,0.08267766993854021
558.6206900000001,,0.03745329431911603,558.467,0.7620000243186951,-0.017579650684645304
559.0862070000001,,0.053700585973045716,558.93,0.7580000162124634,-0.026292663552707873
559.5517239999999,,0.06838416582827495,559.395,0.7820000052452087,0.026038273646125452
560.017241,,0.08583894627349925,559.86,0.7739999890327454,0.008694717574597784
560.482759,,0.10276311073175179,560.325,0.656000018119812,-0.248261583157329
560.948276,,0.11213880704299987,560.79,0.777999997138977,0.017691084347332124
561.413793,,0.10969843779479743,561.255,0.7400000095367432,-0.06490934958191179
561.87931,,0.09597881920482873,561.723,0.7599999904632568,-0.021121609522181325
562.344828,,0.07449889318174668,562.188,0.7820000052452087,0.027044114260030606
562.8103450000001,,0.049843915522514784,562.66,0.7749999761581421,0.012043254876555595
563.275862,,0.026412948193827543,563.119,0.777999997138977,0.018835460382399364
563.7413789999999,,0.007013101180694655,563.587,0.796999990940094,0.06048421138008461
564.206897,,0.007904786669141567,564.049,0.7580000162124634,-0.024239188275846275
564.672414,,0.01928882102266044,564.512,0.7739999890327454,0.010842886687932145
565.137931,,0.02753682144585255,564.982,0.777999997138977,0.019752738617340754
565.603448,,0.03137767554159384,565.447,0.7730000019073486,0.009018975511303358
566.068966,,0.02878434735902157,565.91,0.753000020980835,-0.03443736854885324
566.534483,,0.01949598580675496,566.375,0.5419999957084656,-0.4940688120924302
567.0,,0.0070810730863863185,566.841,0.7820000052452087,0.02881029279605954
567.465517,,0.0017883285276959226,567.3,0.7549999952316284,-0.030067209163734086
567.931034,,0.0012376692344930765,567.767,0.7739999890327454,0.01122034949373606
568.396552,,0.009401642957673642,568.233,0.7590000033378601,-0.021616665042430556
568.862069,,0.024639884982075345,568.7,0.7559999823570251,-0.028356705839389887
569.327586,,0.036675739876342844,569.166,0.7739999890327454,0.010613852029951383
569.793103,,0.04083199517473106,569.627,0.7730000019073486,0.00815677143565376
570.2586210000001,,0.03777376026906468,570.097,0.7599999904632568,-0.020468995279530028
570.724138,,0.031023025801838036,570.56,0.7739999890327454,0.009713100924834345
571.189655,,0.023007075372852594,571.023,0.7559999823570251,-0.029827235604438528
571.655172,,0.013880162511566265,571.486,0.7820000052452087,0.026497972673019933
572.12069,,0.0036599306660414746,571.956,0.7820000052452087,0.026194328260843013
572.586207,,0.005684368855750005,572.422,0.777999997138977,0.017202747000269816
573.051724,,0.011107901806801282,572.88,0.7639999985694885,-0.01353955159131559
573.517241,,0.01133095445802133,573.346,0.7870000004768372,0.03637224610278704
573.982759,,0.008062830583928355,573.812,0.777999997138977,0.016618963085672223
574.4482760000001,,0.0038902078270076045,574.277,0.7540000081062317,-0.0357570366522315
574.913793,,0.0005977018971461277,574.745,0.7590000033378601,-0.024892335721200504
575.37931,,0.006660945850681777,575.211,0.7739999890327454,0.007820799851427498
575.844828,,0.014494564693299513,575.671,0.7630000114440918,-0.01604836472407524
576.310345,,0.021685861728314937,576.137,0.7839999794960022,0.02985996619429526
576.775862,,0.025086093524882728,576.604,0.7739999890327454,0.008287567455570988
577.241379,,0.023335488754902836,577.067,0.7739999890327454,0.0085531099524967
577.706897,,0.017241759222887225,577.535,0.7860000133514404,0.03500637240182657
578.172414,,0.009247222882435641,577.997,0.7609999775886536,-0.01911585094228587
578.6379310000001,,0.0037691362742509433,578.468,0.7580000162124634,-0.025284203301188867
579.1034480000001,,0.006342411610773765,578.93,0.753000020980835,-0.03579857090727898
579.5689659999999,,0.019296134723915722,579.395,0.7789999842643738,0.021224772724797048
580.034483,,0.03765049300897293,579.86,0.7820000052452087,0.028127826191006854
580.5,,0.051342668189712774,580.326,0.765999972820282,-0.006386686800788222
580.965517,,0.052608809582451274,580.786,0.7799999713897705,0.024423550303706496
581.431034,,0.04029870355071751,581.252,0.7549999952316284,-0.029778993262875378
581.896552,,0.017293643103880277,581.715,0.7739999890327454,0.011823941569393455
582.362069,,0.01349051834137474,582.182,0.7630000114440918,-0.011995090575328275
582.827586,,0.04883394288252446,582.645,0.7739999890327454,0.012047981791527227
583.2931030000001,,0.08292889549749534,583.115,0.7760000228881836,0.016411907412211706
583.758621,,0.10849627930774214,583.575,0.7620000243186951,-0.014155398076388052
584.2241379999999,,0.12119978599809694,584.045,0.7720000147819519,0.007492717059888335
584.689655,,0.12208100220391756,584.508,0.781000018119812,0.02689360955382207
585.155172,,0.11500534720753892,584.971,0.6579999923706055,-0.24135214117030684
585.6206900000001,,0.10215805853717543,585.436,0.7549999952316284,-0.030354793089246795
586.0862070000001,,0.0825197985127896,585.906,0.7490000128746033,-0.043807026774898235
586.551724,,0.054196727857847425,586.365,0.7559999823570251,-0.02897233001488555
587.017241,,0.01743340592535401,586.83,0.9599999785423279,0.41503781592562927
587.482759,,0.02412740275419432,587.296,0.777999997138977,0.018088859642596298
587.948276,,0.0638436223343718,587.761,0.7749999761581421,0.011128049276283546
588.4137929999999,,0.09398318524873772,588.226,0.753000020980835,-0.037207502325145886
588.87931,,0.10920935562148501,588.693,0.8820000290870667,0.2434667936566975
589.344828,,0.10938247071274057,589.159,0.7559999823570251,-0.031366667022956804
589.810345,,0.09846697727505709,589.627,0.7609999775886536,-0.02074074130415265
590.2758620000001,,0.0802593087992287,590.089,0.7820000052452087,0.02480698821546467
590.741379,,0.055700895960301915,590.557,0.7739999890327454,0.007244899589730487
591.2068969999999,,0.02479026429004574,591.019,0.765999972820282,-0.010241229263368585
591.672414,,0.009336947980012288,591.482,0.7910000085830688,0.044246773483133585
592.137931,,0.03903271127686868,591.945,0.7739999890327454,0.007310659123478923
592.603448,,0.05534454724928267,592.411,0.7590000033378601,-0.02519151263532406
593.068966,,0.0532357984608976,592.875,0.7549999952316284,-0.03365762041857996
593.534483,,0.034992742439143444,593.341,0.777999997138977,0.016763927201499513
594.0,,0.009755735640277508,593.808,0.9070000052452087,0.29818070097179056
594.4655170000001,,0.010871427531755625,594.273,0.7739999890327454,0.008841599763544379
594.9310340000001,,0.019281886208562003,594.74,0.7580000162124634,-0.025560721912107495
595.3965519999999,,0.016448739824757322,595.205,0.7760000228881836,0.014128997811841681
595.862069,,0.010835785086091329,595.672,0.7580000162124634,-0.024609280857765977
596.327586,,0.01185555242109335,596.13,0.7580000162124634,-0.02414366147203238
596.793103,,0.022722691703637134,596.601,0.7580000162124634,-0.0237047920830149
597.2586210000001,,0.03825434241851134,597.063,0.753000020980835,-0.034199876165640734
597.724138,,0.04916980117500047,597.531,0.7749999761581421,0.0140752734305042
598.189655,,0.04902299613742746,597.993,0.7739999890327454,0.012178013982876601
598.655172,,0.037962158074615185,598.464,0.7760000228881836,0.016744317527636922
599.12069,,0.02114365671693367,598.926,0.7599999904632568,-0.017984959348643994
599.586207,,0.004643688904063114,599.392,0.7850000262260437,0.036526024715132895
600.0517239999999,,0.00751710458443238,599.856,0.7620000243186951,-0.013624617630624442
600.517241,,0.014356026460787666,600.321,0.7770000100135803,0.01892746830862414
600.982759,,0.017615406425762307,600.787,0.7739999890327454,0.01218125683511832
601.448276,,0.02038568419680466,601.245,0.7739999890327454,0.011894438667982763
601.913793,,0.024877624871750773,601.712,0.7689999938011169,0.000645878463070451
602.37931,,0.030637483603659494,602.178,0.7580000162124634,-0.02373300545679344
602.844828,,0.03483690335737005,602.645,0.7229999899864197,-0.10044686174330751
603.310345,,0.03470556966671593,603.107,0.7609999775886536,-0.01815343136279293
603.775862,,0.030074232519160277,603.575,0.7630000114440918,-0.014309421937637807
604.2413789999999,,0.023699814490727573,604.037,0.7749999761581421,0.011319697796062478
604.706897,,0.019030983079137996,604.505,0.7799999713897705,0.021713766582838696
605.172414,,0.017416368357113424,604.968,0.7450000047683716,-0.05500715300794151
605.637931,,0.01726649900573401,605.433,0.7730000019073486,0.005571825236330705
606.1034480000001,,0.015906311966694862,605.896,0.7749999761581421,0.009564968386157068
606.5689659999999,,0.01228609002259303,606.362,0.734000027179718,-0.08005285663827691
607.0344829999999,,0.0078089796622106454,606.826,0.7590000033378601,-0.025800494778563623
607.5,,0.0046125480396634,607.292,0.7739999890327454,0.006752717670655471
607.965517,,0.003517985686136278,607.76,0.7739999890327454,0.006719296791622765
608.431034,,0.003791920470980777,608.226,0.7480000257492065,-0.049864210393856016
608.896552,,0.004243078543799041,608.686,0.7990000247955322,0.0614017808524282
609.362069,,0.004030721666848478,609.151,0.7739999890327454,0.007180848463185619
609.827586,,0.0028187332372976315,609.615,0.777999997138977,0.016224485497630014
610.293103,,0.0007995808158373298,610.085,0.7580000162124634,-0.026946127396372706
610.758621,,0.0013128465457686058,610.545,0.7720000147819519,0.004018156000660692
611.2241379999999,,0.002547452757766088,611.015,0.7770000100135803,0.015421669080663076
611.689655,,0.002181448423767705,611.478,0.7599999904632568,-0.021073540625869705
612.155172,,0.00020762286623728245,611.941,0.777999997138977,0.01869868041932877
612.62069,,0.0025687454735996416,612.406,0.7749999761581421,0.012716828163767194
613.0862070000001,,0.00493212084865155,612.871,0.7580000162124634,-0.02378585018062967
613.551724,,0.005972861232155201,613.337,0.7599999904632568,-0.01893177479965952
614.017241,,0.005741452993302997,613.801,0.8510000109672546,0.17977033875810383
614.4827590000001,,0.0052650520831528545,614.267,0.7749999761581421,0.01457368899784519
614.948276,,0.005473215835028626,614.735,0.7689999938011169,0.0018045538686784234
615.4137929999999,,0.005824320585030058,615.201,0.75,-0.03937736303907598
615.8793099999999,,0.004502160191982318,615.665,0.75,-0.03926360165429832
616.344828,,0.0004001695281836057,616.13,0.7580000162124634,-0.021823886542289717
616.810345,,0.005644268371437052,616.593,0.777999997138977,0.021655768499536026
617.275862,,0.011984197063501453,617.056,0.7590000033378601,-0.01993296695620008
617.741379,,0.017621093181263765,617.526,0.7570000290870667,-0.02458080958853072
618.206897,,0.02188347523735193,617.989,0.777999997138977,0.020792325179359767
618.672414,,0.023849374697300234,618.455,0.753000020980835,-0.034128593973852615
619.137931,,0.02330817152740973,618.921,0.777999997138977,0.019820193207775547
619.603448,,0.02144451050929764,619.386,0.7739999890327454,0.010541744743315337
620.068966,,0.019385962676523875,619.845,0.7760000228881836,0.014306590989677103
620.534483,,0.01682953443282285,620.311,0.7580000162124634,-0.025512248057605748
621.0,,0.01325078667831782,620.775,0.753000020980835,-0.03700107721941009
621.465517,,0.00983105180917587,621.241,0.7829999923706055,0.02778913341891713
621.9310340000001,,0.008986173738613655,621.708,0.8360000252723694,0.14273494794137107
622.396552,,0.01204733549442417,622.174,0.7739999890327454,0.007200629078551301
622.862069,,0.017922997449965665,622.642,0.7739999890327454,0.006820767519839505
623.327586,,0.023813570996716167,623.104,0.7580000162124634,-0.02832836791141099
623.793103,,0.026883070948439548,623.572,0.7580000162124634,-0.028521032559860448
624.258621,,0.02561211008606912,624.034,0.7580000162124634,-0.028609151961540694
624.724138,,0.020302060102980076,624.497,1.0460000038146973,0.598867103306357
625.189655,,0.012781168768360315,624.96,0.8399999737739563,0.15021076676236086
625.655172,,0.00559117750843264,625.425,0.7749999761581421,0.008856446885153762
626.1206900000001,,0.0007738594782999642,625.896,0.7720000147819519,0.0026765448712607496
626.5862070000001,,0.0014510579139477941,626.355,0.7739999890327454,0.007475432036158707
627.0517239999999,,0.0029107731915845115,626.826,0.7580000162124634,-0.026869657966357017
627.5172409999999,,0.005611985954910836,627.285,0.7599999904632568,-0.02194415975172157
627.982759,,0.009256200750771154,627.756,0.7649999856948853,-0.010445547119374673
628.448276,,0.011158391698990366,628.215,0.7990000247955322,0.06425305318916258
628.913793,,0.009168750232673483,628.686,0.777999997138977,0.019126308236463156
629.37931,,0.004439693471281106,629.152,0.7680000066757202,-0.002054627620642628
629.844828,,0.000705780314384879,629.615,0.777999997138977,0.0202983746910003
630.3103450000001,,0.0006735041747819926,630.078,0.7519999742507935,-0.03583713727505502
630.7758620000001,,0.003530314280019665,630.541,0.7730000019073486,0.010350443093021973
631.2413789999999,,0.00627145562163356,631.011,0.6869999766349792,-0.17666611593458592
631.706897,,0.007111209521376551,631.475,0.7599999904632568,-0.017378269321874674
632.172414,,0.007109007431269616,631.937,0.7860000133514404,0.03940613015128787
632.637931,,0.008495110999860438,632.403,0.7789999842643738,0.024185980539970058
633.103448,,0.011886616956984937,632.867,0.7760000228881836,0.01757085848419609
633.568966,,0.015569111749451902,633.333,0.7570000290870667,-0.024010510196932563
634.034483,,0.01746116298209453,633.797,0.7710000276565552,0.006201118394618063
634.5,,0.01730134289501247,634.262,0.753000020980835,-0.03339753656156305
634.9655170000001,,0.016662198365093195,634.727,0.7630000114440918,-0.012075729729207813
635.431034,,0.01719820128277882,635.194,0.777999997138977,0.020072493849590284
635.8965519999999,,0.019166032959682472,635.66,0.777999997138977,0.01949160046191128
636.362069,,0.021273273524476354,636.126,0.7730000019073486,0.007986433601208836
636.827586,,0.02160704995151566,636.587,0.7749999761581421,0.011719685300609404
637.293103,,0.01900280043482902,637.056,0.7590000033378601,-0.023755529456914802
637.7586210000001,,0.013961772139525484,637.519,0.7749999761581421,0.01051200341703071
638.224138,,0.008338069491437398,637.982,0.7450000047683716,-0.05539394843706922
638.689655,,0.004036838678554783,638.448,0.7770000100135803,0.01383738978371842
639.155172,,0.0018177023987533366,638.911,0.7580000162124634,-0.027965853367568707
639.62069,,0.0010742941953332057,639.376,0.7789999842643738,0.017466373460438202
640.086207,,0.0007021430905170757,639.841,0.7820000052452087,0.02378307461556887
640.551724,,0.0003012753676639682,640.307,0.7789999842643738,0.01713511829093263
641.017241,,0.000381301304786243,640.771,0.7789999842643738,0.017133884825118035
641.482759,,0.0011771181585948738,641.236,0.7580000162124634,-0.02850865879316495
641.9482760000001,,0.0017374244014591452,641.701,0.7540000081062317,-0.03700833718370895
642.413793,,0.0009087614532469442,642.168,0.7820000052452087,0.024307897101896753
642.87931,,0.0010748975250972018,642.631,0.7580000162124634,-0.027575798188521693
643.344828,,0.0029271371821430873,643.1,0.7490000128746033,-0.04670317259919164
643.810345,,0.004145334743599181,643.563,0.7760000228881836,0.012662170993712913
644.275862,,0.005489913579738621,644.026,0.6549999713897705,-0.2503697094978737
644.7413789999999,,0.007365285671632513,644.497,0.7770000100135803,0.016033460532396064
645.206897,,0.008592902044784929,644.959,0.7620000243186951,-0.016032039924631324
645.672414,,0.007660572440394156,645.425,0.7739999890327454,0.01071522776252289
646.1379310000001,,0.005180807575222178,645.889,0.7620000243186951,-0.01485424378525223
646.6034480000001,,0.004179022575437239,646.355,0.7739999890327454,0.011816693178725718
647.0689659999999,,0.0069458991385056785,646.819,0.7789999842643738,0.02317418074073757
647.534483,,0.01184207200631296,647.285,0.7599999904632568,-0.017833152068206848
648.0,,0.014604339299124029,647.75,0.7609999775886536,-0.015357387156866232
648.465517,,0.013503577778229395,648.215,0.7739999890327454,0.01316308351910818
648.931034,,0.01227362366842822,648.675,0.7409999966621399,-0.05863972842837227
649.396552,,0.016759345178360394,649.14,0.7580000162124634,-0.0216190357005859
649.862069,,0.028589708657140455,649.608,0.765999972820282,-0.004314652453308237
650.327586,,0.04257506454894462,650.07,0.765999972820282,-0.00454323225842457
650.7931030000001,,0.05035110406650802,650.538,0.7760000228881836,0.01691831925484666
651.258621,,0.04676375943403026,651.0,0.6179999709129333,-0.3277224387726981
651.7241379999999,,0.033699562888739786,651.471,0.7699999809265137,0.0029391614392169124
652.189655,,0.01856076410839052,651.933,0.7549999952316284,-0.030294807685185075
652.655172,,0.008525606354180548,652.399,0.777999997138977,0.019218820306847816
653.12069,,0.0050757717825689955,652.863,0.902999997138977,0.29093518562217524
653.5862070000001,,0.003696968072983902,653.329,0.7749999761581421,0.011455617947199966
654.051724,,0.0007466214443444746,653.794,0.7599999904632568,-0.021817985541421912
654.517241,,0.008628030360026113,654.259,0.7580000162124634,-0.026735393942519402
654.982759,,0.016285964295963955,654.72,0.7919999957084656,0.04682960900388872
655.448276,,0.021616837003254803,655.185,0.7590000033378601,-0.02550754084419141
655.9137929999999,,0.02702527572731778,655.66,0.781000018119812,0.02206155060256168
656.37931,,0.03602205277722621,656.118,0.777999997138977,0.015255912696888608
656.844828,,0.04840063339462778,656.586,0.777999997138977,0.015086213793230184
657.310345,,0.060111104967796904,657.048,0.777999997138977,0.015021368198643543
657.7758620000001,,0.06708776435502288,657.516,0.8659999966621399,0.20678586651953432
658.241379,,0.06792931362745717,657.978,0.7409999966621399,-0.06539443107602742
658.7068969999999,,0.06310435113837638,658.444,0.7699999809265137,-0.0019628283208133457
659.172414,,0.0527864077277767,658.907,0.7820000052452087,0.02452262571405015
659.637931,,0.03646518444706412,659.372,0.753000020980835,-0.0382361762019089
660.103448,,0.015214986451438097,659.838,0.796999990940094,0.05811336991105145
660.568966,,0.005959729337198325,660.303,0.7789999842643738,0.019439237533235232
661.034483,,0.01966699863962627,660.767,0.7879999876022339,0.039624629301887156
661.5,,0.021792752036879234,661.233,0.7739999890327454,0.009718861363246824
661.965517,,0.015589234373274424,661.7,0.7760000228881836,0.014670581447981994
662.4310340000001,,0.008595522578360723,662.166,0.7599999904632568,-0.019613320671679223
662.8965519999999,,0.004886643754680139,662.626,0.777999997138977,0.02013927364554206
663.362069,,0.0015065110869816425,663.096,0.7760000228881836,0.016265193918565703
663.827586,,0.006489205240546061,663.556,0.7559999823570251,-0.02689323874533782
664.293103,,0.018467016989040685,664.026,0.7749999761581421,0.014834269393695677
664.7586210000001,,0.027483860839432953,664.489,0.7820000052452087,0.03032715123321704
665.224138,,0.027154391568575166,664.952,0.7730000019073486,0.010864031063915841
665.689655,,0.017518754129865394,665.418,0.7609999775886536,-0.01523710947336226
666.155172,,0.0035039452182363253,665.881,0.7739999890327454,0.013024767184021723
666.62069,,0.010587901761066401,666.347,0.753000020980835,-0.03288849948220435
667.086207,,0.0236186330755501,666.811,0.7599999904632568,-0.017895815845252468
667.5517239999999,,0.03601649891901775,667.277,0.7820000052452087,0.02968929199027393
668.017241,,0.04762023791694362,667.741,0.7559999823570251,-0.027376714963737833
668.482759,,0.05682431988910155,668.207,0.7710000276565552,0.004819269157442433
668.948276,,0.06060719009443825,668.673,0.7310000061988831,-0.08285878639792121
669.413793,,0.055987969026458036,669.139,0.7730000019073486,0.00808052824928195
669.87931,,0.04317376489374302,669.601,0.7770000100135803,0.01621785071221252
670.3448279999999,,0.027280498007736673,670.07,0.7760000228881836,0.013467508494559872
