Trial: ,7
Threshold: ,0.0
Maximum EMG: ,0.07980050242557307
Success: ,True

EMG Time,Raw EMG,Filtered EMG,Force Time,Raw Force (V),Filtered Force (N)
0.0,samples,2.0669369670275872e-08,0.466,0.7639999985694885,-0.028363713457131068
0.46551699999999996,time,2.1495863393435355e-08,0.933,0.781000018119812,0.008343760504252538
0.9310339999999999,value,2.228143611138313e-08,1.399,0.7630000114440918,-0.031038875375953182
1.396552,,2.3021520616901767e-08,1.859,0.7699999809265137,-0.01578698377324034
1.862069,,2.371151458461574e-08,2.324,0.7609999775886536,-0.03522457810725158
2.327586,,2.4346795457870284e-08,2.796,0.781000018119812,0.008683301181667666
2.793103,,2.4922736050646644e-08,3.255,0.7820000052452087,0.011352321179440874
3.258621,,2.543472083978626e-08,3.725,0.7829999923706055,0.014162948602144215
3.724138,,2.5878162919268126e-08,4.188,0.7369999885559082,-0.08530099029142812
4.189654999999999,,2.624852158470359e-08,4.651,0.7829999923706055,0.015769176965577267
4.655172,,2.654132051259173e-08,5.114,0.7279999852180481,-0.10313190637856597
5.12069,,2.6752166495227395e-08,5.58,0.7870000004768372,0.026377156590204037
5.586207,,2.6876768688484376e-08,6.05,0.7609999775886536,-0.029283903411580492
6.051723999999999,,2.6910958326020915e-08,6.516,0.781000018119812,0.01525846214148854
6.517241,,2.68507088497861e-08,6.98,0.7900000214576721,0.0357915293964467
6.982759,,2.669215640305727e-08,7.439,0.781000018119812,0.01703662984056959
7.448276,,2.6431620628624317e-08,7.91,0.7630000114440918,-0.021425566547626965
7.913793000000001,,2.6065625711170748e-08,8.369,0.7570000290870667,-0.03386807541152597
8.379309999999998,,2.5590921599398854e-08,8.841,0.7860000133514404,0.029797856407200604
8.844828000000001,,2.5004505340021996e-08,9.299,0.7870000004768372,0.03230272063919464
9.310345,,2.4303642452417025e-08,9.77,0.7860000133514404,0.030281138922008004
9.775862,,2.3485888269509605e-08,10.232,0.6209999918937683,-0.32921702754217075
10.241379,,2.2549109167371196e-08,10.695,0.7889999747276306,0.03659372578479878
10.706897,,2.1491503603055154e-08,11.166,0.7620000243186951,-0.022605045705715213
11.172414,,2.0311622877407505e-08,11.629,0.7179999947547913,-0.11900182777737024
11.637931,,1.9008391536972166e-08,12.091,0.7649999856948853,-0.01728755880295789
12.103447999999998,,1.758112732668779e-08,12.557,0.7820000052452087,0.0189430978507447
12.568966000000001,,1.6029560602860835e-08,13.021,0.7789999842643738,0.011502499372613835
13.034483,,1.4353853113914043e-08,13.487,0.6629999876022339,-0.2421978908100338
13.5,,1.2554616054668041e-08,13.951,0.7699999809265137,-0.010104358532633416
13.965517,,1.063292729843282e-08,14.417,0.7839999794960022,0.019363686814589935
14.431034,,8.590347709982313e-09,14.884,0.7630000114440918,-0.02739779277855119
14.896552,,6.428936441575148e-09,15.35,0.7839999794960022,0.01739833459367775
15.362069,,4.151265113583928e-09,15.815,0.7820000052452087,0.01217036173838108
15.827586000000002,,1.7604307810195498e-09,16.28,0.777999997138977,0.002697276221588013
16.293103,,7.399324126987998e-10,16.744,0.7839999794960022,0.015146724358000208
16.758621,,3.345642992958876e-09,17.206,0.7609999775886536,-0.03542914111608624
17.224138,,6.051963419600082e-09,17.674,0.765999972820282,-0.0248330935635619
17.689655,,8.853592957263932e-09,18.136,0.7829999923706055,0.0120863065470513
18.155172,,1.1744662245165034e-08,18.599,0.7620000243186951,-0.033598938419993674
18.62069,,1.4718729659030825e-08,19.069,0.7789999842643738,0.0036866316626440556
19.086207,,1.7768779555576233e-08,19.535,0.7620000243186951,-0.032926682270525316
19.551724,,2.0887222487072388e-08,20.0,0.7699999809265137,-0.014911759262970578
20.017241000000002,,2.4065897470328235e-08,20.466,0.7839999794960022,0.01631985953695819
20.482758999999998,,2.7296076390723083e-08,20.925,0.7609999775886536,-0.03293585519455685
20.948276,,3.056847061780102e-08,21.39,0.7870000004768372,0.024658734102494195
21.413793000000002,,3.3873239904359987e-08,21.855,0.7879999876022339,0.02785479984532343
21.87931,,3.720000363593612e-08,22.321,0.7850000262260437,0.022373212792373896
22.344828,,4.053785449209594e-08,22.784,0.7739999890327454,-0.0005338865496436651
22.810344999999998,,4.3875374575005214e-08,23.254,0.7580000162124634,-0.03436393321885481
23.275862,,4.720065405434489e-08,23.714,0.75,-0.050827763371812794
23.741379,,5.0501312370795194e-08,24.184,0.7820000052452087,0.019761340819195724
24.206897,,5.376452203301299e-08,24.647,0.7699999809265137,-0.005629811551679284
24.672414,,5.697703503529225e-08,25.11,0.7820000052452087,0.02112374858658577
25.137931,,6.012521191493124e-08,25.576,0.7620000243186951,-0.022001959651759675
25.603448,,6.319505345974296e-08,26.046,0.7820000052452087,0.021841218577875757
26.068966,,6.617223506715073e-08,26.504,0.7749999761581421,0.006675175653401485
26.534483,,6.904214374692222e-08,26.969,0.7649999856948853,-0.015215653212403351
27.0,,7.178991774982955e-08,27.435,0.7850000262260437,0.02806668620416056
27.465517,,7.440048879439894e-08,27.899,0.7620000243186951,-0.022510756892228388
27.931034,,7.685862685345115e-08,28.365,0.7739999890327454,0.0030004324044340183
28.396552,,7.914898745135631e-08,28.832,0.7850000262260437,0.026188491621517714
28.862069,,8.125616141185856e-08,29.298,0.765999972820282,-0.016103780011118386
29.327586,,8.3164726984994e-08,29.759,0.7620000243186951,-0.025809808193556
29.793103000000002,,8.48593042700594e-08,30.229,0.7839999794960022,0.021065528907098615
30.258620999999998,,8.632461183981887e-08,30.696,0.7879999876022339,0.0286953911732893
30.724138,,8.754552545919527e-08,31.158,0.781000018119812,0.012364280018753485
31.189655000000002,,8.8507138779618e-08,31.622,0.7820000052452087,0.01349976230671203
31.655172000000004,,8.919482587802459e-08,32.084,0.7749999761581421,-0.00272425334917072
32.12069,,8.959430549728166e-08,32.549,0.7620000243186951,-0.03192036536251549
32.586207,,8.969170683254091e-08,33.021,0.9150000214576721,0.30066844273084237
33.051724,,8.947363669582024e-08,33.479,0.7870000004768372,0.021212510596463764
33.517241000000006,,8.892724787894507e-08,33.951,0.777999997138977,0.0011880124482365315
33.982759,,8.804030852294585e-08,34.409,0.7590000033378601,-0.04044077126684381
34.448276,,8.680127229013272e-08,34.874,0.7620000243186951,-0.03395033559266002
34.913793,,8.519934912340665e-08,35.34,0.7739999890327454,-0.0076615345918665
35.37931,,8.32245763659692e-08,35.807,0.765999972820282,-0.024758760976277883
35.844828,,8.086789000351134e-08,36.273,0.7839999794960022,0.014966285757225209
36.310345,,7.812119578025059e-08,36.736,0.8399999737739563,0.13764357571150304
36.775862,,7.497743992989752e-08,37.199,0.7850000262260437,0.01863550181397961
37.241378999999995,,7.143067925282291e-08,37.667,0.7820000052452087,0.013035538242857218
37.706897000000005,,6.747615026142148e-08,38.136,0.765999972820282,-0.020798568653898043
38.172414,,6.311033710698285e-08,38.599,0.7839999794960022,0.01949795541127648
38.637931,,5.833103799334194e-08,39.062,0.765999972820282,-0.018613737397586528
39.103448,,5.313742977524571e-08,39.528,0.7580000162124634,-0.0349502200028902
39.568965999999996,,4.753013043279811e-08,39.995,0.781000018119812,0.01620595993000454
40.034483,,4.151125910758549e-08,40.454,0.7390000224113464,-0.07432791073054448
40.5,,3.508449338119732e-08,40.921,0.7760000228881836,0.007143166038418431
40.965517,,2.8255123472896658e-08,41.387,0.7620000243186951,-0.022631563137688437
41.431034,,2.103010303021541e-08,41.852,0.7749999761581421,0.006260282892579837
41.896552,,1.3418096184303613e-08,42.317,0.7960000038146973,0.05240751133714298
42.362069000000005,,5.429520541002656e-09,42.781,0.7820000052452087,0.022116329451605462
42.827586000000004,,2.9234142211121163e-09,43.244,0.4869999885559082,-0.6205733343796634
43.293103,,1.1626672473014363e-08,43.714,0.7879999876022339,0.03500781178822311
43.758621,,2.0664363802441244e-08,44.177,0.7559999823570251,-0.03509420579116655
44.224138,,3.0018719546683255e-08,44.64,0.7480000257492065,-0.053085047397910555
44.689655,,3.9670075006317137e-08,45.11,0.777999997138977,0.011553401833025691
45.155172,,4.959685764862166e-08,45.576,0.7570000290870667,-0.035055234866726064
45.620689999999996,,5.977558160140143e-08,46.038,0.7850000262260437,0.0249807710506496
46.086206999999995,,7.01808487285112e-08,46.504,0.7789999842643738,0.01086410416684733
46.551724,,8.078535656749499e-08,46.97,0.7599999904632568,-0.03162106763866781
47.017241,,9.155991339740702e-08,47.436,0.7829999923706055,0.01738421710448752
47.482759,,1.0247346069104531e-07,47.899,0.6700000166893005,-0.22988705178951443
47.948276,,1.1349310319048876e-07,48.365,0.7799999713897705,0.008731752882364965
48.413793,,1.245841468279749e-07,48.825,0.7919999957084656,0.03392869198920289
48.879310000000004,,1.3571014469578236e-07,49.291,0.7789999842643738,0.004776466162326313
49.344828,,1.4683295124889032e-07,49.759,0.9549999833106995,0.3875347061298296
49.810345,,1.5791278490277976e-07,50.221,0.7620000243186951,-0.03345917898988023
50.275862,,1.6890829916583247e-07,50.684,0.7720000147819519,-0.012006346266494513
50.741379,,1.7977666242138677e-07,51.154,0.7760000228881836,-0.003437795184106253
51.206897,,1.904736464486501e-07,51.618,0.7639999985694885,-0.029536125114280075
51.672414,,2.0095372374437328e-07,52.08,0.7689999938011169,-0.01840809807913954
52.137931,,2.1117017367849713e-07,52.547,0.7620000243186951,-0.033242508334485874
52.603448,,2.2107519748693075e-07,53.01,0.7710000276565552,-0.013050688886822367
53.068966,,2.306200420732607e-07,53.476,0.7630000114440918,-0.02974648158682638
53.534483,,2.3975513255857487e-07,53.94,0.765999972820282,-0.022350811304417864
54.0,,2.4843021348477807e-07,54.405,0.7839999794960022,0.017824534978637372
54.465517,,2.5659449854184783e-07,54.869,0.7870000004768372,0.02539097662700352
54.931034,,2.6419682865350273e-07,55.335,0.6209999918937683,-0.3351981424301417
55.396552,,2.711858382188164e-07,55.803,0.777999997138977,0.007916598995513521
55.862069,,2.7751012926949634e-07,56.269,0.7689999938011169,-0.010654376647758632
56.327586,,2.831184532639569e-07,56.729,0.75,-0.05107106703565982
56.793102999999995,,2.8795990020005256e-07,57.199,0.7820000052452087,0.019534183009718965
57.258621000000005,,2.919840946885143e-07,57.659,0.7609999775886536,-0.025444590877683856
57.724138,,2.951413985888624e-07,58.128,0.7760000228881836,0.00786950123112951
58.189655,,2.9738311976898036e-07,58.599,0.7760000228881836,0.00834633820295284
58.655172,,2.986617265087583e-07,59.055,0.7730000019073486,0.002115916235236567
59.120689999999996,,2.989310670273847e-07,59.52,0.7879999876022339,0.03492127515618819
59.586207,,2.9814659357312783e-07,59.988,0.7680000066757202,-0.008709135937937946
60.051724,,2.9626559047395224e-07,60.453,0.7870000004768372,0.03244672699595663
60.517241,,2.932474055072134e-07,60.919,0.7889999747276306,0.03639262568605316
60.982758999999994,,2.8905368390712986e-07,61.384,0.7549999952316284,-0.0382528824807877
61.448276,,2.836486042899047e-07,61.844,0.7789999842643738,0.013320059289593754
61.913793,,2.769991157384336e-07,62.31,0.765999972820282,-0.01583803792680154
62.379310000000004,,2.690751752516651e-07,62.781,0.7739999890327454,0.0006603949922907049
62.84482800000001,,2.598499847280473e-07,63.244,0.7820000052452087,0.017092447936934485
63.310345000000005,,2.4930022661828653e-07,63.707,0.7630000114440918,-0.025334808285300495
63.775862000000004,,2.3740629735003715e-07,64.169,0.7770000100135803,0.004128826758221951
64.241379,,2.2415253759632943e-07,64.64,0.7870000004768372,0.024905290537555982
64.706897,,2.0952745843070335e-07,65.103,0.7749999761581421,-0.0021900181924336707
65.172414,,1.9352396238534618e-07,65.568,0.7889999747276306,0.027446962308058126
65.637931,,1.7613955840421423e-07,66.031,0.7639999985694885,-0.027770059465252284
66.103448,,1.5737656966134468e-07,66.497,0.7409999966621399,-0.0784951242073116
66.56896599999999,,1.3724233319551855e-07,66.963,0.777999997138977,0.0016512743202049878
67.03448300000001,,1.1574939029630749e-07,67.428,0.7570000290870667,-0.04439706779253581
67.5,,9.291566656350745e-08,67.889,0.8119999766349792,0.07530822770862483
67.965517,,6.876464055221194e-08,68.355,0.859000027179718,0.17776687506202232
68.431034,,4.332549990948353e-08,68.821,0.7599999904632568,-0.0376765356417661
68.896552,,1.663328390591543e-08,69.288,0.7850000262260437,0.017203344274563787
69.362069,,1.1270988733497806e-08,69.756,0.781000018119812,0.009058786319221763
69.827586,,4.034020778968136e-08,70.218,0.7599999904632568,-0.03598432486939812
70.293103,,7.052107638230694e-08,70.681,0.7889999747276306,0.02802121052400062
70.75862099999999,,1.0175403374300183e-07,71.151,0.7699999809265137,-0.012457387470813654
71.22413800000001,,1.3397319697899274e-07,71.614,0.7990000247955322,0.051702409349106006
71.689655,,1.6710632285490127e-07,72.076,0.7670000195503235,-0.0170022789204448
72.15517200000001,,2.0107479059344364e-07,72.542,0.7829999923706055,0.01887003018787788
72.62069,,2.357936066640923e-07,73.006,0.7860000133514404,0.026390986937970907
73.086207,,2.711714324922384e-07,73.472,0.7580000162124634,-0.0336853310607851
73.551724,,3.071106359799757e-07,73.936,0.7480000257492065,-0.05463431813463195
74.017241,,3.435073676832433e-07,74.402,0.7170000076293945,-0.12145011222559565
74.482759,,3.80251662438667e-07,74.869,0.7699999809265137,-0.005396458027204485
74.94827599999999,,4.17227567176993e-07,75.335,0.7870000004768372,0.03207330320085812
75.41379300000001,,4.543132955984978e-07,75.8,0.7749999761581421,0.006198387982084568
75.87931,,4.913814103191875e-07,76.265,0.7689999938011169,-0.006776053080535417
76.344828,,5.282990330249811e-07,76.726,0.7770000100135803,0.0105764990012529
76.810345,,5.649280830944459e-07,77.189,0.7620000243186951,-0.0223510521475168
77.275862,,6.011255450690767e-07,77.659,0.7620000243186951,-0.022762258549848563
77.741379,,6.367437652636609e-07,78.121,0.7609999775886536,-0.02550271373154181
78.206897,,6.716307777180451e-07,78.587,0.7820000052452087,0.019554843195821084
78.67241399999999,,7.056306595957341e-07,79.053,0.7630000114440918,-0.022643960826844667
79.137931,,7.385839160343553e-07,79.518,0.781000018119812,0.015681876965308
79.603448,,7.703278943482621e-07,79.984,0.781000018119812,0.01473438785828661
80.068966,,8.006972273746281e-07,80.45,0.781000018119812,0.013758674670327835
80.53448300000001,,8.295243056415036e-07,80.914,0.8040000200271606,0.06289388635515673
81.0,,8.566397779196876e-07,81.38,0.7820000052452087,0.014021847932047481
81.465517,,8.818730796001851e-07,81.84,0.7900000214576721,0.030569538644096624
81.931034,,9.050529882157333e-07,82.306,0.902999997138977,0.27596393177327316
82.396552,,9.260082052986987e-07,82.769,0.7879999876022339,0.02474071425547488
82.86206899999999,,9.445679636389018e-07,83.239,0.7620000243186951,-0.03245108986225279
83.327586,,9.605626588739491e-07,83.7,0.7590000033378601,-0.0393900565984546
83.79310299999999,,9.738245042118271e-07,84.17,0.777999997138977,0.001756354500468293
84.258621,,9.841882069512322e-07,84.633,0.7620000243186951,-0.03318788646424731
84.72413800000001,,9.914916653297845e-07,85.096,0.7820000052452087,0.010462971148562233
85.189655,,9.955766840943378e-07,85.561,0.7670000195503235,-0.02197804481354546
85.65517200000001,,9.96289707051519e-07,86.024,0.7789999842643738,0.0045571557534669765
86.12069,,9.934825647208866e-07,86.49,0.7630000114440918,-0.029769577413067506
86.586207,,9.870132350781778e-07,86.955,0.7739999890327454,-0.005149631132834633
87.051724,,9.76746615242541e-07,87.42,0.7570000290870667,-0.041428951431643844
87.517241,,9.625553018299577e-07,87.885,0.7770000100135803,0.002981109917468301
87.98275899999999,,9.443203775658007e-07,88.351,0.746999979019165,-0.06148742910931273
88.448276,,9.219322016232084e-07,88.818,0.777999997138977,0.006968534047168974
88.913793,,8.952912010312707e-07,89.284,0.7699999809265137,-0.009543221055884659
89.37931,,8.643086603785e-07,89.747,0.753000020980835,-0.045690454917474546
89.844828,,8.289075069233113e-07,90.21,0.7950000166893005,0.04664834709032785
90.310345,,7.89023088114867e-07,90.674,0.7649999856948853,-0.01795378553165008
90.775862,,7.446039384252773e-07,91.143,0.7820000052452087,0.019740355995748353
91.241379,,6.956125322984045e-07,91.604,0.7699999809265137,-0.005866027325383985
91.706897,,6.42026019932026e-07,92.074,0.7680000066757202,-0.009821020409749736
92.17241399999999,,5.838369425295018e-07,92.539,0.7789999842643738,0.014399686568961694
92.63793100000001,,5.21053923584989e-07,92.999,0.7649999856948853,-0.015999206106559763
93.103448,,4.5370233270327757e-07,93.465,0.7839999794960022,0.02534163734332337
93.568966,,3.818249184020996e-07,93.929,0.7839999794960022,0.02513529588608612
94.03448300000001,,3.0548240630191033e-07,94.394,0.777999997138977,0.011711367131647521
94.5,,2.247540590762429e-07,94.859,0.765999972820282,-0.014919550732693425
94.965517,,1.3973819451539426e-07,95.325,0.7689999938011169,-0.008991002801908577
95.431034,,5.055265804797675e-08,95.792,0.7649999856948853,-0.018414966716784338
95.896552,,4.2664753930682694e-08,96.258,0.7739999890327454,0.00040331836937817426
96.36206899999999,,1.3975592355665805e-07,96.726,0.7820000052452087,0.016987086422957057
96.827586,,2.405420974240512e-07,97.188,0.9369999766349792,0.35380511299656575
97.293103,,3.4482363249656675e-07,97.651,0.7820000052452087,0.015243993126296816
97.758621,,4.523798055002671e-07,98.121,0.7599999904632568,-0.033532528981244675
98.224138,,5.629686892184783e-07,98.579,0.765999972820282,-0.021261417800259995
98.689655,,6.763270990191086e-07,99.05,0.7649999856948853,-0.024172247862694847
99.155172,,7.921706128381481e-07,99.515,0.7820000052452087,0.012222737220480053
99.62069,,9.101936677205326e-07,99.974,0.7820000052452087,0.011689828921844813
100.086207,,1.0300697358806226e-06,100.44,0.7680000066757202,-0.019219761008736028
100.551724,,1.1514515830890627e-06,100.906,0.777999997138977,0.0022937123788728973
101.017241,,1.273971612020575e-06,101.372,0.7559999823570251,-0.04576697958350044
101.482759,,1.397242293008207e-06,101.837,0.8650000095367432,0.19172270282849802
101.948276,,1.52085668444364e-06,102.303,0.7820000052452087,0.011059853973050331
102.413793,,1.6443890448403716e-06,102.766,0.7739999890327454,-0.006062933578320361
102.87931,,1.7673955383369833e-06,103.236,0.7649999856948853,-0.025234720530674274
103.344828,,1.8894150351614206e-06,103.696,0.7739999890327454,-0.005075002083162117
103.810345,,2.009970008304448e-06,104.166,0.7620000243186951,-0.03056790363678217
104.275862,,2.128567527361433e-06,104.629,0.5709999799728394,-0.44596368173139694
104.741379,,2.244700350196717e-06,105.091,0.8209999799728394,0.09947621818713533
105.206897,,2.3578481127644275e-06,105.557,0.7839999794960022,0.019677404321906802
105.672414,,2.467478617084162e-06,106.02,0.8159999847412109,0.09021936486787387
106.13793100000001,,2.573049217020065e-06,106.486,0.7820000052452087,0.01696044148246382
106.603448,,2.674008301148045e-06,106.951,0.7409999966621399,-0.07158416769674414
107.068966,,2.7697968716189675e-06,107.417,0.765999972820282,-0.016397216182711952
107.534483,,2.8598502175363295e-06,107.882,0.7850000262260437,0.025638634665138264
108.0,,2.943599680966086e-06,108.347,0.7839999794960022,0.024004822030599355
108.46551699999999,,3.0204745132848473e-06,108.815,0.781000018119812,0.0179022953420375
108.931034,,3.08990381915161e-06,109.28,0.7630000114440918,-0.02100428178546203
109.396552,,3.1513185849586497e-06,109.744,0.7789999842643738,0.014030004753185131
109.862069,,3.2041537881803077e-06,110.206,0.7609999775886536,-0.02514762238394592
110.32758600000001,,3.2478505835954005e-06,110.674,0.7620000243186951,-0.023069676577106256
110.793103,,3.2818585619111946e-06,111.135,0.7630000114440918,-0.02112763097133456
111.258621,,3.3056380758657057e-06,111.603,0.8360000252723694,0.13755018543600306
111.724138,,3.318662628431953e-06,112.066,0.7839999794960022,0.023782396483552397
112.189655,,3.320421317294271e-06,112.531,0.7630000114440918,-0.02254826410956096
112.655172,,3.3104213293144337e-06,112.995,0.7480000257492065,-0.055893318652604544
113.12069,,3.288190478255874e-06,113.461,0.7860000133514404,0.0261628893396961
113.586207,,3.2532797785893714e-06,113.929,0.6669999957084656,-0.23387570275978256
114.051724,,3.2052660477650565e-06,114.395,0.7850000262260437,0.022399960324622156
114.51724100000001,,3.143754528905214e-06,114.86,0.5910000205039978,-0.4010667104507028
114.982759,,3.0683815254521575e-06,115.325,0.7630000114440918,-0.027129624840412613
115.448276,,2.97881703889721e-06,115.792,0.7620000243186951,-0.03005460352781846
115.913793,,2.8747674003226034e-06,116.25,0.7620000243186951,-0.030731531479197924
116.37931,,2.7559778861099084e-06,116.718,0.7609999775886536,-0.03349783947179963
116.84482799999999,,2.6222353078084217e-06,117.18,0.8029999732971191,0.05752529620018513
117.310345,,2.473370565816899e-06,117.648,0.777999997138977,0.0027016106861837033
117.77586199999999,,2.309261156214151e-06,118.111,0.8199999928474426,0.09398101896056837
118.241379,,2.12983361978044e-06,118.577,0.8019999861717224,0.05468225837087786
118.70689700000001,,1.935065921984416e-06,119.039,0.777999997138977,0.002454203254603776
119.172414,,1.724989752471587e-06,119.505,0.765999972820282,-0.02349121512588035
119.63793100000001,,1.4996927323821407e-06,119.97,0.7620000243186951,-0.03187563240033276
120.103448,,1.2593205176503559e-06,120.435,0.7820000052452087,0.012148843047104788
120.568966,,1.0040787862969204e-06,120.9,0.777999997138977,0.0039940923097949825
121.034483,,7.342350976211862e-07,121.366,0.7609999775886536,-0.0323917868250053
121.5,,4.50120611134699e-07,121.833,0.6629999876022339,-0.2451789470822901
121.96551699999999,,1.5213165305215686e-07,122.299,0.796999990940094,0.04752679787519001
122.431034,,1.5926888182689817e-07,122.762,0.7739999890327454,-0.0017890207932572933
122.896552,,4.83550304951098e-07,123.224,0.7580000162124634,-0.035849856103515196
123.362069,,8.201130975633732e-07,123.692,0.8980000019073486,0.26994103070692954
123.827586,,1.168288074804147e-06,124.155,0.7820000052452087,0.01796011843487277
124.293103,,1.527335762012244e-06,124.625,0.7789999842643738,0.012105197488933215
124.758621,,1.8964459946105692e-06,125.088,0.765999972820282,-0.015620185826965793
125.22413800000001,,2.274737752658492e-06,125.553,0.7889999747276306,0.03498408589604062
125.68965500000002,,2.6612592407950694e-06,126.02,0.765999972820282,-0.014745682293970974
126.15517200000001,,3.0549882238857696e-06,126.486,0.7850000262260437,0.02690054575182612
126.62069000000001,,3.454832628219348e-06,126.947,0.7820000052452087,0.020481795945360422
127.086207,,3.859631417580308e-06,127.412,0.7870000004768372,0.031354702151863874
127.55172400000001,,4.26815575294542e-06,127.877,0.7760000228881836,0.007232319699088711
128.017241,,4.679110443919678e-06,128.343,0.8119999766349792,0.0853744290565352
128.48275900000002,,5.091135699337783e-06,128.811,0.7760000228881836,0.006531202740360198
128.948276,,5.502809183711613e-06,129.269,0.7749999761581421,0.0038292266520295482
129.413793,,5.9126483854026375e-06,129.74,0.7739999890327454,0.0010308722736727155
129.87931,,6.319113301541006e-06,130.202,0.777999997138977,0.009047618895158541
130.344828,,6.720609443801013e-06,130.67,0.7829999923706055,0.01918575226192359
130.81034499999998,,7.11549116817653e-06,131.132,0.765999972820282,-0.018641346377613756
131.275862,,7.502065330880974e-06,131.6,0.7480000257492065,-0.058659315996584825
131.741379,,7.878595271425757e-06,132.062,0.7689999938011169,-0.013699312404073575
132.206897,,8.24330512281057e-06,132.528,0.777999997138977,0.0051519768215547495
132.67241399999997,,8.59438444759009e-06,132.992,0.777999997138977,0.0044536846861992834
133.13793099999998,,8.929993197366893e-06,133.458,0.7620000243186951,-0.03102397411158484
133.60344800000001,,9.248266992001753e-06,133.925,0.7620000243186951,-0.03154644629199292
134.06896600000002,,9.54732271353284e-06,134.391,0.781000018119812,0.009437964967516456
134.53448300000002,,9.825264408457353e-06,134.855,0.7839999794960022,0.015689574617940644
135.0,,1.0080189490656019e-05,135.314,0.777999997138977,0.0024680721499510247
135.465517,,1.0310195235835905e-05,135.784,0.7950000166893005,0.03949484616474218
135.931034,,1.0513385556934016e-05,136.246,0.777999997138977,0.0025874237142508153
136.396552,,1.0687878048466744e-05,136.714,0.7860000133514404,0.02028233005011149
136.862069,,1.0831811286332858e-05,137.177,0.7639999985694885,-0.027254565373977004
137.327586,,1.0943352368084555e-05,137.644,0.7649999856948853,-0.024567097699729038
137.793103,,1.1020704677176848e-05,138.106,0.8939999938011169,0.25708988191447785
138.258621,,1.1062115853195201e-05,138.572,0.8069999814033508,0.0682459484331695
138.724138,,1.1065885948549864e-05,139.035,0.7860000133514404,0.023258129749289275
139.189655,,1.1030375750618075e-05,139.501,0.7820000052452087,0.01534692117733882
139.655172,,1.0954015246818015e-05,139.965,0.7940000295639038,0.04230927044025098
140.12069,,1.0835312208616552e-05,140.432,1.0529999732971191,0.6073933969612026
140.586207,,1.067286086901264e-05,140.899,0.7649999856948853,-0.019268106386892643
141.05172399999998,,1.0465350666605624e-05,141.364,0.7820000052452087,0.018503869821313437
141.51724099999998,,1.021157502795916e-05,141.829,0.7839999794960022,0.023513969354217838
141.982759,,9.910440158613318e-06,142.294,0.7870000004768372,0.030600960076780648
142.44827600000002,,9.560973811786299e-06,142.755,0.7789999842643738,0.01360372187645846
142.913793,,9.162334002549876e-06,143.225,0.7870000004768372,0.031332350527726614
143.37931,,8.713817634065774e-06,143.688,0.7609999775886536,-0.025155518459564437
143.844828,,8.214869001340779e-06,144.15,0.8140000104904175,0.09032283885297956
144.310345,,7.665088136903288e-06,144.618,0.7820000052452087,0.020469169484403107
144.77586200000002,,7.06423896183022e-06,145.081,0.777999997138977,0.011474677040295986
145.241379,,6.412257204667766e-06,145.547,0.7549999952316284,-0.03904985598916485
145.706897,,5.709258049999305e-06,146.011,0.7609999775886536,-0.026517456779603477
146.172414,,4.955543477725778e-06,146.477,0.781000018119812,0.016409032570325666
146.637931,,4.151609253544971e-06,146.943,0.7720000147819519,-0.003931898403577637
147.103448,,3.2981515306531054e-06,147.409,0.7829999923706055,0.019236513711328798
147.568966,,2.3960730223515826e-06,147.874,0.7990000247955322,0.05325988731088688
148.034483,,1.4464887050302071e-06,148.34,0.7630000114440918,-0.026019011955452788
148.5,,4.507310109220458e-07,148.799,0.7549999952316284,-0.04428308614574658
148.965517,,5.896455299096522e-07,149.265,0.765999972820282,-0.021115033207399082
149.43103399999998,,1.672860238679443e-06,149.733,0.7609999775886536,-0.03274251757862368
149.89655199999999,,2.7969028680439975e-06,150.195,0.7799999713897705,0.008003657826780697
150.362069,,3.959530852760349e-06,150.659,0.7739999890327454,-0.005609421617948851
150.82758600000003,,5.158267269588669e-06,151.128,0.7760000228881836,-0.0016691470370539016
151.293103,,6.390399544335342e-06,151.6,0.7620000243186951,-0.032450302904210956
151.758621,,7.652978942905231e-06,152.055,0.7609999775886536,-0.03476362762777501
152.224138,,8.942820882029403e-06,152.52,0.765999972820282,-0.02385518909251477
152.68965500000002,,1.0256506093952822e-05,152.985,0.8690000176429749,0.20071271086449144
153.155172,,1.1590382677802897e-05,153.45,0.7850000262260437,0.018022328010454624
153.62069,,1.2940569068611849e-05,153.918,0.7820000052452087,0.011940754435369884
154.086207,,1.4302957953032113e-05,154.383,0.7559999823570251,-0.04412766951025142
154.551724,,1.5673221158663144e-05,154.847,0.9440000057220459,0.3661416525437344
155.017241,,1.7046815541599584e-05,155.313,0.7739999890327454,-0.0034567531389422274
155.482759,,1.8418989894314832e-05,155.777,0.7699999809265137,-0.011337730094819597
155.948276,,1.9784792893311475e-05,156.239,0.7879999876022339,0.028743994661201294
156.413793,,2.1139082103102297e-05,156.71,0.7950000166893005,0.044866455919328176
156.87931,,2.247653405003492e-05,157.173,0.7820000052452087,0.0173945406980965
157.34482799999998,,2.3791655376242502e-05,157.64,0.7860000133514404,0.026911275593363357
157.81034499999998,,2.507879508059593e-05,158.103,0.7630000114440918,-0.022469835202876876
158.275862,,2.6332157849954392e-05,158.569,0.7789999842643738,0.01301853184982091
158.741379,,2.7545818480266162e-05,159.031,0.7839999794960022,0.024424362070437338
159.20689700000003,,2.8713737383166318e-05,159.496,0.7710000276565552,-0.0035187950568951096
159.672414,,2.9829777169659504e-05,159.962,0.7749999761581421,0.005429119802177468
160.137931,,3.088772029827214e-05,160.428,0.7630000114440918,-0.020634644089247076
160.60344800000001,,3.188128777071798e-05,160.892,0.7990000247955322,0.057720964645398026
161.06896600000002,,3.2804158853653254e-05,161.357,0.765999972820282,-0.01440324975293331
161.534483,,3.3649991800513356e-05,161.822,0.7950000166893005,0.04840326494710335
162.0,,3.441244554273334e-05,162.288,0.781000018119812,0.017394002314854176
162.465517,,3.5085202314871616e-05,162.751,0.9200000166893005,0.3196028773768967
162.931034,,3.566199117329316e-05,163.221,0.765999972820282,-0.01662618955884629
163.396552,,3.613661236313889e-05,163.681,0.7789999842643738,0.01090508286739231
163.862069,,3.650296248332679e-05,164.144,0.7710000276565552,-0.007367325305536599
164.327586,,3.6755060394313224e-05,164.614,0.765999972820282,-0.019129956298612208
164.793103,,3.688707380830568e-05,165.077,0.7900000214576721,0.03228980561994314
165.258621,,3.689334649657846e-05,165.543,0.7760000228881836,0.000949877776846241
165.72413799999998,,3.676842604351822e-05,166.007,0.7749999761581421,-0.0020123850681303982
166.189655,,3.65070920720351e-05,166.472,0.7620000243186951,-0.031038788861470174
166.655172,,3.6104384860037325e-05,166.937,0.7689999938011169,-0.01639108132467106
167.12069,,3.5555634262801806e-05,167.403,0.7820000052452087,0.01144929582941557
167.58620699999997,,3.485648885130125e-05,167.869,0.7680000066757202,-0.019397442848492923
168.051724,,3.400294517189067e-05,168.335,0.777999997138977,0.0021908791745068484
168.517241,,3.299137702823439e-05,168.8,0.7820000052452087,0.010861603089762953
168.98275900000002,,3.181856468199063e-05,169.265,0.7599999904632568,-0.03695666816149818
169.44827600000002,,3.0481723864587037e-05,169.729,0.7789999842643738,0.004702111476246892
169.913793,,2.897853448843946e-05,170.191,0.7649999856948853,-0.025389966315570812
170.37931,,2.7307168942211465e-05,170.659,0.7789999842643738,0.005652335584800716
170.844828,,2.5466319851205786e-05,171.121,0.8529999852180481,0.16753084316173603
171.310345,,2.3455227180745195e-05,171.587,0.7870000004768372,0.024497166121413096
171.775862,,2.12737045574619e-05,172.053,0.7630000114440918,-0.026959699862414126
172.241379,,1.892216468079488e-05,172.519,0.7820000052452087,0.015311089299609539
172.706897,,1.640164369471691e-05,172.985,0.6959999799728394,-0.17115939400058414
173.172414,,1.3713824387799959e-05,173.451,0.7829999923706055,0.019264193058023894
173.637931,,1.0861058088201837e-05,173.911,0.7689999938011169,-0.01039439573304054
174.103448,,7.846385119040791e-06,174.376,0.7820000052452087,0.018706891445556845
174.568966,,4.673553678939496e-06,174.841,0.7789999842643738,0.01286171036102805
175.034483,,1.3470370122870728e-06,175.306,0.765999972820282,-0.014879870877478558
175.5,,2.127951265992706e-06,175.769,0.7789999842643738,0.013894833684639861
175.96551699999998,,5.74544382564705e-06,176.239,0.7680000066757202,-0.009761053387238839
176.43103399999998,,9.498708389511134e-06,176.7,0.7649999856948853,-0.016141078129969216
176.896552,,1.338023874660294e-05,177.169,0.777999997138977,0.012178846569895721
177.36206900000002,,1.7381748139046555e-05,177.633,0.8040000200271606,0.06866340198579053
177.827586,,2.1494165149098354e-05,178.096,0.777999997138977,0.011705670912008938
178.293103,,2.570763220910002e-05,178.561,0.7680000066757202,-0.01053727948128952
178.758621,,3.0011506853145322e-05,179.025,0.45100000500679016,-0.7017620982642626
179.224138,,3.4394365824612685e-05,179.491,0.7870000004768372,0.029547164373676094
179.68965500000002,,3.884401214847366e-05,179.958,0.7620000243186951,-0.025730922551818903
180.155172,,4.334748527143109e-05,180.424,0.7850000262260437,0.023502682776448274
180.62069,,4.789107436646381e-05,180.888,0.7860000133514404,0.024770814357676373
181.086207,,5.246033489125422e-05,181.354,0.7620000243186951,-0.02843342549119561
181.551724,,5.7040108482248056e-05,181.818,0.8610000014305115,0.18636001415532405
182.01724099999998,,6.16145462577444e-05,182.284,0.7649999856948853,-0.023629470439849767
182.482759,,6.616713559443954e-05,182.744,0.7580000162124634,-0.03964075935159498
182.948276,,7.068073043225653e-05,183.214,0.777999997138977,0.0032720068417785176
183.413793,,7.513758515209022e-05,183.677,0.7730000019073486,-0.008159420951134259
183.87931,,7.951939206029608e-05,184.14,0.8709999918937683,0.2049509606397652
184.34482799999998,,8.38073225023612e-05,184.608,0.7820000052452087,0.01080931372385564
184.81034499999998,,8.798207161623434e-05,185.07,0.7630000114440918,-0.030665985478252198
185.27586200000002,,9.202390672327542e-05,185.536,0.7799999713897705,0.006451150291326627
185.74137900000002,,9.591271934173383e-05,186.002,0.7649999856948853,-0.025989986614007542
186.206897,,9.962808079410433e-05,186.468,0.765999972820282,-0.023422393678641528
186.672414,,0.00010314930136566342,186.933,0.75,-0.057754365164529836
187.137931,,0.00010645549295698756,187.399,0.5149999856948853,-0.5690949422404927
187.60344800000001,,0.00010952563515833008,187.859,0.7720000147819519,-0.008448806631177329
188.06896600000002,,0.0001123386446584197,188.325,0.8399999737739563,0.14050737716661515
188.534483,,0.00011487344788457885,188.792,0.7879999876022339,0.028082038785442458
189.0,,0.00011710905675508432,189.258,0.7829999923706055,0.01808184098127673
189.465517,,0.00011902464740844931,189.719,0.7720000147819519,-0.004990764183446598
189.931034,,0.0001205996417578424,190.188,0.7689999938011169,-0.01066324451418834
190.39655199999999,,0.00012181379170222198,190.651,0.7870000004768372,0.029360022548194753
190.862069,,0.00012264726580900768,191.121,0.7620000243186951,-0.0243796635751121
191.327586,,0.00012308073826628648,191.579,0.7820000052452087,0.019815695866816672
191.793103,,0.00012309547988571814,192.049,0.7580000162124634,-0.03197324659348289
192.25862099999998,,0.00012267345092052115,192.515,0.7860000133514404,0.02938803062006203
192.72413799999998,,0.00012179739544624861,192.981,0.781000018119812,0.018703523724892885
193.189655,,0.00012045093703556694,193.439,0.7789999842643738,0.0143981033729041
193.655172,,0.00011861867544199442,193.904,0.7609999775886536,-0.02492475994109212
194.12069000000002,,0.0001162862839916113,194.369,0.7739999890327454,0.003134088003728364
194.586207,,0.00011344060736618675,194.837,0.765999972820282,-0.014707189352742133
195.051724,,0.00011006975944605165,195.302,0.765999972820282,-0.015255047187564909
195.517241,,0.00010616322086645413,195.77,0.7839999794960022,0.023294117396895728
195.98275900000002,,0.00010171193592713933,196.232,0.7630000114440918,-0.023221704457253065
196.448276,,9.670840848157415e-05,196.695,0.7850000262260437,0.023870347294266188
196.913793,,9.114679641966421e-05,197.165,0.7699999809265137,-0.009695518627305215
197.37931,,8.50230043460628e-05,197.629,0.7639999985694885,-0.023673818690856174
197.844828,,7.833477404532741e-05,198.091,0.824999988079071,0.1083258259888357
198.310345,,7.108177231531326e-05,198.557,0.7860000133514404,0.022498610701382815
198.775862,,6.326567574138434e-05,199.021,0.7820000052452087,0.012988476551842189
199.241379,,5.489025197634584e-05,199.487,0.746999979019165,-0.0639721048395729
199.706897,,4.596143708453286e-05,199.951,0.7599999904632568,-0.036248741401065473
200.172414,,3.648740850330443e-05,200.417,0.765999972820282,-0.02364854378630659
200.63793099999998,,2.6478653171360805e-05,200.882,0.7839999794960022,0.01523863555602766
201.103448,,1.5948030370898244e-05,201.347,0.7789999842643738,0.0041711766303154305
201.568966,,4.9108288297072724e-06,201.811,0.781000018119812,0.008514482535576766
202.034483,,6.6151823700244725e-06,202.277,0.7620000243186951,-0.03273344381357618
202.5,,1.8609709527162092e-05,202.74,0.7950000166893005,0.03946444466532436
202.965517,,3.104989714831349e-05,203.21,0.8009999990463257,0.05298666423922115
203.431034,,4.391029830703194e-05,203.674,0.7699999809265137,-0.013966836629740055
203.896552,,5.716285296928879e-05,204.136,0.7870000004768372,0.023770400645945766
204.36206900000002,,7.077687470961065e-05,204.599,0.7720000147819519,-0.008115601290266554
204.827586,,8.47190462310181e-05,205.069,0.7730000019073486,-0.005074623370514236
205.293103,,9.895342408871132e-05,205.535,0.8040000200271606,0.06336804126294031
205.758621,,0.00011344145300228717,205.995,0.777999997138977,0.007642239155093836
206.224138,,0.00012814199012411293,206.461,0.8389999866485596,0.14144559780670765
206.689655,,0.0001430113396123005,206.926,0.7570000290870667,-0.0363392541909223
207.155172,,0.00015800329783550478,207.391,0.7820000052452087,0.018921084194794647
207.62069,,0.00017306920951349827,207.859,0.777999997138977,0.01090477475151902
208.086207,,0.0001881580350721515,208.324,0.7620000243186951,-0.023373158729035177
208.551724,,0.0002032164294640736,208.793,0.7620000243186951,-0.022929748884366767
209.01724099999998,,0.000218188832676756,209.251,0.8009999990463257,0.06233025956049824
209.482759,,0.00023301757211862892,209.714,0.43799999356269836,-0.7283920562639993
209.948276,,0.0002476429770400167,210.184,0.7820000052452087,0.02101485631174019
210.413793,,0.00026200350511059486,210.645,0.796999990940094,0.05347844339078454
210.87930999999998,,0.00027603588123765744,211.114,0.7889999747276306,0.03567946798485553
211.344828,,0.00028967524867034813,211.58,0.7850000262260437,0.02645348957882408
211.810345,,0.0003028553323940549,212.043,0.7580000162124634,-0.0330077626526805
212.27586200000002,,0.00031550861477648866,212.509,0.777999997138977,0.00982080406355104
212.741379,,0.0003275665233826383,212.975,0.7549999952316284,-0.041115829680617846
213.206897,,0.0003389596308299133,213.434,0.7630000114440918,-0.024571843203388254
213.672414,,0.00034961786650744233,213.899,0.7739999890327454,-0.0015215859263219226
214.137931,,0.00035947073993480725,214.365,0.7720000147819519,-0.006793969680632214
214.60344800000001,,0.00036844757548557666,214.829,0.7829999923706055,0.016284727926069387
215.068966,,0.0003764777581499813,215.295,0.7689999938011169,-0.01504614765026327
215.534483,,0.00038349098995909067,215.762,0.7870000004768372,0.023422293012602673
216.0,,0.0003894175566400542,216.225,0.7770000100135803,0.0009945671615536652
216.465517,,0.0003941886040185096,216.696,0.7820000052452087,0.011372475340473117
216.93103399999998,,0.0003977364236303122,217.158,0.7739999890327454,-0.006430445468713034
217.39655199999999,,0.00039999474695046614,217.621,0.777999997138977,0.002063357023570542
217.862069,,0.0004008990475927382,218.084,0.675000011920929,-0.2224007833951835
218.327586,,0.00040038685077908604,218.55,0.7829999923706055,0.012987402355763573
218.793103,,0.0003983980493239443,219.021,0.8769999742507935,0.21803259329330363
219.25862099999998,,0.0003948752253247883,219.479,0.7739999890327454,-0.005962497008904155
219.724138,,0.0003897639766974542,219.944,0.7860000133514404,0.02072571403964092
220.18965500000002,,0.0003830132476426595,220.41,0.7620000243186951,-0.03089823104887502
220.65517200000002,,0.0003745756620792613,220.877,0.7900000214576721,0.030865485432246195
221.12069,,0.00036440785903025537,221.342,0.7649999856948853,-0.0227654123181893
221.586207,,0.0003524708288995904,221.807,0.7680000066757202,-0.015346960522035068
222.051724,,0.00033873024953179527,222.273,0.7730000019073486,-0.003552357885149214
222.517241,,0.00032315682090244076,222.736,0.675000011920929,-0.21616966555128522
222.98275900000002,,0.0003057265972458373,223.199,0.7820000052452087,0.017795525345376758
223.448276,,0.00028642131538735477,223.667,0.7820000052452087,0.018580387951990806
223.913793,,0.0002652287180115983,224.129,0.7599999904632568,-0.028652697938547637
224.37931,,0.0002421428705646356,224.599,0.7870000004768372,0.03075858139786875
224.844828,,0.00021716447045880873,225.062,0.8029999732971191,0.06607795660343418
225.31034499999998,,0.00019030114722263903,225.527,0.7820000052452087,0.020647367778078324
225.775862,,0.00016156775221619823,225.992,0.7820000052452087,0.020818053625895738
226.241379,,0.00013098663651430227,226.457,0.7620000243186951,-0.02274030312949888
226.706897,,9.858791554622357e-05,226.922,0.7620000243186951,-0.022882722905382527
227.172414,,6.440971907158189e-05,227.388,0.7739999890327454,0.002966180973307989
227.63793099999998,,2.8498425067939157e-05,227.855,0.765999972820282,-0.014900408238223816
228.103448,,9.091123893407818e-06,228.32,0.781000018119812,0.0172137174261714
228.56896600000002,,4.829542320076845e-05,228.781,0.7820000052452087,0.018716689379972822
229.03448300000002,,8.904212909031325e-05,229.251,0.7649999856948853,-0.019084596842956884
229.5,,0.0001312499032577001,229.714,0.8199999928474426,0.09991287308362183
229.965517,,0.00017482828055801812,230.177,0.7639999985694885,-0.02295704678961937
230.431034,,0.00021967756112934903,230.645,0.7649999856948853,-0.021655253396214342
230.896552,,0.00026568872823997796,231.107,0.800000011920929,0.05373649735544484
231.362069,,0.00031274339311832434,231.573,0.765999972820282,-0.0211553397887684
231.827586,,0.0003607137679765897,232.036,0.7889999747276306,0.028204527843142816
232.293103,,0.00040946266838264375,232.502,0.7620000243186951,-0.03127638949045017
232.758621,,0.00045884354607145705,232.966,0.7789999842643738,0.005214717128729786
233.224138,,0.0005087005532212096,233.431,0.7680000066757202,-0.019167815304394972
233.689655,,0.0005588686391495024,233.896,0.7820000052452087,0.011057198822295803
234.155172,,0.000609173680303573,234.362,0.7770000100135803,3.784738798470245e-05
234.62069,,0.0006594326443195461,234.829,0.7889999747276306,0.02620936763643772
235.086207,,0.0007094537888222232,235.295,0.7580000162124634,-0.041148319129839114
235.55172399999998,,0.0007590368955502505,235.755,0.7480000257492065,-0.06260893636886855
236.01724099999998,,0.0008079735403129676,236.225,0.7910000085830688,0.03153373246553453
236.482759,,0.0008560473991637378,236.688,0.7630000114440918,-0.028886403282773462
236.94827600000002,,0.0009030345909876513,237.151,0.7889999747276306,0.028443586873082616
237.413793,,0.000948704056536592,237.614,0.7590000033378601,-0.036149126208831955
237.87931,,0.0009928179739181356,238.084,0.7839999794960022,0.019141058002071693
238.344828,,0.0010351322105700907,238.549,0.7630000114440918,-0.02575500450435002
238.810345,,0.0010753968115220468,239.013,0.7940000295639038,0.04264369197076009
239.27586200000002,,0.0011133565231921058,239.479,0.7620000243186951,-0.026234219508457814
239.741379,,0.00114875135167104,239.944,0.7789999842643738,0.011593504541261604
240.206897,,0.0011813171550085532,240.409,0.7760000228881836,0.005775683437043868
240.672414,,0.0012107862697248823,240.874,0.7710000276565552,-0.004494439561644511
241.137931,,0.0012368881708224972,241.34,0.7630000114440918,-0.02141519915016176
241.603448,,0.0012593501619943299,241.799,0.7889999747276306,0.03560780882317802
242.068966,,0.0012778980922474813,242.265,0.7620000243186951,-0.02297897218949275
242.534483,,0.0012922570997058625,242.733,0.765999972820282,-0.014177057724667328
243.0,,0.0013021523875821315,243.195,0.7820000052452087,0.020617040754825875
243.465517,,0.0013073100309539253,243.659,0.7730000019073486,0.0007957694966894992
243.93103399999998,,0.0013074577988348877,244.129,0.7879999876022339,0.033120104696814694
244.39655199999999,,0.001302325977433747,244.599,0.7739999890327454,0.0021330992034358045
244.862069,,0.001291648210318165,245.054,0.777999997138977,0.010246395078170075
245.327586,,0.0012751623917296457,245.52,0.7870000004768372,0.02915646869986707
245.793103,,0.0012526116039775997,245.988,0.7699999809265137,-0.008652892673451954
246.258621,,0.001223745011115082,246.453,0.796999990940094,0.0493480538897237
246.724138,,0.0011883186511341037,246.918,0.7820000052452087,0.015821502527400597
247.18965500000002,,0.0011460962544175767,247.383,0.7770000100135803,0.004083411193219008
247.655172,,0.001096850302070348,247.848,0.7590000033378601,-0.035949689456343505
248.12069,,0.0010403632245203289,248.313,0.859000027179718,0.18115183629693768
248.586207,,0.0009764282140280161,248.774,0.7630000114440918,-0.028682757364797983
249.051724,,0.0009048494281418391,249.243,0.7820000052452087,0.012126291689282996
249.517241,,0.0008254424804228247,249.704,0.7879999876022339,0.024728841378451834
249.982759,,0.000738036383522823,250.174,0.7649999856948853,-0.02571893201063428
250.44827600000002,,0.0006424760223659124,250.637,0.7749999761581421,-0.004131097618607583
250.913793,,0.0005386220173419475,251.099,0.7590000033378601,-0.039042274840536656
251.37931000000003,,0.0004263473602388388,251.565,0.7820000052452087,0.0111610627091549
251.844828,,0.0003055367784225358,252.035,0.7689999938011169,-0.016922533213351423
252.31034499999998,,0.0001760948382212349,252.501,0.781000018119812,0.009597258375335413
252.77586200000002,,3.7955327401234384e-05,252.965,0.7789999842643738,0.0057412924219271055
253.241379,,0.00010892640307708651,253.424,0.765999972820282,-0.021970060787147742
253.706897,,0.00026459742048893657,253.889,0.7710000276565552,-0.010375344059790742
254.172414,,0.00042910928110264,254.354,0.7739999890327454,-0.003069686766782282
254.63793099999998,,0.0006024691754103489,254.821,0.7620000243186951,-0.028399062125899946
255.10344800000001,,0.0007845956296488832,255.287,0.7839999794960022,0.02036480493459903
255.56896600000002,,0.0009753826906226741,255.749,0.7850000262260437,0.02337141239117302
256.03448299999997,,0.001174841418195405,256.219,0.828000009059906,0.11785098562725382
256.5,,0.0013830801238362215,256.681,0.7860000133514404,0.027091418862761313
256.965517,,0.0015999971685807977,257.151,0.7649999856948853,-0.017994797841422393
257.431034,,0.001825076211440225,257.614,0.7599999904632568,-0.02832308104763744
257.896552,,0.0020578543970938288,258.076,0.824999988079071,0.11373667160803043
258.362069,,0.0022987168459724303,258.542,0.7820000052452087,0.02037262883388132
258.827586,,0.0025485678726720733,259.006,0.777999997138977,0.011835795726973299
259.29310300000003,,0.002806935398203919,259.472,0.7599999904632568,-0.02734901512036628
259.758621,,0.003071135445089104,259.936,0.7620000243186951,-0.023109331151497832
260.224138,,0.00333950417681691,260.402,0.7820000052452087,0.02020112490207595
260.689655,,0.003615694954978393,260.87,0.7889999747276306,0.03505342282802187
261.155172,,0.003905461227859528,261.335,0.777999997138977,0.010567291144072843
261.62068999999997,,0.004205255672208909,261.796,0.7870000004768372,0.029547338884091248
262.086207,,0.004499752439282322,262.261,0.7760000228881836,0.004867116236381398
262.551724,,0.004783315275547632,262.725,0.7870000004768372,0.028051929189552075
263.017241,,0.005082219014507745,263.195,0.8510000109672546,0.16666570249425702
263.482759,,0.005428233440189476,263.655,0.7699999809265137,-0.010637781710734777
263.94827599999996,,0.0057918606281469175,264.126,0.8830000162124634,0.23472981418762787
264.413793,,0.006083400083206725,264.584,0.7699999809265137,-0.012238638856085518
264.87931,,0.006291081453349122,265.054,0.7739999890327454,-0.004244284881126576
265.34482799999995,,0.006589054340190084,265.52,0.7670000195503235,-0.020134316670991456
265.810345,,0.007139454175970676,265.985,0.7689999938011169,-0.01631648044018626
266.27586199999996,,0.007712388584217866,266.451,0.7820000052452087,0.011583458090897987
266.741379,,0.007790072131999267,266.91,0.7599999904632568,-0.03663940876919908
267.206897,,0.007433517661732112,267.376,0.7990000247955322,0.048174574989751966
267.672414,,0.0077664554154975645,267.84,0.7870000004768372,0.02202204184318559
268.137931,,0.009579683897642475,268.306,0.7490000128746033,-0.06063068894491236
268.603448,,0.011132184857770542,268.769,0.7839999794960022,0.01589736194709232
269.06896600000005,,0.00883862708287286,269.239,0.7620000243186951,-0.03162612819353489
269.53448299999997,,0.001597807390391308,269.699,0.6650000214576721,-0.2424314820505079
270.0,,0.006763944536736615,270.169,0.7820000052452087,0.013093263504458393
270.465517,,0.011304772581085957,270.633,0.8240000009536743,0.10530306062212487
270.931034,,0.011228807840249844,271.096,0.7879999876022339,0.027643629611454158
271.396552,,0.009502926645535825,271.561,0.7630000114440918,-0.026009629978323373
271.86206899999996,,0.008533640540300735,272.024,0.7950000166893005,0.0445352395053824
272.327586,,0.008342997428122133,272.49,0.7639999985694885,-0.022184815537099604
272.793103,,0.008163600964572887,272.955,0.7630000114440918,-0.02358090215923878
273.258621,,0.007927866133511149,273.42,0.7870000004768372,0.029429476915034655
273.724138,,0.00814594122770929,273.885,0.7820000052452087,0.019177963799279586
274.18965499999996,,0.009080458526314153,274.35,0.5109999775886536,-0.5706999427655484
274.655172,,0.010143540695197817,274.815,0.7940000295639038,0.04626705117386064
275.12069,,0.010163093360374808,275.28,0.765999972820282,-0.01446034509740588
275.586207,,0.008579865984025317,275.744,0.7620000243186951,-0.023038076813792073
276.051724,,0.006321540255137327,276.213,0.7850000262260437,0.027065326465423683
276.517241,,0.005059689291666452,276.677,0.7480000257492065,-0.05369201067941721
276.98275900000004,,0.005514581139766926,277.14,0.7789999842643738,0.013561246787109554
277.448276,,0.006807385030355557,277.608,0.7829999923706055,0.021863000301247982
277.913793,,0.007560896974588135,278.069,0.7620000243186951,-0.02441648716194856
278.37931,,0.007274419890289037,278.536,0.7860000133514404,0.027243943767659363
278.844828,,0.006441679385421396,279.002,0.5830000042915344,-0.41573240506628273
279.31034500000004,,0.0057525373276062315,279.468,0.7870000004768372,0.027936430054265236
279.77586199999996,,0.005522342915251379,279.933,0.7789999842643738,0.009693987990545059
280.241379,,0.00550675611795304,280.398,0.7630000114440918,-0.025987005232776455
280.706897,,0.004941672722555366,280.863,0.7639999985694885,-0.024616064835465756
281.172414,,0.003251522437430933,281.329,0.7820000052452087,0.013831661151322162
281.637931,,0.001051323712810471,281.795,0.7829999923706055,0.015306098407382509
282.10344799999996,,0.00016119513446300062,282.254,0.8040000200271606,0.060439515281671075
282.568966,,0.00025565592025824334,282.722,0.7910000085830688,0.03160387138101928
283.034483,,0.0012164985282547567,283.184,0.7480000257492065,-0.06247166466595184
283.5,,0.0012224233876949367,283.655,0.7730000019073486,-0.00826939491640227
283.965517,,2.3920098729122616e-05,284.117,0.7710000276565552,-0.012753073963762055
284.431034,,0.0015033293414785764,284.583,0.7590000033378601,-0.038882278534145415
284.89655200000004,,0.0026469362134398347,285.047,0.7870000004768372,0.022274783205853327
285.362069,,0.003408153716553053,285.513,0.7820000052452087,0.01167228883120943
285.827586,,0.00397592176573249,285.978,0.7699999809265137,-0.014054112561665222
286.293103,,0.0041506702939647895,286.443,0.8069999814033508,0.06708708952169379
286.758621,,0.0035069137463159335,286.91,0.7620000243186951,-0.030323361268570357
287.22413800000004,,0.0022682497250564233,287.369,0.7730000019073486,-0.005652401502504984
287.689655,,0.0017683292227628571,287.836,0.7739999890327454,-0.002712940450906737
288.155172,,0.0031840441180881977,288.302,0.7879999876022339,0.028581048746545094
288.62069,,0.00567461579996519,288.766,0.8019999861717224,0.059883577856033356
289.086207,,0.00694955872599409,289.236,0.7680000066757202,-0.013404859946239498
289.55172400000004,,0.0061524767287363495,289.696,0.781000018119812,0.01566256660835554
290.01724099999996,,0.004889040922405417,290.165,0.7950000166893005,0.04684538776015111
290.482759,,0.004653947016952748,290.629,0.7689999938011169,-0.009201472068903748
290.948276,,0.004641987950179281,291.092,0.7739999890327454,0.0021874385286250733
291.413793,,0.003418062495128877,291.557,0.6830000281333923,-0.19569319963443899
291.87931,,0.0016963244210155494,292.021,0.7870000004768372,0.031130771613004204
292.344828,,0.001602868633841627,292.487,0.7620000243186951,-0.023228022500941428
292.81034500000004,,0.003363149069945611,292.951,0.7630000114440918,-0.021080844568360513
293.275862,,0.004619386071901542,293.417,0.7870000004768372,0.031038003154999338
293.74137900000005,,0.0037481892198381766,293.884,0.7620000243186951,-0.023727958715149076
294.206897,,0.0023431192427302134,294.35,0.8069999814033508,0.07389039144764241
294.672414,,0.0030625487345665916,294.815,0.8299999833106995,0.1234725833348412
295.13793100000004,,0.00587435468166214,295.281,0.8389999866485596,0.14246607795530025
295.603448,,0.007947988386132858,295.744,0.7870000004768372,0.028493164371914164
296.068966,,0.00707658653750551,296.206,0.7620000243186951,-0.026706356587419773
296.534483,,0.004052127034813511,296.674,0.7680000066757202,-0.014397468011902
297.0,,0.0015764302730722002,297.136,0.7820000052452087,0.015334210812653846
297.46551700000003,,0.001506919223510346,297.599,0.7590000033378601,-0.03552705501563695
297.931034,,0.0032291984223067425,298.069,0.7950000166893005,0.04219190750089671
298.396552,,0.004463958007071896,298.535,0.765999972820282,-0.021639720342811492
298.862069,,0.00373943749359362,299.0,0.8069999814033508,0.06711583886934712
299.327586,,0.0018842838309786926,299.466,0.7829999923706055,0.014358364877712903
299.79310300000003,,0.0006334956527953834,299.926,0.7870000004768372,0.022716082970077083
300.258621,,0.00020704285065643093,300.391,0.7739999890327454,-0.005840375139140822
300.724138,,0.0007161357782881172,300.859,0.7839999794960022,0.01584144817661721
301.189655,,0.0027567994663770315,301.324,0.765999972820282,-0.023347030094879477
301.65517200000005,,0.004667254263135549,301.785,0.7609999775886536,-0.034083009677367014
302.12069,,0.0047643483250178935,302.254,0.7739999890327454,-0.005478696881643469
302.586207,,0.003075126039894888,302.714,0.753000020980835,-0.05083270185232681
303.05172400000004,,0.0017051746533294214,303.185,0.7580000162124634,-0.0394389604685694
303.517241,,0.0027809550959576284,303.647,0.7850000262260437,0.01997299327397448
303.982759,,0.005813986414550186,304.11,0.7850000262260437,0.020632467397761877
304.448276,,0.007599757381185088,304.576,0.7609999775886536,-0.030944643576996965
304.913793,,0.005474539719060171,305.039,0.7839999794960022,0.019903985351123504
305.37931000000003,,0.0005340597016655197,305.504,0.7630000114440918,-0.02510108973837959
305.844828,,0.00309611485656489,305.97,0.7820000052452087,0.017024037317797794
306.310345,,0.002391102476764205,306.435,0.7960000038146973,0.04821887305046827
306.775862,,0.001466071443143357,306.9,0.7580000162124634,-0.03393370366204952
307.241379,,0.004287548964452552,307.366,0.7609999775886536,-0.026839582759877575
307.70689699999997,,0.0031460728203088107,307.832,0.7950000166893005,0.0476984355696389
308.172414,,0.0007185338623648379,308.298,0.7580000162124634,-0.032555224152861884
308.637931,,0.0033186317043011346,308.766,0.7099999785423279,-0.13689371387695465
309.103448,,0.0020326351210063994,309.228,0.7850000262260437,0.026614347067969276
309.568966,,0.0019051680905458736,309.689,0.7799999713897705,0.01570168819721452
310.034483,,0.004899980417912468,310.158,0.7630000114440918,-0.021481200625434273
310.5,,0.0046484341550703375,310.622,0.7570000290870667,-0.034821672697641186
310.96551700000003,,0.002067545313859459,311.084,0.7609999775886536,-0.02649045062546454
311.431034,,0.0002254346507899314,311.55,0.7860000133514404,0.027490392065458953
311.896552,,0.0007280086273361055,312.021,0.7839999794960022,0.022561304202671398
312.362069,,2.0686748533915906e-05,312.479,0.7770000100135803,0.0066706288743680515
312.827586,,0.0005977823975769447,312.944,0.7820000052452087,0.016874458691626723
313.29310300000003,,0.0007962545595746934,313.409,0.7710000276565552,-0.0078085287801193635
313.758621,,0.0013932959588213007,313.874,0.7609999775886536,-0.030320377923687726
314.224138,,0.0030698034231784717,314.34,0.8399999737739563,0.14108298606972294
314.689655,,0.0052564301780366075,314.807,0.7639999985694885,-0.025166317597501202
315.155172,,0.006641660335519449,315.272,0.7739999890327454,-0.003995179991707233
315.62068999999997,,0.006621728358851616,315.74,0.7839999794960022,0.01724994188862524
316.086207,,0.0057166032150106315,316.202,0.7739999890327454,-0.004987638059728701
316.551724,,0.004626495926700762,316.67,0.765999972820282,-0.02276494883925611
317.017241,,0.00359074037364911,317.132,0.7649999856948853,-0.025179129799416923
317.482759,,0.002796534744776,317.6,0.7620000243186951,-0.03183165257669672
317.94827599999996,,0.002565818249690752,318.062,0.7850000262260437,0.01828289817761256
318.413793,,0.002576502478504411,318.528,0.8019999861717224,0.05544828485263011
318.87931000000003,,0.0015732987721852436,318.995,0.7820000052452087,0.012123039333736825
319.344828,,0.0011877819100485003,319.461,0.7630000114440918,-0.028912944036366246
319.810345,,0.0043953826138976556,319.926,0.765999972820282,-0.02192025260083712
320.275862,,0.005566973086674686,320.384,0.7990000247955322,0.050516967431712245
320.741379,,0.003790788320561804,320.855,0.8230000138282776,0.10341631160150468
321.20689699999997,,0.0010272707978658219,321.32,0.7739999890327454,-0.0026736319891287825
321.672414,,0.00023864111220643703,321.781,0.7599999904632568,-0.03248041804196827
322.137931,,0.002280473487892321,322.251,0.765999972820282,-0.018706171798883856
322.603448,,0.004891822824215429,322.714,0.593999981880188,-0.3927476825103047
323.068966,,0.005034312310047127,323.177,0.7680000066757202,-0.01301622727443744
323.53448299999997,,0.002223575723439309,323.645,0.6150000095367432,-0.3457613000313295
324.0,,0.0009668912129307057,324.106,0.7860000133514404,0.027301642908176067
324.465517,,0.0019210777838691712,324.572,1.0360000133514404,0.5723972790279169
324.931034,,0.000746291815976621,325.035,0.7850000262260437,0.025904836626420458
325.396552,,0.0006043471960928623,325.5,0.7839999794960022,0.023975143762692594
325.86206899999996,,0.001272843572425264,325.967,0.7950000166893005,0.04807838024573135
326.327586,,0.0022717878329398013,326.432,0.7820000052452087,0.01977918090434226
326.793103,,0.004125559726194175,326.899,0.7979999780654907,0.054545540014598715
327.258621,,0.00503225176268365,327.365,0.7850000262260437,0.026018961708064475
327.724138,,0.002775695814248175,327.83,0.7329999804496765,-0.08758246113054992
328.189655,,0.0016645872611656483,328.296,0.7889999747276306,0.034011122777681126
328.655172,,0.003943125604397676,328.758,0.7860000133514404,0.026978565380775185
329.12068999999997,,0.0008674546386386525,329.22,0.7599999904632568,-0.030233824157695897
329.586207,,0.005421730174893373,329.688,0.7680000066757202,-0.013426921880571329
330.051724,,0.008925216285357192,330.15,0.7910000085830688,0.036023450896101074
330.517241,,0.005765781615206282,330.614,0.7649999856948853,-0.021296312603596528
330.982759,,0.0016998706997486688,331.084,0.6539999842643738,-0.26380019618845124
331.44827599999996,,0.006888811508630064,331.55,0.765999972820282,-0.02044691295438702
331.913793,,0.004925925920306249,332.013,0.765999972820282,-0.021062282765885353
332.37931,,0.003193067076499594,332.479,0.7200000286102295,-0.12183572129383359
332.844828,,0.011654573478093185,332.944,0.7870000004768372,0.02365389857878625
333.310345,,0.014702515637067608,333.41,0.7720000147819519,-0.009413928955478624
333.77586199999996,,0.010940752127261774,333.874,0.7620000243186951,-0.03148458847620267
334.241379,,0.0036340921423371484,334.34,0.7910000085830688,0.03152445576972866
334.706897,,0.002505435419118702,334.799,0.777999997138977,0.003148583385088773
335.17241399999995,,0.0046405970569219565,335.265,0.7630000114440918,-0.029464729768898187
335.637931,,0.0028799180212225,335.733,0.7590000033378601,-0.03799594825721021
336.103448,,0.0005576548406070957,336.195,0.7850000262260437,0.018944014526786554
336.56896600000005,,0.002989773339610138,336.666,0.7820000052452087,0.012806766931712439
337.034483,,0.002911490155018947,337.128,0.7699999809265137,-0.012846364387462587
337.5,,0.0005065522986574393,337.596,0.8600000143051147,0.1838013096730606
337.965517,,0.0032705291698856597,338.058,0.7689999938011169,-0.013823858113638858
338.431034,,0.007541900275296798,338.524,0.7860000133514404,0.02388746646941658
338.89655200000004,,0.011245234715497265,338.984,0.7910000085830688,0.035475829210099855
339.36206899999996,,0.012872193958019949,339.45,0.7820000052452087,0.016563231153383536
339.827586,,0.011313036218725921,339.918,0.753000020980835,-0.04594409722187693
340.293103,,0.00698606058851404,340.384,0.765999972820282,-0.01699156820035307
340.758621,,0.0018507763446201188,340.848,0.7699999809265137,-0.007709154359868893
341.224138,,0.001897538001129025,341.314,0.7850000262260437,0.025459531946792815
341.68965499999996,,0.0034342770288471928,341.777,0.7620000243186951,-0.024254131370226934
342.155172,,0.0037854586605779207,342.239,0.7910000085830688,0.039216324635633355
342.62069,,0.00452423908966224,342.707,0.7820000052452087,0.019784211323431722
343.086207,,0.005859535052685197,343.169,0.7829999923706055,0.022019504880368614
343.551724,,0.00624521115588333,343.64,0.7739999890327454,0.002347186429252816
344.01724099999996,,0.00405908749562204,344.103,0.8510000109672546,0.16992061782260567
344.48275900000004,,0.00045339869823748046,344.568,0.7839999794960022,0.023657175605758272
344.948276,,0.004946464963898603,345.031,0.7599999904632568,-0.02902832889683904
345.413793,,0.006608259046418482,345.496,0.7799999713897705,0.014052651850860864
345.87931,,0.004345664658204871,345.962,0.777999997138977,0.009124399562997
346.344828,,0.00013880197033927958,346.428,0.7649999856948853,-0.019830934333121643
346.81034500000004,,0.0035187829592941925,346.893,0.7639999985694885,-0.022685782727930898
347.275862,,0.0036778338016410796,347.358,0.7799999713897705,0.011473390079814731
347.741379,,0.00160961871962107,347.825,0.7850000262260437,0.02166650714454344
348.206897,,0.0002516522694447757,348.291,0.7820000052452087,0.014450838222652895
348.672414,,0.0014266824366560313,348.751,0.7839999794960022,0.01816963689162876
349.13793100000004,,0.004246466235824186,349.221,0.7620000243186951,-0.030338736245674812
349.60344799999996,,0.006331523075735062,349.681,0.7710000276565552,-0.011231806536749898
350.068966,,0.005909353487790668,350.151,0.781000018119812,0.01014646013804734
350.534483,,0.0028000235097098663,350.614,0.7620000243186951,-0.031550592300923136
351.0,,0.00161958839235083,351.076,0.7860000133514404,0.020549044294279707
351.465517,,0.005060920882840275,351.542,0.7630000114440918,-0.029626933678936797
351.93103399999995,,0.005838518688960574,352.007,0.753000020980835,-0.05135785047476426
352.396552,,0.004355408756188004,352.472,0.7649999856948853,-0.025037938663751882
352.862069,,0.0026089072518555184,352.937,0.7649999856948853,-0.024745832598756297
353.32758600000005,,0.001953313414212068,353.403,0.7820000052452087,0.012691310042544698
353.793103,,0.002011895601997901,353.869,0.824999988079071,0.1068708698123413
354.258621,,0.0020766789702361265,354.335,0.777999997138977,0.00505591467559121
354.72413800000004,,0.0025445240415164056,354.8,0.7649999856948853,-0.022619797371816176
355.189655,,0.004013017257776057,355.259,0.7620000243186951,-0.02846461849196414
355.655172,,0.005631262881681523,355.729,0.753000020980835,-0.04735854674136493
356.12069,,0.005678950463665407,356.192,0.7940000295639038,0.04268165980954175
356.586207,,0.0038638281291205508,356.655,0.7739999890327454,-0.00019490249002867156
357.05172400000004,,0.0020388777407386338,357.125,0.7799999713897705,0.013533352447600549
357.517241,,0.0020840709260344856,357.584,0.7620000243186951,-0.02508645902798352
357.982759,,0.00352161581106256,358.054,0.7699999809265137,-0.0071409048403411335
358.448276,,0.003975880789193624,358.52,0.5860000252723694,-0.4075944722977103
358.913793,,0.002076138030209962,358.985,0.7839999794960022,0.024081276291329955
359.37931000000003,,0.0008449462291892449,359.444,0.7829999923706055,0.022086222552753238
359.844828,,0.002379756042427831,359.91,0.7689999938011169,-0.008353120705781512
360.310345,,0.001723661272804458,360.376,0.7820000052452087,0.019907117785740655
360.775862,,0.00013288069503759368,360.84,0.7839999794960022,0.024080290597419403
361.241379,,0.0007159008609959319,361.306,0.753000020980835,-0.04375841319415504
361.706897,,8.8619586208212e-05,361.774,0.7609999775886536,-0.026738551512955646
362.172414,,0.0016393355396327495,362.236,0.753000020980835,-0.04467360671505579
362.63793100000004,,0.00330830646607981,362.699,0.7620000243186951,-0.025653190008271196
363.103448,,0.0036364882686090814,363.169,0.7860000133514404,0.025983794511458623
363.568966,,0.002413696825592846,363.63,0.7870000004768372,0.0274693996112701
364.034483,,0.0010881371530548872,364.1,0.765999972820282,-0.018996790602410225
364.5,,0.0013723619440485482,364.565,0.777999997138977,0.0064320273853062816
364.96551700000003,,0.0030858603622628137,365.028,0.7590000033378601,-0.03565664923459783
365.431034,,0.0041969372580860234,365.494,0.7699999809265137,-0.012344638428707503
365.896552,,0.0034086912647973383,365.958,0.7889999747276306,0.028457937264673078
366.362069,,0.001932627176664855,366.425,0.7649999856948853,-0.024341756004986382
366.827586,,0.0019312610691311703,366.884,0.7820000052452087,0.012277976911735258
367.29310300000003,,0.0036273429632472124,367.35,0.7239999771118164,-0.11439464755616444
367.758621,,0.0049489468536514074,367.815,0.7559999823570251,-0.04487421003733978
368.224138,,0.0041483646034531346,368.281,0.7860000133514404,0.02041019877750351
368.689655,,0.0019300163952449614,368.744,0.7519999742507935,-0.053614423057808974
369.155172,,0.0006070045686092221,369.213,0.7829999923706055,0.014096453496027925
369.62068999999997,,0.0017351355051920048,369.674,0.8019999861717224,0.055782463696337485
370.086207,,0.004840163261285309,370.143,0.7400000095367432,-0.07889162177232152
370.55172400000004,,0.007864624475414151,370.604,0.7879999876022339,0.026182937820137857
371.017241,,0.00864254112213255,371.074,0.7889999747276306,0.028944011961593363
371.482759,,0.006609566543381715,371.539,0.7789999842643738,0.007806251582228171
371.948276,,0.003452623355212934,371.999,0.765999972820282,-0.01982138320346096
372.413793,,0.0016783128408769884,372.465,0.7839999794960022,0.020113966729272913
372.87931000000003,,0.0022130980128852455,372.931,0.7570000290870667,-0.03798679543605823
373.344828,,0.003536605473210586,373.396,0.7820000052452087,0.017183003977831145
373.810345,,0.003284888531059503,373.862,0.765999972820282,-0.017012023805695997
374.275862,,0.0005811772521593578,374.328,0.8040000200271606,0.06638048451064064
374.741379,,0.0033343799244814876,374.793,0.7559999823570251,-0.03766881452871025
375.20689699999997,,0.006581278279069954,375.259,0.7590000033378601,-0.030701693460607818
375.672414,,0.00825133183351721,375.722,0.777999997138977,0.01101536265468801
376.137931,,0.008482520037236091,376.184,0.7820000052452087,0.01993529690835909
376.603448,,0.00770544494071456,376.652,0.7620000243186951,-0.02355593486598666
377.068966,,0.0064776524254522745,377.114,0.7639999985694885,-0.01924382523367755
377.53448299999997,,0.00564846067694516,377.58,0.781000018119812,0.017622537726056417
378.0,,0.005929919948494165,378.05,0.7850000262260437,0.026046647933950763
378.465517,,0.0072750771454450774,378.509,0.7820000052452087,0.019109437134328434
378.931034,,0.008993252687359083,378.974,0.7860000133514404,0.02732415433734902
379.396552,,0.010334626890358316,379.44,0.7699999809265137,-0.008118120175324954
379.862069,,0.010715345115986832,379.906,0.7910000085830688,0.0369832113606291
380.327586,,0.009776493297638928,380.372,0.7820000052452087,0.016678291351736214
380.79310300000003,,0.007824892248131498,380.837,0.7870000004768372,0.026848838411468203
381.258621,,0.005925240104821473,381.304,0.7649999856948853,-0.021808459034474238
381.724138,,0.004784677526626799,381.766,0.7839999794960022,0.018876083381384818
382.189655,,0.003719059451876011,382.235,0.7620000243186951,-0.029725405358851986
382.655172,,0.0015292975449291274,382.696,0.7820000052452087,0.013234884521188955
383.12068999999997,,0.0017507318929111497,383.165,0.7699999809265137,-0.01344430873591704
383.586207,,0.004799136629920243,383.626,0.7739999890327454,-0.005171489226081278
384.051724,,0.006529001874028992,384.089,0.7860000133514404,0.02063772899616188
384.517241,,0.0068104355111799604,384.554,0.765999972820282,-0.023152388535134794
384.982759,,0.005876426482692092,385.02,0.7870000004768372,0.02250644729777528
385.44827599999996,,0.004137561614717826,385.486,0.7850000262260437,0.018183913023107373
385.913793,,0.002702325223207016,385.951,0.7630000114440918,-0.02958506117545386
386.37931,,0.002830438004720899,386.416,0.7630000114440918,-0.029302607726122695
386.84482799999995,,0.0041905832995516295,386.881,0.734000027179718,-0.09208908623863439
387.310345,,0.004531944435313325,387.347,0.7789999842643738,0.006444335522423522
387.775862,,0.0020437879705582176,387.81,0.7799999713897705,0.009203783961320626
388.241379,,0.0021862892639918684,388.276,0.7649999856948853,-0.02282520248616915
388.70689699999997,,0.0047532528439487385,388.74,0.7850000262260437,0.02144894227733764
389.172414,,0.0031116619464185056,389.209,0.8029999732971191,0.061395803445191736
389.637931,,0.0019701247887245615,389.67,0.7630000114440918,-0.025010193913974493
390.103448,,0.007005111699837859,390.14,0.765999972820282,-0.017749206931641445
390.56896600000005,,0.008661144507895931,390.603,0.7870000004768372,0.028690728028506685
391.03448299999997,,0.006261260013774989,391.066,0.7720000147819519,-0.0033578731953026473
391.5,,0.0019294247068223874,391.531,0.7649999856948853,-0.018053961250481167
391.965517,,0.001405995241265862,391.995,0.7620000243186951,-0.02412938436777292
392.431034,,0.002183793695006674,392.461,0.7820000052452087,0.01979596090379674
392.896552,,0.0006951485561132774,392.929,0.7689999938011169,-0.008292552244652323
393.36206899999996,,0.002082698510804844,393.395,0.753000020980835,-0.043043111637601904
393.827586,,0.005465169611506755,393.855,0.7829999923706055,0.022294078601097566
394.293103,,0.008579102347225847,394.32,0.777999997138977,0.011249743326467464
394.75862099999995,,0.009642468036108012,394.792,0.7609999775886536,-0.026062987471351093
395.224138,,0.007061620356259394,395.25,0.7630000114440918,-0.022098487898941466
395.68965499999996,,0.0017043331124681148,395.718,0.7630000114440918,-0.022597241795371772
396.155172,,0.00292628148840044,396.18,0.7850000262260437,0.02474370557152892
396.62069,,0.0038184886326109333,396.644,0.7639999985694885,-0.021669952209303046
397.086207,,0.0014032706003996647,397.114,0.7570000290870667,-0.03763568279424136
397.551724,,0.0013375281868694528,397.579,0.9259999990463257,0.32981139870424536
398.017241,,0.0021690474995343144,398.042,0.777999997138977,0.0066231544074115845
398.48275900000004,,0.001151042370128481,398.508,0.765999972820282,-0.020252696574445006
398.94827599999996,,0.0004397437248096802,398.973,0.8019999861717224,0.05748210350124269
399.413793,,0.0013974666439546585,399.439,0.7829999923706055,0.015448132176115115
399.87931,,0.0009280950572716164,399.904,0.7609999775886536,-0.03304622374718706
400.344828,,0.000995914747211847,400.369,0.7789999842643738,0.005697090172224251
400.810345,,0.003200822105480415,400.829,0.7720000147819519,-0.009919780442978327
401.27586199999996,,0.004086387191322596,401.295,0.7689999938011169,-0.016705050919903465
401.741379,,0.003344129129616388,401.762,0.7580000162124634,-0.040795095698795275
402.206897,,0.0023309142599918678,402.225,0.7820000052452087,0.011495820935150884
402.672414,,0.002331816628476085,402.695,0.7860000133514404,0.0203430943997341
403.137931,,0.002988789475326888,403.158,0.7590000033378601,-0.03822202327233421
403.60344799999996,,0.0028744848253483123,403.622,0.8379999995231628,0.13426863636152628
404.068966,,0.0012347426119671977,404.084,0.7620000243186951,-0.03082225088099009
404.534483,,0.0012065599421453798,404.55,0.7820000052452087,0.013330856851835448
405.0,,0.0029725855342445716,405.014,0.7459999918937683,-0.06444507509073057
405.465517,,0.003123259561786024,405.479,0.777999997138977,0.005982737962999348
405.931034,,0.0018962580491745195,405.944,0.7820000052452087,0.01544348999734443
406.39655200000004,,0.0002602291808786838,406.409,0.7639999985694885,-0.023012674409773812
406.862069,,0.0009376382663605718,406.874,0.7599999904632568,-0.03097759918484404
407.327586,,0.001271936018871683,407.34,0.7889999747276306,0.032920777830982344
407.793103,,0.0005458245362492845,407.808,0.7789999842643738,0.011799205759235319
408.258621,,0.0011104637671837548,408.273,0.7400000095367432,-0.07257629629739502
408.72413800000004,,0.0028944601292357126,408.736,0.7860000133514404,0.028141660385746364
409.18965499999996,,0.0036850418432659285,409.199,0.765999972820282,-0.015037441012754423
409.655172,,0.0031533212373356916,409.67,0.7820000052452087,0.02009736749943817
410.12069,,0.002286488203731284,410.132,0.765999972820282,-0.014610894594565773
410.586207,,0.0025352929010049497,410.6,0.7960000038146973,0.0507682215566536
411.05172400000004,,0.004517397999515906,411.063,0.7820000052452087,0.02015576741748865
411.51724099999996,,0.007453023936313032,411.529,0.7630000114440918,-0.021478193578224232
411.982759,,0.009567663400492353,411.995,0.7360000014305115,-0.08066434189261089
412.448276,,0.009287437964247384,412.454,0.7609999775886536,-0.026674126941283162
412.913793,,0.006586507775092973,412.926,0.8539999723434448,0.1753670116313459
413.37931,,0.003190533953684926,413.384,0.7860000133514404,0.026567977885838298
413.844828,,0.0012871887253218775,413.851,0.8519999980926514,0.16964961201376338
414.31034500000004,,0.0020027326139523565,414.317,0.777999997138977,0.007682770877852893
414.775862,,0.004590746349236061,414.781,0.7599999904632568,-0.03229734664692825
415.241379,,0.006482802487130407,415.244,0.7590000033378601,-0.03523766616158437
415.706897,,0.004899619989970074,415.714,0.7820000052452087,0.014134780402520015
416.172414,,0.0001795355166993869,416.177,0.7630000114440918,-0.027948541768949436
416.63793100000004,,0.004886714684253832,416.645,0.7829999923706055,0.015003471069759834
417.103448,,0.004844682681054916,417.107,0.7850000262260437,0.0188269745015441
417.568966,,7.371201562245388e-05,417.572,0.7680000066757202,-0.01864072284551452
418.034483,,0.00459455475581019,418.035,0.7900000214576721,0.028975104315917037
418.5,,0.004620662288235942,418.501,0.7820000052452087,0.011357556563931842
418.96551700000003,,0.0004576874692031789,418.967,0.8009999990463257,0.052696183480924835
419.43103399999995,,0.003601999275431889,419.432,0.7889999747276306,0.026631674197639052
419.896552,,0.004505479480817177,419.899,0.7900000214576721,0.029022773295415853
420.362069,,0.00308038436108459,420.365,0.6420000195503235,-0.2930808066856181
420.827586,,0.0018318516335428543,420.825,0.7879999876022339,0.025450284304090433
421.293103,,0.00163881364224062,421.291,0.7789999842643738,0.006392475681298541
421.758621,,0.0014183795558422156,421.759,0.7549999952316284,-0.04525711879904211
422.22413800000004,,0.00032801207551393525,422.221,0.781000018119812,0.012094776578150817
422.689655,,0.0007623310606822738,422.689,1.0709999799728394,0.644664431232718
423.15517200000005,,0.0002688093489742268,423.15,0.7820000052452087,0.015834410823867297
423.62069,,0.0020220201999570867,423.618,0.7870000004768372,0.027536129851566286
424.086207,,0.004323817166197945,424.081,0.7630000114440918,-0.023964101126992553
424.55172400000004,,0.004537834629878322,424.547,0.7850000262260437,0.024708094260047043
425.017241,,0.002480770009686772,425.011,0.7680000066757202,-0.011655108728196969
425.482759,,0.00013327606095873862,425.477,0.7820000052452087,0.01943124731147878
425.948276,,0.00038824024766535305,425.943,0.7990000247955322,0.05694747197521603
426.413793,,0.001195892963298988,426.409,0.7860000133514404,0.02898376389449339
426.87931000000003,,0.003424348167868015,426.874,0.765999972820282,-0.014362848807113977
427.344828,,0.0046610387638985696,427.34,0.7889999747276306,0.035832265002383665
427.810345,,0.0042574773965338795,427.8,0.7549999952316284,-0.03829922953713296
428.275862,,0.0025859315993675036,428.265,0.7630000114440918,-0.021070665322603172
428.741379,,0.0005399627419843114,428.733,0.765999972820282,-0.01487344475252284
429.20689699999997,,0.0009135753548310151,429.195,0.7839999794960022,0.023875971153993137
429.672414,,0.0011223730034289029,429.662,0.7919999957084656,0.040725812160769315
430.137931,,0.0001425516813844474,430.125,0.7480000257492065,-0.0558102341146352
430.603448,,0.0011883722593161218,430.596,0.7519999742507935,-0.04784875942133351
431.068966,,0.0018180541232504352,431.058,0.7649999856948853,-0.020334622855468477
431.534483,,0.0012449811034359382,431.524,0.7739999890327454,-0.0015653002964496996
432.0,,0.00032878554388367817,431.988,0.7910000085830688,0.03462937605908725
432.46551700000003,,0.002387818912896729,432.454,0.6330000162124634,-0.3104199680822028
432.931034,,0.004224710943548936,432.918,0.8040000200271606,0.06134871994372171
433.396552,,0.004824675442070428,433.384,0.8069999814033508,0.06717431585808964
433.862069,,0.003455339499359696,433.844,0.7789999842643738,0.005556849682409954
434.327586,,0.0008193829125814022,434.309,0.7620000243186951,-0.03198248053936436
434.79310300000003,,0.0009251301358958864,434.777,0.734000027179718,-0.09335995412774337
435.258621,,5.24347917719468e-05,435.24,0.7870000004768372,0.021871849886650013
435.724138,,0.002791123905847849,435.71,0.7839999794960022,0.015247349213577194
436.189655,,0.005082041358373387,436.172,1.0499999523162842,0.5948367370331399
436.655172,,0.00507326519877828,436.641,0.7609999775886536,-0.03456396303691852
437.12068999999997,,0.003435129958583103,437.103,0.7649999856948853,-0.025472927030578404
437.586207,,0.0018678671775720533,437.568,0.7860000133514404,0.020786379345871228
438.051724,,0.0007995122945793473,438.031,0.7609999775886536,-0.033056268527678165
438.517241,,0.0005665694082896459,438.496,0.7860000133514404,0.022130568912778908
438.982759,,0.0023539998049325757,438.963,0.7459999918937683,-0.06422042143147819
439.448276,,0.0035787105150786,439.428,0.8920000195503235,0.254709266120012
439.913793,,0.003874628527189897,439.895,0.765999972820282,-0.018925668028964455
440.37931000000003,,0.004339034342138167,440.354,0.7609999775886536,-0.028944889887651776
440.844828,,0.005718290540287555,440.825,0.7850000262260437,0.024186712717755767
441.310345,,0.0065912745267849545,441.284,0.7760000228881836,0.005367191110742259
441.775862,,0.0048314546493861505,441.755,0.7820000052452087,0.019147594672588825
442.241379,,0.0009301160932230516,442.217,0.7570000290870667,-0.034712206880481725
442.70689699999997,,0.0015940167087072437,442.685,0.7599999904632568,-0.02769172708156487
443.172414,,6.86234346866262e-05,443.147,0.8019999861717224,0.06415976741961164
443.637931,,0.0038533027171727577,443.611,0.765999972820282,-0.014069655665159417
444.103448,,0.005931542225275191,444.081,0.7820000052452087,0.02083793340851907
444.568966,,0.004453285185909127,444.539,0.7839999794960022,0.025089803773395303
445.03448299999997,,0.002178873286396146,445.004,0.7409999966621399,-0.06884922947257018
445.5,,0.002504272895697228,445.469,0.7699999809265137,-0.0060705462708351594
445.965517,,0.004853094264306122,445.936,0.7570000290870667,-0.03492753838356827
446.431034,,0.005391066206103487,446.401,0.7950000166893005,0.04721118037396745
446.896552,,0.0020954467904058076,446.866,0.777999997138977,0.009429862997679828
447.36206899999996,,0.002474081433348373,447.332,0.7820000052452087,0.017329085694369487
447.827586,,0.004129061838368165,447.797,0.7480000257492065,-0.05760709101397138
448.29310300000003,,0.0018269929328770637,448.263,0.7860000133514404,0.02429882843980291
448.758621,,0.0014048109280253344,448.726,0.7789999842643738,0.008172902452867873
449.224138,,0.0020342271692257137,449.195,0.7739999890327454,-0.0035607758600540882
449.689655,,0.0002282079610513527,449.659,0.7630000114440918,-0.02830592050488811
450.155172,,0.002518577950136606,450.121,0.7820000052452087,0.012392777240276053
450.62068999999997,,0.0023872666990225454,450.587,0.7760000228881836,-0.001268289831943709
451.086207,,0.0007067673311699846,451.053,0.7879999876022339,0.024411292916256214
451.551724,,0.0005297268154044747,451.519,0.7480000257492065,-0.0630596201578177
452.017241,,0.0032702496461513055,451.985,0.7910000085830688,0.03044600932735684
452.482759,,0.006869992062406985,452.451,0.7749999761581421,-0.00443381109370078
452.94827599999996,,0.008056885848340503,452.911,0.7829999923706055,0.013130057326225911
453.413793,,0.005776659287692735,453.376,0.7839999794960022,0.015595253890482583
453.87931,,0.0020814800458196516,453.84,0.7860000133514404,0.02038255800825574
454.344828,,0.00019414774036703112,454.306,0.7400000095367432,-0.07927605784486147
454.810345,,0.0018362508150760895,454.769,0.7699999809265137,-0.013246452847163708
455.27586199999996,,0.005785742367960891,455.239,0.7850000262260437,0.020194368047493222
455.741379,,0.00885746679350525,455.703,0.7620000243186951,-0.029085583363128456
456.206897,,0.008712295250888165,456.165,0.7770000100135803,0.004465210710038819
456.672414,,0.005695168704874391,456.629,0.7730000019073486,-0.003363073778605629
457.137931,,0.0018798427165711599,457.099,0.7609999775886536,-0.028632836136922735
457.603448,,0.0009900340961500078,457.565,0.7839999794960022,0.02231080801335175
458.06896600000005,,0.0023041054595383513,458.027,0.7870000004768372,0.029617000261641144
458.53448299999997,,0.0022838235956247786,458.493,0.7649999856948853,-0.01763135579712849
459.0,,0.0016509377349653482,458.954,0.7630000114440918,-0.021416847462735453
459.465517,,0.0012275002757556872,459.42,0.7870000004768372,0.0313144465998247
459.931034,,0.0014236205340978883,459.884,0.7820000052452087,0.02072388131578096
460.39655200000004,,0.002180647745562309,460.35,0.7789999842643738,0.014340217702499478
460.86206899999996,,0.0032566807476096934,460.815,0.7630000114440918,-0.020521485646679882
461.327586,,0.004213891131808705,461.281,0.7829999923706055,0.022892043143938397
461.793103,,0.004351307889616896,461.744,0.7620000243186951,-0.023170145934192986
462.258621,,0.0032509308608020416,462.213,0.7820000052452087,0.01995038117328756
462.724138,,0.0014938030103820235,462.674,0.7940000295639038,0.04551444912022243
463.18965499999996,,0.0003585172664656011,463.143,0.7590000033378601,-0.03142750724701176
463.655172,,0.0004827340609347852,463.607,0.7739999890327454,0.00047399718402561623
464.12069,,0.0010556050219731644,464.069,0.7630000114440918,-0.02433466734077021
464.58620699999994,,0.0006583582218737276,464.535,0.8050000071525574,0.0662863233763862
465.051724,,0.0012015966382129626,465.0,0.7889999747276306,0.030535205416858932
465.517241,,0.0036406005970084964,465.465,0.9419999718666077,0.3629960783294243
465.98275900000004,,0.005371239899909706,465.933,0.7760000228881836,0.0005173170494171373
466.448276,,0.0057880375030695125,466.398,0.765999972820282,-0.022021399975173286
466.913793,,0.004986979991226894,466.862,0.7620000243186951,-0.03139764523774348
467.37931,,0.003114590422595349,467.328,0.781000018119812,0.009445485748257577
467.844828,,0.00034733993655019303,467.792,0.7770000100135803,0.00030767013007389064
468.31034500000004,,0.002404976009334959,468.258,0.9800000190734863,0.4422952405975067
468.77586199999996,,0.0035932619084280606,468.721,0.7799999713897705,0.006444217514627213
469.241379,,0.0025643965694654262,469.184,0.6660000085830688,-0.24188797454881392
469.706897,,0.000714792144234513,469.655,0.9079999923706055,0.28552887149449185
470.172414,,0.0003330575754264469,470.117,0.7649999856948853,-0.025685771755306487
470.63793100000004,,0.002108452112089731,470.583,0.7630000114440918,-0.029573593530302488
471.10344799999996,,0.004258625785092528,471.047,0.7870000004768372,0.023303727113665428
471.568966,,0.004478425403950731,471.512,0.7839999794960022,0.01746046717512039
472.034483,,0.002526814440006161,471.977,0.7839999794960022,0.018235243819211967
472.5,,0.00043481486890504617,472.443,0.7609999775886536,-0.031041079236825895
472.965517,,0.00013180461487785828,472.907,0.7649999856948853,-0.021462221940719246
473.43103399999995,,0.0013680579111809434,473.373,0.7739999890327454,-0.000984916128656873
473.89655200000004,,0.002374384170221603,473.84,0.7850000262260437,0.02382921206276011
474.362069,,0.0021964975704926704,474.306,0.7870000004768372,0.028989735818697234
474.827586,,0.001469552844708964,474.766,0.7820000052452087,0.018830080993605884
475.293103,,0.000701959425643377,475.229,0.7609999775886536,-0.02628038875628811
475.758621,,0.0010167627990126178,475.699,0.7570000290870667,-0.034466225580657636
476.22413800000004,,0.004471060252610843,476.162,0.765999972820282,-0.014458593233748688
476.689655,,0.008044162131733553,476.625,0.765999972820282,-0.014198967310931178
477.155172,,0.008424164506091111,477.095,0.7820000052452087,0.020771794331514805
477.62069,,0.004040055374446972,477.554,0.7820000052452087,0.020734363366132835
478.086207,,0.0028132559844251713,478.02,0.7889999747276306,0.035799634190214015
478.55172400000004,,0.007713426306864303,478.486,0.765999972820282,-0.014636472821100923
479.01724099999996,,0.007866019093042824,478.951,0.765999972820282,-0.0150960822589036
479.482759,,0.004185377121785979,479.416,0.7990000247955322,0.05622183860982369
479.948276,,0.0001573285024404404,479.881,0.7720000147819519,-0.003278824293272021
480.413793,,0.0010134064999416268,480.346,0.7829999923706055,0.019930211877806584
480.87931000000003,,0.001447186987041143,480.811,0.7870000004768372,0.027832869060769504
481.344828,,0.0056572135583358085,481.276,0.765999972820282,-0.018762032657446654
481.810345,,0.008597521063635361,481.744,0.7620000243186951,-0.028326192006267587
482.275862,,0.008438872023897365,482.206,0.7870000004768372,0.025309488360648974
482.74137900000005,,0.0060338886461253705,482.67,0.7720000147819519,-0.008155867158917786
483.206897,,0.00397778180646453,483.14,0.7739999890327454,-0.004515795511687222
483.672414,,0.003910810420732772,483.603,0.7870000004768372,0.023179573046227607
484.13793100000004,,0.005062220043050395,484.066,0.7620000243186951,-0.03180478521933974
484.603448,,0.005619292247845589,484.531,0.7680000066757202,-0.01912731906372069
485.068966,,0.0049312783698253395,484.996,0.7789999842643738,0.004578821171617033
485.534483,,0.0039046098423464984,485.462,0.781000018119812,0.00882082032074538
486.0,,0.0035531829251635007,485.929,0.7860000133514404,0.01974585653860269
486.46551700000003,,0.00362044392149904,486.394,0.6620000004768372,-0.25023104224273246
486.931034,,0.0028131993815448007,486.86,0.7689999938011169,-0.016804203466910257
487.396552,,0.00048686926790524927,487.325,0.7839999794960022,0.01631508077197933
487.862069,,0.002151809460781166,487.792,0.6959999799728394,-0.1748506810666918
488.327586,,0.003105943431918444,488.25,0.8069999814033508,0.06763285628163977
488.79310300000003,,0.001851393074903022,488.714,0.7699999809265137,-0.012243440434716719
489.258621,,0.00010569071019402932,489.184,0.7820000052452087,0.014693241585981644
489.724138,,0.0009380895806260204,489.648,0.7910000085830688,0.03512910635626864
490.189655,,6.203661473112435e-05,490.11,0.7919999957084656,0.03814655347262823
490.655172,,0.0019410260157073618,490.576,0.7710000276565552,-0.0067808687702692536
491.12069,,0.0041099472252462705,491.046,0.7649999856948853,-0.019069174849609825
491.586207,,0.0056575526628803415,491.504,0.7620000243186951,-0.024886178899140868
492.05172400000004,,0.006310529859194615,491.97,0.7829999923706055,0.021497871675576725
492.517241,,0.006261878683523094,492.436,0.7609999775886536,-0.025905119878581944
492.982759,,0.005724560299310538,492.903,0.7910000085830688,0.03986078173218703
493.448276,,0.004802513033826877,493.369,0.800000011920929,0.059742606918835296
493.913793,,0.0037917843780002677,493.829,0.7609999775886536,-0.025091358067934947
494.37931000000003,,0.003142523954833511,494.295,0.7730000019073486,0.0010401820619955625
494.844828,,0.0030399997202350273,494.763,0.7799999713897705,0.01613274366517133
495.310345,,0.003312841800679369,495.225,0.7870000004768372,0.03108510818853146
495.775862,,0.0037662673790832303,495.695,0.7820000052452087,0.01976249612585677
496.241379,,0.004446743606873658,496.158,0.7559999823570251,-0.03743064558752308
496.70689699999997,,0.005469694977546049,496.622,0.7820000052452087,0.018563089552568645
497.172414,,0.006442240341148296,497.084,0.7620000243186951,-0.025744353771561607
497.637931,,0.0062254474431762555,497.55,0.7860000133514404,0.025747693507245588
498.103448,,0.003886768074061807,498.021,0.7770000100135803,0.005307651174753286
498.568966,,0.00013868546224074667,498.48,0.7689999938011169,-0.01296539065373173
499.03448299999997,,0.002732788220431535,498.945,0.7639999985694885,-0.0246891513318198
499.5,,0.0029226786765214345,499.41,0.7680000066757202,-0.016766930723236557
499.96551700000003,,0.0008992869676118964,499.877,0.7490000128746033,-0.05889181525049879
500.431034,,0.0012245210224244318,500.343,0.7910000085830688,0.031965047518103994
500.89655200000004,,0.0018543937124459971,500.808,0.7860000133514404,0.020530392189382452
501.362069,,0.0010349197353138014,501.273,0.7649999856948853,-0.025641011757680125
501.827586,,0.0001739688324369375,501.736,0.7910000085830688,0.030718376052969964
502.293103,,0.0005662037762314766,502.199,0.7620000243186951,-0.032604954085240105
502.758621,,0.0009078030928563238,502.67,0.8019999861717224,0.05454603008931356
503.224138,,0.0045504160480387265,503.132,0.7609999775886536,-0.03462568049578507
503.68965499999996,,0.00889952800307109,503.6,0.7549999952316284,-0.04740215596362264
504.15517200000005,,0.011027895436150589,504.062,0.7929999828338623,0.03581526279194964
504.62068999999997,,0.009014351247402318,504.527,0.777999997138977,0.0036859422782440023
505.08620699999994,,0.004243675482458048,504.992,0.7739999890327454,-0.004373110894166695
505.55172400000004,,0.0005817898949132976,505.458,1.034999966621399,0.5649997359922562
506.017241,,0.0009142331850298438,505.922,0.7850000262260437,0.02115525694251304
506.48275899999993,,0.004592141508751499,506.388,0.7799999713897705,0.01112215872713071
506.948276,,0.008297852888377942,506.854,0.7889999747276306,0.03160155909320747
507.413793,,0.00923579200303009,507.32,0.777999997138977,0.008492374679878322
507.87931,,0.00737884416630817,507.781,0.7720000147819519,-0.0037660562641247046
508.344828,,0.004831400727608178,508.251,0.8199999928474426,0.1015552978284324
508.810345,,0.0034607569582429916,508.714,0.7580000162124634,-0.03286443769539985
509.27586199999996,,0.003302933436530569,509.176,0.8029999732971191,0.06572044139295839
509.74137900000005,,0.002905281890501366,509.644,0.6919999718666077,-0.17569307272445236
510.20689699999997,,0.0008702924539856459,510.106,0.7879999876022339,0.03373021830802903
510.67241399999995,,0.0028314678150293104,510.572,0.7580000162124634,-0.031507325612081916
511.13793100000004,,0.0067867704647908995,511.035,0.7749999761581421,0.005497764007591852
511.603448,,0.009299384462754723,511.501,0.765999972820282,-0.014294656244528177
512.0689659999999,,0.009699669896860115,511.966,0.7670000195503235,-0.012447328336766952
512.534483,,0.008520846255697625,512.431,0.7739999890327454,0.0023352862127339856
513.0,,0.006502046430244689,512.896,0.7839999794960022,0.023532562315458694
513.465517,,0.0038208498167263644,513.362,0.7519999742507935,-0.04687645917111201
513.931034,,0.0005681786331437329,513.829,0.7689999938011169,-0.010613780320161496
514.396552,,0.002396778675326017,514.295,0.7639999985694885,-0.02233952890922066
514.862069,,0.00365008227531567,514.755,0.7440000176429749,-0.06677742743374415
515.327586,,0.0023177491145790334,515.225,0.7870000004768372,0.026033940015532095
515.793103,,0.0011951738865793114,515.688,0.7649999856948853,-0.022744525473669973
516.258621,,0.0053427181123830315,516.15,0.7739999890327454,-0.003935931177024677
516.724138,,0.008052476028409217,516.618,0.7789999842643738,0.006231798225918559
517.189655,,0.007753170520451311,517.08,0.7889999747276306,0.02738957347213717
517.655172,,0.004688181129348997,517.547,0.7860000133514404,0.020341704653025185
518.1206900000001,,0.0012846467663825284,518.01,0.7789999842643738,0.004711521180476864
518.5862070000001,,0.0003772731784849188,518.476,0.7820000052452087,0.011011743079679044
519.051724,,0.0023849352769512154,518.941,0.7820000052452087,0.01092689213628671
519.517241,,0.004475320907260473,519.407,0.765999972820282,-0.02386331799064784
519.982759,,0.003198642541393516,519.874,0.7620000243186951,-0.03235947323812421
520.448276,,0.0018592691260319802,520.34,0.7820000052452087,0.011574812058081639
520.9137929999999,,0.007488572031356101,520.8,0.7739999890327454,-0.005360953573156271
521.37931,,0.010291455336340936,521.266,0.7829999923706055,0.014857219909543369
521.844828,,0.010469740253745235,521.729,0.7599999904632568,-0.034543900621035156
522.310345,,0.01162482221446882,522.199,0.7870000004768372,0.025062642629543185
522.7758620000001,,0.01665572394774037,522.659,0.777999997138977,0.006288935531603337
523.241379,,0.024304862304056464,523.128,0.7480000257492065,-0.05821157866890672
523.7068969999999,,0.02999841705502503,523.6,0.765999972820282,-0.0181400373015298
524.172414,,0.029667806265982814,524.054,0.7620000243186951,-0.026028025871785217
524.637931,,0.022609341406268114,524.521,0.7820000052452087,0.018316894803197224
525.103448,,0.011501473779295088,524.988,0.7850000262260437,0.025547205790105245
525.568966,,0.00038533872544236844,525.453,0.7860000133514404,0.028321547681699182
526.034483,,0.007917561054915465,525.919,0.7639999985694885,-0.019130342706447402
526.5,,0.013218876294257494,526.384,0.7820000052452087,0.020431283964353186
526.9655170000001,,0.01686758581994142,526.844,0.7760000228881836,0.007562391793057217
527.4310340000001,,0.019521651020084466,527.309,0.7680000066757202,-0.009813039448009906
527.8965519999999,,0.020945097260484016,527.777,0.8019999861717224,0.06416430827916436
528.362069,,0.021932594870424465,528.24,0.7789999842643738,0.013812025390012049
528.827586,,0.02474819930916907,528.711,0.781000018119812,0.017786844463640632
529.293103,,0.03047436824556719,529.173,0.7570000290870667,-0.03501134035063456
529.7586210000001,,0.036665733077264166,529.64,0.765999972820282,-0.01602710786870155
530.224138,,0.038948223635515096,530.103,0.7870000004768372,0.02900793502742106
530.689655,,0.0352236046697022,530.569,0.7799999713897705,0.01297064523311233
531.155172,,0.027804137386838644,531.031,0.7730000019073486,-0.003112082221024753
531.62069,,0.021173478499922228,531.497,0.7839999794960022,0.02000086075879821
532.086207,,0.017913115913105297,531.963,0.7599999904632568,-0.03313246194018102
532.5517239999999,,0.017042166630959223,532.428,0.7829999923706055,0.016163076838912313
533.017241,,0.016015353294883326,532.896,0.8019999861717224,0.056802368112091585
533.482759,,0.013634287489990396,533.354,0.777999997138977,0.0038422358251704756
533.9482760000001,,0.01068670639081945,533.822,0.7850000262260437,0.018523111893948247
534.413793,,0.00833921294631836,534.288,0.8889999985694885,0.24465501144693455
534.87931,,0.006873275184851018,534.755,0.7850000262260437,0.01776593727080392
535.344828,,0.00613822496105855,535.217,0.7620000243186951,-0.03250774232699927
535.810345,,0.006362891351461003,535.68,0.7789999842643738,0.004511598248501413
536.275862,,0.007838811474579273,536.15,0.7900000214576721,0.028606965783488744
536.7413789999999,,0.01009810341859243,536.614,0.765999972820282,-0.023406886740472446
537.206897,,0.011968921713592262,537.077,0.7820000052452087,0.011859935215934078
537.672414,,0.012471409459792256,537.542,0.7639999985694885,-0.026825953280375948
538.137931,,0.011323211632356871,538.006,0.8309999704360962,0.11977902351009605
538.6034480000001,,0.008526858539303366,538.472,0.7649999856948853,-0.02328943247015202
539.0689659999999,,0.004011276994976698,538.937,0.7820000052452087,0.014533418032002171
539.5344829999999,,0.0018363162904263793,539.403,0.7910000085830688,0.03496558239750872
540.0,,0.007680320125200894,539.869,0.7870000004768372,0.02708882707719972
540.465517,,0.01201924128869702,540.335,0.7720000147819519,-0.004765692292248638
540.931034,,0.014440748329636974,540.799,0.7839999794960022,0.022164611900459208
541.396552,,0.01556667716770239,541.265,0.765999972820282,-0.01632752821897119
541.862069,,0.015726430037958816,541.726,0.7730000019073486,-0.0004389594211306645
542.327586,,0.014268967962362423,542.195,0.7839999794960022,0.024059084736412384
542.7931030000001,,0.01060908492636146,542.659,0.8489999771118164,0.16608473767689144
543.258621,,0.005685569316176963,543.121,0.7699999809265137,-0.005745970753213595
543.7241379999999,,0.0018291861149962434,543.587,0.7620000243186951,-0.023033812290007675
544.189655,,0.0010416233293144117,544.053,0.7829999923706055,0.022712140464986624
544.655172,,0.0034461611424380107,544.518,0.5889999866485596,-0.4001008819076466
545.12069,,0.007198462074696422,544.985,0.7870000004768372,0.03096919290608026
545.5862070000001,,0.009920791679155164,545.444,0.781000018119812,0.01746095681119243
546.051724,,0.010701030748697575,545.911,0.7870000004768372,0.029980276927299508
546.517241,,0.01075654145726676,546.377,0.7639999985694885,-0.02077998971157829
546.982759,,0.011741643174417431,546.844,0.7789999842643738,0.011169808844091838
547.448276,,0.013550072342924175,547.309,0.7630000114440918,-0.024474122559732785
547.9137929999999,,0.014317709718695693,547.77,0.7839999794960022,0.020460928006196148
548.3793099999999,,0.012646436396765345,548.239,0.7839999794960022,0.019639571643813736
548.844828,,0.009636556010427866,548.7,0.7730000019073486,-0.005125904715702102
549.310345,,0.008548943920279526,549.17,0.7620000243186951,-0.029846159489310922
549.775862,,0.01189971994066757,549.633,0.7760000228881836,-3.2002531853237635e-05
550.241379,,0.018495667896369843,550.095,0.7599999904632568,-0.035487972494991665
550.706897,,0.023935868407207742,550.561,0.8510000109672546,0.16228073457577952
551.172414,,0.024737675298454363,551.024,0.7099999785423279,-0.14527291860638641
551.637931,,0.021704209834037695,551.49,0.7739999890327454,-0.006070528737448502
552.103448,,0.018731267996083004,551.956,0.7789999842643738,0.004730924222589883
552.568966,,0.018558235268712295,552.421,0.7590000033378601,-0.03879103356402972
553.034483,,0.02036640071035563,552.888,0.6050000190734863,-0.37411484571096354
553.5,,0.021708388062217313,553.354,0.765999972820282,-0.02303649739539839
553.965517,,0.021955165162428052,553.818,0.7649999856948853,-0.024778309801894206
554.4310340000001,,0.022702903546465213,554.284,0.7839999794960022,0.01716337958380752
554.896552,,0.024871122473904054,554.748,0.7839999794960022,0.017804936113792875
555.3620689999999,,0.0268301377968933,555.209,0.7839999794960022,0.0185210527777551
555.827586,,0.02621785173198571,555.677,0.7870000004768372,0.025825471584627953
556.293103,,0.022807871163531997,556.14,0.7710000276565552,-0.008236250218186686
556.758621,,0.018697627061663544,556.611,0.7630000114440918,-0.024866199088004887
557.224138,,0.015988212352337296,557.073,0.8270000219345093,0.11534504472417749
557.689655,,0.014784650746813401,557.538,0.7829999923706055,0.020217683391779994
558.155172,,0.013075232301145124,558.003,0.7860000133514404,0.027419288023379774
558.6206900000001,,0.008240407142825779,558.469,0.753000020980835,-0.043900281472143074
559.0862070000001,,0.0005231847804575006,558.934,0.7630000114440918,-0.021646716468494354
559.5517239999999,,0.010509129208506617,559.4,0.7739999890327454,0.0026621297381092886
560.017241,,0.016932555754795714,559.866,0.7820000052452087,0.02030184349815128
560.482759,,0.017194721546868463,560.324,0.7649999856948853,-0.01666434051294298
560.948276,,0.013599900640871854,560.796,0.7760000228881836,0.00722976030811073
561.413793,,0.011101991444306094,561.254,0.7870000004768372,0.030984302979916604
561.87931,,0.01246240571755773,561.722,0.7870000004768372,0.030641578537709494
562.344828,,0.016097841666880757,562.185,0.7599999904632568,-0.02864642977709264
562.8103450000001,,0.01838590576753254,562.655,0.7749999761581421,0.0034608842285524365
563.275862,,0.017309866520083587,563.118,0.7870000004768372,0.028942575915126684
563.7413789999999,,0.013700023582298704,563.583,0.765999972820282,-0.01753999723059637
564.206897,,0.009739102786739518,564.047,0.7820000052452087,0.016541422915780594
564.672414,,0.007107020786513441,564.513,0.7609999775886536,-0.03000939119782047
565.137931,,0.0061786401799543865,564.978,0.7599999904632568,-0.032984762272059785
565.603448,,0.005864106229519535,565.443,0.7839999794960022,0.018533332494382545
566.068966,,0.004228451053382964,565.91,0.7689999938011169,-0.014863891153859464
566.534483,,0.000401366462724124,566.369,0.777999997138977,0.004100886189581645
567.0,,0.0039017121913544335,566.836,0.7990000247955322,0.04930451120679024
567.465517,,0.005626363097912032,567.302,0.7570000290870667,-0.04263451466112847
567.931034,,0.0033399151901386988,567.77,0.781000018119812,0.009342453332880698
568.396552,,0.0016270154883299048,568.232,0.7599999904632568,-0.03658523770543717
568.862069,,0.006843625535320372,568.695,0.7789999842643738,0.004773202033460694
569.327586,,0.010678810486284858,569.166,0.7789999842643738,0.004878888781481524
569.793103,,0.012423615481377132,569.629,0.7649999856948853,-0.02537813162639905
570.2586210000001,,0.011636403653924834,570.091,0.7879999876022339,0.025105548856176538
570.724138,,0.008414978219754852,570.557,0.7580000162124634,-0.03976009654820544
571.189655,,0.0043265345602676135,571.021,0.781000018119812,0.01094596400935223
571.655172,,0.002346847191619309,571.486,0.7639999985694885,-0.025409289603997742
572.12069,,0.004884188040943519,571.951,0.753000020980835,-0.04862954023181117
572.586207,,0.011106289747971615,572.417,0.7789999842643738,0.00879964630511924
573.051724,,0.016668898729317382,572.882,0.7820000052452087,0.016135945529516867
573.517241,,0.017436322205212695,573.348,0.7649999856948853,-0.02010957913134337
573.982759,,0.013732020182570307,573.815,0.7710000276565552,-0.006279949376052843
574.4482760000001,,0.00980350155781114,574.281,0.7829999923706055,0.0205639835298072
574.913793,,0.00891753117854686,574.744,0.7620000243186951,-0.024566478990500167
575.37931,,0.010294811343005156,575.206,0.7680000066757202,-0.010972492648744085
575.844828,,0.011183360688124389,575.674,0.6610000133514404,-0.24368327420937638
576.310345,,0.010440175533523065,576.136,0.7789999842643738,0.013670216108459645
576.775862,,0.009211771740578256,576.603,0.7870000004768372,0.031234843178160582
577.241379,,0.009105179254537224,577.067,0.765999972820282,-0.01452094125379338
577.706897,,0.010624850601715757,577.532,0.7839999794960022,0.024551148162845354
578.172414,,0.012869551205930545,577.999,0.8009999990463257,0.06131027653378602
578.6379310000001,,0.01412928125948453,578.465,0.7889999747276306,0.034763609152068574
579.1034480000001,,0.013375537650682407,578.929,0.7860000133514404,0.02771240324370536
579.5689659999999,,0.011816577298293059,579.394,0.7620000243186951,-0.025187819147301588
580.034483,,0.012192990842940113,579.859,0.7689999938011169,-0.010629175761362977
580.5,,0.015460907039340709,580.325,0.7839999794960022,0.021301048433519088
580.965517,,0.018853546580435025,580.792,0.7699999809265137,-0.009983524405247898
581.431034,,0.018756989323406286,581.25,0.796999990940094,0.04804705696353003
581.896552,,0.015256251481167613,581.718,0.7789999842643738,0.008053849083000445
582.362069,,0.012085559270646464,582.18,0.7760000228881836,0.0007797466522588968
582.827586,,0.011714932441829227,582.648,0.7839999794960022,0.017532371320351615
583.2931030000001,,0.012178535771008477,583.11,0.7599999904632568,-0.03534922738261691
583.758621,,0.009933035935249156,583.576,0.7910000085830688,0.03169548787539177
584.2241379999999,,0.004748063363272587,584.046,0.7620000243186951,-0.03186277862567966
584.689655,,5.637461707344745e-05,584.504,0.7620000243186951,-0.03211314147702363
585.155172,,0.001298737343562857,584.97,0.7749999761581421,-0.003906632968855288
585.6206900000001,,1.0234523795549818e-05,585.436,0.7649999856948853,-0.02567050334195461
586.0862070000001,,0.0012924923193736995,585.903,0.7580000162124634,-0.04076088065228816
586.551724,,0.000603149295298276,586.369,0.7950000166893005,0.04014209276807802
587.017241,,0.0024742334345198643,586.834,0.7889999747276306,0.027488060578251882
587.482759,,0.007154308672636135,587.299,0.7839999794960022,0.017125288254682073
587.948276,,0.01158684937563446,587.762,0.7710000276565552,-0.010570995701772917
588.4137929999999,,0.013783298304015784,588.224,0.7820000052452087,0.014096008749998007
588.87931,,0.013475916722347417,588.695,0.7850000262260437,0.02138829016564416
589.344828,,0.012626812986795253,589.158,0.7599999904632568,-0.032290907879249556
589.810345,,0.01336403154283122,589.626,0.7649999856948853,-0.02060488973175538
590.2758620000001,,0.015522144372012417,590.088,0.7739999890327454,-0.00022322790457741308
590.741379,,0.016720391809426655,590.554,0.7720000147819519,-0.0038491662074679554
591.2068969999999,,0.014909922219050296,591.02,0.9789999723434448,0.447801272113353
591.672414,,0.010402882138546208,591.486,0.7820000052452087,0.019199588294351765
592.137931,,0.005316578463194434,591.947,0.7850000262260437,0.026227638979091923
592.603448,,0.0016797047265396836,592.412,0.7649999856948853,-0.016973087760601312
593.068966,,0.0004019856641131964,592.877,0.7620000243186951,-0.023269039393027453
593.534483,,0.0014159141282752109,593.343,0.781000018119812,0.018224794601667458
594.0,,0.004311103337817715,593.807,0.7799999713897705,0.01600235976398261
594.4655170000001,,0.009059084253238602,594.273,0.7279999852180481,-0.09747384895202636
594.9310340000001,,0.01591171357461137,594.736,0.7850000262260437,0.026384632259778645
595.3965519999999,,0.024037962644079012,595.199,0.7649999856948853,-0.01764046562618632
595.862069,,0.03105216094059615,595.667,0.7570000290870667,-0.03563485174084763
596.327586,,0.03543524396637753,596.129,0.7770000100135803,0.007276820207723832
596.793103,,0.03912686492329852,596.599,0.7689999938011169,-0.010888573917683792
597.2586210000001,,0.04574685255275005,597.062,0.7829999923706055,0.018824829406031526
597.724138,,0.05562856588426897,597.527,0.7839999794960022,0.02018933734295407
598.189655,,0.06410972493049609,597.992,0.7829999923706055,0.017196007121912132
598.655172,,0.06576919641499222,598.457,0.7689999938011169,-0.014095067854971801
599.12069,,0.059644173640253095,598.921,0.7559999823570251,-0.043158733654433686
599.586207,,0.04960605391159851,599.387,0.7910000085830688,0.03242491410073031
600.0517239999999,,0.04004600882707026,599.852,0.7870000004768372,0.023135388768162016
600.517241,,0.03146733711461543,600.318,0.753000020980835,-0.05140123035029712
600.982759,,0.019950079549798834,600.781,0.7699999809265137,-0.014700850242742418
601.448276,,0.0010887254968859781,601.244,0.7609999775886536,-0.03450860354381033
601.913793,,0.024956002783035815,601.714,0.7630000114440918,-0.03020788027207676
602.37931,,0.05230881615427834,602.177,0.7850000262260437,0.017811463721049213
602.844828,,0.07345298451343918,602.64,0.7630000114440918,-0.029886148725659662
603.310345,,0.08431811386028766,603.11,0.777999997138977,0.0031628368531039955
603.775862,,0.08591663615908071,603.576,0.7699999809265137,-0.01377180960126135
604.2413789999999,,0.08246049107965613,604.038,0.7820000052452087,0.012976897724093777
604.706897,,0.07830422437201602,604.505,0.7680000066757202,-0.016827738387051108
605.172414,,0.07522226265178857,604.97,0.753000020980835,-0.04874164376282135
605.637931,,0.0713064723223431,605.435,0.7820000052452087,0.015250150089244068
606.1034480000001,,0.06306740334947569,605.9,0.777999997138977,0.007367130110189509
606.5689659999999,,0.04976873419646799,606.366,0.7649999856948853,-0.020129038960277203
607.0344829999999,,0.03546178839615903,606.825,0.781000018119812,0.01552420743937141
607.5,,0.025678394815836066,607.291,0.765999972820282,-0.01641730011033863
607.965517,,0.022112355863608095,607.759,0.7630000114440918,-0.022294928418149236
608.431034,,0.021595592209569282,608.221,0.7889999747276306,0.03490724667719619
608.896552,,0.020475295469524528,608.684,0.7649999856948853,-0.01694107547382987
609.362069,,0.01855542995610115,609.155,0.6499999761581421,-0.2671813118556391
609.827586,,0.017570171786261236,609.618,0.7820000052452087,0.020557995628479212
610.293103,,0.01697214027171522,610.081,0.7379999756813049,-0.0752951601310664
610.758621,,0.013653744085832264,610.547,0.7860000133514404,0.02913884011977791
611.2241379999999,,0.006219269730515532,611.01,0.7630000114440918,-0.021255217605092795
611.689655,,0.0025129152035999456,611.475,0.8029999732971191,0.0654712638685925
612.155172,,0.008476512660728512,611.941,0.7789999842643738,0.012643627011370109
612.62069,,0.010773284609791121,612.407,0.7620000243186951,-0.025037802043039164
613.0862070000001,,0.012186392216352015,612.874,0.7639999985694885,-0.02141048734793325
613.551724,,0.015884237549769736,613.339,0.7870000004768372,0.027905955640331107
614.017241,,0.02228995008628442,613.804,0.7910000085830688,0.035791160070696916
614.4827590000001,,0.029006615797295597,614.27,0.7820000052452087,0.01534322992424966
614.948276,,0.03334220892526592,614.732,0.7570000290870667,-0.039948260664681275
615.4137929999999,,0.034650295817014024,615.195,0.7799999713897705,0.009375054884953903
615.8793099999999,,0.03449624785400674,615.663,0.7860000133514404,0.021726396696959978
616.344828,,0.03527598896461947,616.125,0.7620000243186951,-0.03119422877092797
616.810345,,0.038679178945704655,616.596,0.7570000290870667,-0.042614016971008827
617.275862,,0.044513823869151904,617.058,0.8510000109672546,0.16177658973708195
617.741379,,0.050538645217079445,617.524,0.7820000052452087,0.011186364899098342
618.206897,,0.05390396146925566,617.988,0.7839999794960022,0.015426654561876427
618.672414,,0.05317152415144567,618.453,0.7879999876022339,0.024173314342091804
619.137931,,0.04921480373026519,618.918,0.7870000004768372,0.02217492609467829
619.603448,,0.044580449575656406,619.383,0.7590000033378601,-0.03850491931738646
620.068966,,0.04181159085591163,619.848,0.8399999737739563,0.1384204369180641
620.534483,,0.04159121569035795,620.314,0.7820000052452087,0.012633425813991642
621.0,,0.04225601651040649,620.777,0.7910000085830688,0.03291714484665025
621.465517,,0.04149368139935729,621.24,0.7839999794960022,0.01842165806971996
621.9310340000001,,0.03849109264576525,621.71,0.7820000052452087,0.014875013689612759
622.396552,,0.03403559870534401,622.173,0.7590000033378601,-0.03439386171227329
622.862069,,0.02866069198541554,622.636,0.7820000052452087,0.016557851708251987
623.327586,,0.02153442320385843,623.099,0.7620000243186951,-0.026195876952829912
623.793103,,0.012000758667802565,623.565,0.7820000052452087,0.018147206735824727
624.258621,,0.0020272379146182573,624.035,0.7870000004768372,0.02973796689049004
624.724138,,0.0043266013231192165,624.501,0.593999981880188,-0.39014123658197775
625.189655,,0.005081839526819183,624.965,0.765999972820282,-0.014933316864539015
625.655172,,0.0034371794522345188,625.424,0.7680000066757202,-0.010227324338143497
626.1206900000001,,0.005224830484527617,625.889,0.8429999947547913,0.15338258391592705
626.5862070000001,,0.012674178446747422,626.355,0.7820000052452087,0.020554402934266917
627.0517239999999,,0.021372604549407478,626.822,0.777999997138977,0.011764559217697288
627.5172409999999,,0.024427897791977578,627.287,0.7749999761581421,0.005009958135017662
627.982759,,0.019795559482045293,627.755,0.7870000004768372,0.030798868335921666
628.448276,,0.01257097580081483,628.218,0.7689999938011169,-0.008896824727115761
628.913793,,0.009538456837169067,628.68,0.7820000052452087,0.018835435008198453
629.37931,,0.012268189470963007,629.15,0.7850000262260437,0.024689646366057534
629.844828,,0.016210871564171662,629.611,0.7680000066757202,-0.013099530449746776
630.3103450000001,,0.016014842589649483,630.074,0.7720000147819519,-0.005184476108589981
630.7758620000001,,0.01125409748569005,630.54,0.7699999809265137,-0.010364283888315458
631.2413789999999,,0.0071295854521572725,631.007,0.7649999856948853,-0.022077448627660985
631.706897,,0.009394344781056352,631.472,0.7730000019073486,-0.005440341448317528
632.172414,,0.018274341024988795,631.94,0.7580000162124634,-0.038859943732222416
632.637931,,0.027878070604472244,632.406,0.7839999794960022,0.017120126052512924
633.103448,,0.032064033747637846,632.87,0.7829999923706055,0.014373130534334037
633.568966,,0.030185950122719737,633.335,0.765999972820282,-0.023118332660189256
634.034483,,0.026430149596335193,633.8,0.7720000147819519,-0.010373337778232402
634.5,,0.02459288985656371,634.259,0.7599999904632568,-0.03670711427568255
634.9655170000001,,0.025011553920947987,634.729,0.7649999856948853,-0.025861251489452265
635.431034,,0.026024854065262986,635.192,0.7789999842643738,0.0047365873434693844
635.8965519999999,,0.026358921242618478,635.655,0.7620000243186951,-0.032062295483671836
636.362069,,0.025470338517070177,636.125,0.7799999713897705,0.00752513933127868
636.827586,,0.0229581700061181,636.591,0.7839999794960022,0.016734229734594798
637.293103,,0.018769313325899564,637.054,0.7680000066757202,-0.017522236138232415
637.7586210000001,,0.013694312095760679,637.52,0.7860000133514404,0.022383787012108955
638.224138,,0.009074502905735329,637.985,0.7870000004768372,0.02532010556242436
638.689655,,0.0060110251446271416,638.444,0.777999997138977,0.006513964606455288
639.155172,,0.0050074364664819725,638.91,0.781000018119812,0.013870478234604657
639.62069,,0.006108961335538636,639.376,0.75,-0.05285451224427582
640.086207,,0.00889400614395754,639.84,0.7820000052452087,0.017642330539952657
640.551724,,0.012344822895960075,640.306,0.7590000033378601,-0.03174368925949851
641.017241,,0.01528206072290531,640.77,0.5929999947547913,-0.39275946029968467
641.482759,,0.017095871427137883,641.239,0.7860000133514404,0.028254291020183744
641.9482760000001,,0.017697431272860047,641.7,0.7680000066757202,-0.01054505184926051
642.413793,,0.01695941250749516,642.17,0.7639999985694885,-0.018970954665020745
642.87931,,0.014964208393857457,642.633,0.777999997138977,0.011682475711701942
643.344828,,0.012666804191818558,643.095,0.6990000009536743,-0.1604201386362446
643.810345,,0.011273555875033023,643.562,0.7850000262260437,0.02681177140392509
644.275862,,0.010754065421511,644.025,0.7620000243186951,-0.02356592918288234
644.7413789999999,,0.00987643606503584,644.49,0.7889999747276306,0.0348619597125921
645.206897,,0.008148592417810362,644.955,0.7820000052452087,0.019102243497981418
645.672414,,0.006998882031849339,645.421,0.765999972820282,-0.016363179300460162
646.1379310000001,,0.008176596848068807,645.888,0.7860000133514404,0.02652380304382037
646.6034480000001,,0.01101824845082914,646.354,0.6970000267028809,-0.16812107497709694
647.0689659999999,,0.012151860664425557,646.814,0.7699999809265137,-0.009862457013070492
647.534483,,0.008645925686447963,647.28,0.7639999985694885,-0.023729377059178835
648.0,,0.0012925977083376836,647.748,0.7870000004768372,0.025598231209053624
648.465517,,0.005896259981916161,648.21,0.7789999842643738,0.0074260471212648435
648.931034,,0.009524243424194547,648.681,0.7789999842643738,0.006744349856448973
649.396552,,0.009497120692429339,649.143,0.7630000114440918,-0.028714104856059634
649.862069,,0.007828841501526441,649.607,0.781000018119812,0.010000944191744368
650.327586,,0.006060771732913703,650.069,0.7599999904632568,-0.03613691164468779
650.7931030000001,,0.004997468536453508,650.535,0.7829999923706055,0.013711790041274171
651.258621,,0.006062041261659845,651.0,0.777999997138977,0.002692156774009435
651.7241379999999,,0.010813099860847516,651.466,0.7649999856948853,-0.025619487633235467
652.189655,,0.01849914813781168,651.933,0.7599999904632568,-0.036366220870305756
652.655172,,0.025272889819359833,652.398,0.7670000195503235,-0.02083875314832749
653.12069,,0.02689204591538275,652.864,0.7820000052452087,0.01223961911207864
653.5862070000001,,0.02247449194959344,653.33,0.7609999775886536,-0.03300401511036091
654.051724,,0.015746313793731415,653.796,0.7829999923706055,0.015527630885928099
654.517241,,0.012417653117331572,654.255,0.7829999923706055,0.016203816941609918
654.982759,,0.015506742296594291,654.725,0.781000018119812,0.012576896010937788
655.448276,,0.02267811675330287,655.187,0.7609999775886536,-0.030234875442340846
655.9137929999999,,0.028349280068982758,655.655,0.7609999775886536,-0.02946696672196669
656.37931,,0.028576869332786633,656.118,0.7850000262260437,0.023571617228230216
656.844828,,0.02393758361367774,656.583,0.7630000114440918,-0.02364740212920003
657.310345,,0.018253449402852878,657.047,0.7870000004768372,0.02929015367437903
657.7758620000001,,0.015222465382257213,657.512,0.7689999938011169,-0.009356509355524146
658.241379,,0.015906140634490248,657.977,0.7570000290870667,-0.03502984930522332
658.7068969999999,,0.018367479421251248,658.443,0.7749999761581421,0.004542833569141732
659.172414,,0.0195111482656008,658.908,0.7829999923706055,0.022205915914080797
659.637931,,0.018086892801309,659.373,0.7850000262260437,0.026667794942688644
660.103448,,0.016141148812658157,659.84,0.7829999923706055,0.022282998633340576
660.568966,,0.016740504526050276,660.305,0.7739999890327454,0.0025168650200148683
661.034483,,0.020030733463619936,660.766,0.7829999923706055,0.0218406526629466
661.5,,0.02248980905828554,661.236,1.0269999504089355,0.5530349791061066
661.965517,,0.020580937964155766,661.696,0.7570000290870667,-0.035691448356941685
662.4310340000001,,0.014301212663344566,662.166,0.781000018119812,0.016019434352322767
662.8965519999999,,0.0065467192286962446,662.629,0.7649999856948853,-0.019488028059225383
663.362069,,2.5532880347766025e-05,663.091,0.7760000228881836,0.003775608592934953
663.827586,,0.004354216596534578,663.557,0.7630000114440918,-0.02527985135530434
664.293103,,0.005869559800818993,664.021,0.7820000052452087,0.015372419524268448
664.7586210000001,,0.003959206186140479,664.487,0.7710000276565552,-0.009320947687384328
665.224138,,0.0005361052400947816,664.951,0.7609999775886536,-0.03180012533789356
665.689655,,0.004321642402547233,665.416,0.7839999794960022,0.017672881180725058
