Trial: ,13
Threshold: ,0.0
Maximum EMG: ,0.0723576374774496
Success: ,True

EMG Time,Raw EMG,Filtered EMG,Force Time,Raw Force (V),Filtered Force (N)
0.0,samples,3.4404510429269425e-06,0.466,0.7990000247955322,0.06260073936005076
0.46551699999999996,time,3.5277554604600966e-06,0.933,0.7739999890327454,0.007887468072016918
0.9310339999999999,value,3.6062567356339893e-06,1.398,0.7739999890327454,0.007669128370153621
1.396552,,3.67529488848806e-06,1.864,0.7590000033378601,-0.025194048293717557
1.862069,,3.7342151645453377e-06,2.33,0.7760000228881836,0.011700245873740465
2.327586,,3.782370594167236e-06,2.79,0.7590000033378601,-0.02543396390900554
2.793103,,3.819124634695058e-06,3.255,0.7760000228881836,0.01155528307561754
3.258621,,3.8438538895365535e-06,3.726,0.8500000238418579,0.17278070815503074
3.724138,,3.855950897829331e-06,4.189,0.7739999890327454,0.007264139778721144
4.189654999999999,,3.8548269877863715e-06,4.652,0.7789999842643738,0.018271170189703676
4.655172,,3.839915186304141e-06,5.115,0.7689999938011169,-0.0033528079931792543
5.12069,,3.8106731768928302e-06,5.58,0.7749999761581421,0.009925731865250607
5.586207,,3.76658629747312e-06,6.044,0.7590000033378601,-0.024687715432149406
6.051723999999999,,3.707170569076593e-06,6.51,0.7670000195503235,-0.006982687769936445
6.517241,,3.631975745989696e-06,6.975,0.7870000004768372,0.03688939849946427
6.982759,,3.5405883773961536e-06,7.441,0.7570000290870667,-0.028155933317676993
7.448276,,3.4326348701022687e-06,7.907,0.777999997138977,0.017914998328622
7.913793000000001,,3.3077845414758543e-06,8.373,0.7580000162124634,-0.025343008503531984
8.379309999999998,,3.1657526512950353e-06,8.837,0.7749999761581421,0.011994873938879587
8.844828000000001,,3.006303400790122e-06,9.303,0.7570000290870667,-0.02694305696100419
9.310345,,2.829252886772693e-06,9.77,0.7620000243186951,-0.015804341480085027
9.775862,,2.6344719983832746e-06,10.233,0.7789999842643738,0.02143837866680011
10.241379,,2.421889243655047e-06,10.696,0.7609999775886536,-0.01761746434634169
10.706897,,2.191493492788236e-06,11.159,0.777999997138977,0.019528237200240633
11.172414,,1.943336624760742e-06,11.626,0.7739999890327454,0.01086743100498829
11.637931,,1.6775360636674784e-06,12.096,0.7549999952316284,-0.030530281911486042
12.103447999999998,,1.3942771909862403e-06,12.554,0.7519999742507935,-0.03712820621629891
12.568966000000001,,1.0938156198140766e-06,13.025,0.7609999775886536,-0.01763984353134862
13.034483,,7.764793170073829e-07,13.49,0.7739999890327454,0.010509161540869701
13.5,,4.4267055909352164e-07,13.955,0.777999997138977,0.019001807558127214
13.965517,,9.286770780392419e-08,14.42,0.777999997138977,0.018737960446258646
14.431034,,2.723732088895742e-07,14.886,0.5630000233650208,-0.44997368439530133
14.896552,,6.524171242699138e-07,15.344,0.6660000085830688,-0.22591045077340938
15.362069,,1.0465487827991281e-06,15.811,0.7710000276565552,0.0024867762327262575
15.827586000000002,,1.4539718261768419e-06,16.277,0.7590000033378601,-0.02402447728181814
16.293103,,1.873808128988246e-06,16.745,0.8360000252723694,0.14337233560978727
16.758621,,2.3050973970883637e-06,17.208,0.7739999890327454,0.007957886355715219
17.224138,,2.7467970415007467e-06,17.671,0.7620000243186951,-0.01849318691623744
17.689655,,3.1977823401786045e-06,18.14,0.7770000100135803,0.013918387747122535
18.155172,,3.656846899483653e-06,18.604,0.7850000262260437,0.031127799702319145
18.62069,,4.122703426681713e-06,19.066,0.7749999761581421,0.009177199436923557
19.086207,,4.593984824133549e-06,19.532,0.7620000243186951,-0.019248416601626697
19.551724,,5.069245615174016e-06,19.997,0.8119999766349792,0.08964511286612475
20.017241000000002,,5.546963710921966e-06,20.462,0.777999997138977,0.015599144812943161
20.482758999999998,,6.02554252644736e-06,20.93,0.7739999890327454,0.006978383831196214
20.948276,,6.503313453840798e-06,21.396,0.7590000033378601,-0.025545523766373472
21.413793000000002,,6.978538698784482e-06,21.856,0.777999997138977,0.016061532600266586
21.87931,,7.4494144862129835e-06,22.321,0.8690000176429749,0.21458393223261674
22.344828,,7.914074639578075e-06,22.793,0.7559999823570251,-0.03129229205013593
22.810344999999998,,8.370594537095217e-06,23.252,0.765999972820282,-0.009160794407688065
23.275862,,8.81699544715157e-06,23.715,0.75,-0.04365323406132212
23.741379,,9.251249243798106e-06,24.184,0.777999997138977,0.017724244111959275
24.206897,,9.671283501933608e-06,24.648,0.7590000033378601,-0.023296807304026924
24.672414,,1.0074986970418044e-05,25.111,0.7760000228881836,0.01409985825466703
25.137931,,1.046021541992975e-05,25.577,0.7620000243186951,-0.016066661464577515
25.603448,,1.0824797860907601e-05,26.04,0.7739999890327454,0.010376048027248886
26.068966,,1.11665431253991e-05,26.506,0.7570000290870667,-0.026407062423195064
26.534483,,1.1483246805071443e-05,26.97,0.7580000162124634,-0.024028182448329785
27.0,,1.1772698536038893e-05,27.436,0.7760000228881836,0.015327919305428506
27.465517,,1.2032689619519907e-05,27.903,0.7739999890327454,0.01104730547430151
27.931034,,1.2261020965666118e-05,28.369,0.7720000147819519,0.0067009615310119315
28.396552,,1.245551134620677e-05,28.834,0.746999979019165,-0.04782126815960608
28.862069,,1.2614005939831516e-05,29.3,0.7620000243186951,-0.015263133816319567
29.327586,,1.2734385152496925e-05,29.763,0.7760000228881836,0.015054645987166996
29.793103000000002,,1.2814573693092773e-05,30.225,0.7599999904632568,-0.020042438941680063
30.258620999999998,,1.2852549883149116e-05,30.693,0.7590000033378601,-0.022507837958222983
30.724138,,1.2846355177510372e-05,31.155,0.7760000228881836,0.014203344634260998
31.189655000000002,,1.2794103871154277e-05,31.619,0.7599999904632568,-0.021009518524661052
31.655172000000004,,1.2693992965598168e-05,32.089,0.7739999890327454,0.009119831053382101
32.12069,,1.2544312166619377e-05,32.554,0.7599999904632568,-0.02175861859068949
32.586207,,1.2343453983327468e-05,33.018,0.7599999904632568,-0.022129947394105693
33.051724,,1.2089923896970968e-05,33.484,0.7739999890327454,0.008017587137433998
33.517241000000006,,1.1782350566247264e-05,33.949,0.7649999856948853,-0.011914491696267097
33.982759,,1.141949603431921e-05,34.414,0.7919999957084656,0.046624849136245254
34.448276,,1.100026590123321e-05,34.874,0.7519999742507935,-0.04075627691537272
34.913793,,1.0523719423989041e-05,35.34,0.7739999890327454,0.0069948745860549735
35.37931,,9.9890795051394e-06,35.805,0.7760000228881836,0.011234799158051355
35.844828,,9.395742529504966e-06,36.27,0.7609999775886536,-0.02149685579183405
36.310345,,8.743288007386942e-06,36.741,0.7580000162124634,-0.028017855723841203
36.775862,,8.031487981551505e-06,37.203,0.9240000247955322,0.33372171861309985
37.241378999999995,,7.260316154257497e-06,37.671,0.7609999775886536,-0.021245126882718988
37.706897000000005,,6.429956689708213e-06,38.133,0.777999997138977,0.016006609595741583
38.172414,,5.540812646538211e-06,38.596,0.7649999856948853,-0.012049352189109356
38.637931,,4.593513994304701e-06,39.059,0.7770000100135803,0.014404192685889088
39.103448,,3.5889251674480635e-06,39.525,0.7580000162124634,-0.02664742874917496
39.568965999999996,,2.5281521098251444e-06,39.99,0.7590000033378601,-0.024104633322497234
40.034483,,1.412548762709615e-06,40.456,0.777999997138977,0.017663687732137088
40.5,,2.4372294910322094e-07,40.923,0.7480000257492065,-0.0473236762519575
40.965517,,9.764583926827887e-07,41.388,0.7639999985694885,-0.012107536658273296
41.431034,,2.245864672928633e-06,41.849,0.7870000004768372,0.03833413066869335
41.896552,,3.5620978581747224e-06,42.315,0.8040000200271606,0.07566987383433721
42.362069000000005,,4.922489468291079e-06,42.789,0.7360000014305115,-0.07222329828338382
42.827586000000004,,6.324098407737119e-06,43.248,0.7590000033378601,-0.021912765249799515
43.293103,,7.763709674762107e-06,43.711,0.781000018119812,0.02615949362449449
43.758621,,9.237833991056357e-06,44.174,0.7590000033378601,-0.02169198211338754
44.224138,,1.0742708392917974e-05,44.645,0.7620000243186951,-0.015142875483740595
44.689655,,1.2274297823345748e-05,45.107,0.7879999876022339,0.04144933707033876
45.155172,,1.3828297762602735e-05,45.573,0.7609999775886536,-0.017490047606412516
45.620689999999996,,1.540013793271449e-05,46.036,0.7739999890327454,0.010656984251431523
46.086206999999995,,1.6984987109069016e-05,46.501,0.7820000052452087,0.027857114928688087
46.551724,,1.857775906977132e-05,46.967,0.7599999904632568,-0.02034835083834236
47.017241,,2.0173119710673172e-05,47.432,0.7860000133514404,0.035984101684119085
47.482759,,2.1765495351048875e-05,47.897,0.7820000052452087,0.02693022994637665
47.948276,,2.3349082251721706e-05,48.363,0.7760000228881836,0.013503421860453751
48.413793,,2.4917857364064908e-05,48.829,0.7739999890327454,0.008786369428524957
48.879310000000004,,2.6465590324708622e-05,49.295,0.7699999809265137,-0.00028151489129239
49.344828,,2.7985856706983716e-05,49.756,0.7760000228881836,0.01245469428478137
49.810345,,2.9472052536129267e-05,50.226,0.7639999985694885,-0.01399694516310007
50.275862,,3.091741007108837e-05,50.689,0.7620000243186951,-0.018624728173204753
50.741379,,3.2315014851323186e-05,51.151,0.921999990940094,0.3297369238603709
51.206897,,3.365782400250231e-05,51.619,0.753000020980835,-0.03861889811718924
51.672414,,3.493868579015952e-05,52.081,0.777999997138977,0.01574306540291295
52.137931,,3.615036040550255e-05,52.547,0.7760000228881836,0.01134214723050136
52.603448,,3.7285541962474024e-05,53.01,0.777999997138977,0.015717617414087247
53.068966,,3.833688167994503e-05,53.476,0.7789999842643738,0.017975409235358356
53.534483,,3.929701221756814e-05,53.94,0.7820000052452087,0.024648719836718173
54.0,,4.015857312834334e-05,54.406,0.7580000162124634,-0.0274484309950759
54.465517,,4.091423738537247e-05,54.871,0.7789999842643738,0.018539810773625386
54.931034,,4.155673893461022e-05,55.337,0.7770000100135803,0.014458049406594436
55.396552,,4.2078901219679544e-05,55.804,0.7739999890327454,0.008227678627171022
55.862069,,4.247366661902298e-05,56.27,0.7680000066757202,-0.004518484036829017
56.327586,,4.2734126729827385e-05,56.733,0.7739999890327454,0.008888606151791649
56.793102999999995,,4.2853553427307485e-05,57.196,0.7599999904632568,-0.021278438774042747
57.258621000000005,,4.282543062208289e-05,57.659,0.7749999761581421,0.011723531763919654
57.724138,,4.264348663255527e-05,58.129,0.7749999761581421,0.012024320057657106
58.189655,,4.230172708340873e-05,58.589,0.7649999856948853,-0.00949198779512825
58.655172,,4.179446823563951e-05,59.059,0.7820000052452087,0.02777636224832184
59.120689999999996,,4.1116370647894244e-05,59.524,0.75,-0.041755126842222316
59.586207,,4.026247306338363e-05,59.989,0.7699999809265137,0.001951207766992715
60.051724,,3.9228226411263914e-05,60.455,0.7620000243186951,-0.015400148611369872
60.517241,,3.800952780616853e-05,60.918,0.7580000162124634,-0.024094617870907234
60.982758999999994,,3.660275442455104e-05,61.384,0.781000018119812,0.025976886772393615
61.448276,,3.5004797131695286e-05,61.844,0.7609999775886536,-0.0176890768876175
61.913793,,3.3213093728684836e-05,62.31,0.777999997138977,0.019203086052359042
62.379310000000004,,3.1225661684329046e-05,62.778,0.7570000290870667,-0.02674051818976931
62.84482800000001,,2.904113021304333e-05,63.24,0.8199999928474426,0.11028232012212422
63.310345000000005,,2.6658771556004506e-05,63.704,0.7749999761581421,0.01197990396048096
63.775862000000004,,2.4078531319574673e-05,64.174,0.7580000162124634,-0.025343705027881025
64.241379,,2.1301057722036123e-05,64.634,0.7570000290870667,-0.027824833182987615
64.706897,,1.8327729597132258e-05,65.103,0.7739999890327454,0.008903298339322983
65.172414,,1.5160683000791773e-05,65.569,0.7749999761581421,0.010777132511577147
65.637931,,1.1802836265751475e-05,66.032,0.7649999856948853,-0.01130042710110515
66.103448,,8.257913347612752e-06,66.497,0.7739999890327454,0.008038833130685381
66.56896599999999,,4.530465305192901e-06,66.959,0.7739999890327454,0.007801094843384924
67.03448300000001,,6.258897578896003e-07,67.425,0.7519999742507935,-0.04032918425686104
67.5,,3.4495518368119414e-06,67.893,0.7649999856948853,-0.01216356170325656
67.965517,,7.688719241571637e-06,68.359,0.7760000228881836,0.011692763601597345
68.431034,,1.2083580987463296e-05,68.819,0.753000020980835,-0.03847388561474672
68.896552,,1.6625204564371374e-05,69.284,0.777999997138977,0.015986970464104563
69.362069,,2.1303749402765838e-05,69.752,0.7760000228881836,0.011677008188310085
69.827586,,2.6108462792609114e-05,70.215,0.7620000243186951,-0.018725969268697008
70.293103,,3.102767888098238e-05,70.685,0.7739999890327454,0.007562853891779488
70.75862099999999,,3.604882088516728e-05,71.148,0.7609999775886536,-0.020572495409423443
71.22413800000001,,4.115840665237101e-05,71.615,0.765999972820282,-0.009456518707010359
71.689655,,4.6342057691027626e-05,72.078,0.7760000228881836,0.012581305438125889
72.15517200000001,,5.158451179163756e-05,72.544,0.7870000004768372,0.036818668036248656
72.62069,,5.6869639347415234e-05,73.007,0.7760000228881836,0.013138565468496285
73.086207,,6.218046347659685e-05,73.473,0.7599999904632568,-0.021431761930051255
73.551724,,6.749918403911648e-05,73.94,0.7879999876022339,0.03985228771223327
74.017241,,7.280720563048831e-05,74.399,0.7720000147819519,0.005261181134806037
74.482759,,7.808516962514184e-05,74.87,0.7570000290870667,-0.027174646368033677
74.94827599999999,,8.331299033014954e-05,75.329,0.7609999775886536,-0.018247942142369942
75.41379300000001,,8.846989529827445e-05,75.801,0.777999997138977,0.018963425592341817
75.87931,,9.353446983655835e-05,76.259,0.7760000228881836,0.014738016479685466
76.344828,,9.848470573328685e-05,76.729,0.777999997138977,0.019181098406120853
76.810345,,0.00010329805421212279,77.192,0.7820000052452087,0.027933321167148417
77.275862,,0.00010795148310751655,77.66,0.7570000290870667,-0.02654458487618445
77.741379,,0.00011242153824020494,78.123,0.7739999890327454,0.01043149551057616
78.206897,,0.0001166844089557269,78.593,0.7599999904632568,-0.02017740528456243
78.67241399999999,,0.00012071599777244656,79.055,0.7820000052452087,0.027602125155190293
79.137931,,0.00012449199406861612,79.514,0.7749999761581421,0.012163297290953022
79.603448,,0.0001279879517205707,79.985,0.7789999842643738,0.020658727164153914
80.068966,,0.00013117937058626538,80.45,0.7570000290870667,-0.027514833525450123
80.53448300000001,,0.00013404178171008563,80.916,0.7620000243186951,-0.01688193906846747
81.0,,0.0001365508361062358,81.374,0.7889999747276306,0.04167282766179227
81.465517,,0.00013868239695908423,81.841,0.7590000033378601,-0.02395443013267187
81.931034,,0.00014041263505967607,82.307,0.777999997138977,0.01718108808577877
82.396552,,0.00014171812727827005,82.775,0.7739999890327454,0.00822492380120286
82.86206899999999,,0.00014257595785327582,83.238,0.7599999904632568,-0.022492981991854854
83.327586,,0.00014296382225742862,83.7,0.781000018119812,0.023073110045909496
83.79310299999999,,0.00014286013338250336,84.17,0.7570000290870667,-0.02936309895228599
84.258621,,0.0001422441297644099,84.63,0.7760000228881836,0.011923822586749639
84.72413800000001,,0.00014109598555119888,85.1,0.7689999938011169,-0.0033896898058572832
85.189655,,0.00013939692189741764,85.566,0.7760000228881836,0.011844416681647818
85.65517200000001,,0.00013712931944946557,86.028,0.7599999904632568,-0.022984114863082585
86.12069,,0.0001342768315681862,86.494,0.777999997138977,0.016306528605859082
86.586207,,0.0001308244979169835,86.959,0.7699999809265137,-0.0010052178015211338
87.051724,,0.0001267588580263435,87.425,0.7689999938011169,-0.0030278324590687854
87.517241,,0.0001220680644288655,87.89,0.7549999952316284,-0.03334007093878853
87.98275899999999,,0.0001167419949428456,88.355,0.781000018119812,0.023520258673182373
88.448276,,0.00011077236366719773,88.815,0.7559999823570251,-0.030710880169689477
88.913793,,0.00010415283023613199,89.281,0.7820000052452087,0.026181426671526446
89.37931,,9.687910686862566e-05,89.745,0.7620000243186951,-0.01713973801681114
89.844828,,8.894906273540906e-05,90.214,0.7820000052452087,0.026681472833470245
90.310345,,8.036282515503412e-05,90.674,0.7549999952316284,-0.031905317044853373
90.775862,,7.112287712068957e-05,91.144,0.7590000033378601,-0.022973455480558996
91.241379,,6.12341506508605e-05,91.608,0.7739999890327454,0.009897145505234944
91.706897,,5.070411544978887e-05,92.07,0.7599999904632568,-0.02044489267304816
92.17241399999999,,3.9542862358062734e-05,92.536,0.7739999890327454,0.010178606092161252
92.63793100000001,,2.7763181069628053e-05,93.0,0.7839999794960022,0.032047694126232026
93.103448,,1.538063158916262e-05,93.466,0.9599999785423279,0.4155343639223654
93.568966,,2.4136089031552415e-06,93.933,0.7739999890327454,0.010313879959274973
94.03448300000001,,1.1116599660727749e-05,94.399,0.7570000290870667,-0.026755233642494058
94.5,,2.518576490825807e-05,94.864,0.7680000066757202,-0.002865716368891629
94.965517,,3.9766674604385054e-05,95.33,0.777999997138977,0.018804351038181857
95.431034,,5.4829101160068006e-05,95.789,0.7590000033378601,-0.02274336027463764
95.896552,,7.033977868089044e-05,96.255,0.777999997138977,0.01846522971476667
96.36206899999999,,8.626238986670215e-05,96.722,0.7480000257492065,-0.047106604683978336
96.827586,,0.00010255756323787716,97.185,0.7720000147819519,0.004948267221017183
97.293103,,0.0001191828811478576,97.655,0.7749999761581421,0.011238992447779735
97.758621,,0.0001360928990234359,98.118,0.7710000276565552,0.002275247931721444
98.224138,,0.0001532391762536783,98.584,0.7870000004768372,0.036888390423770234
98.689655,,0.00017057031912548476,99.049,0.7739999890327454,0.008332958349374406
99.155172,,0.00018803203617849624,99.514,0.765999972820282,-0.009309881784855051
99.62069,,0.00020556720632438895,99.974,0.7820000052452087,0.025360940704914084
100.086207,,0.00022311596004553536,100.44,0.7739999890327454,0.00777639358001716
100.551724,,0.0002406157739555671,100.904,0.777999997138977,0.016373098948329376
101.017241,,0.0002580015789695617,101.37,0.7739999890327454,0.007581730441961273
101.482759,,0.0002752058822944179,101.837,0.7870000004768372,0.0358712723471393
101.948276,,0.00029215890341051544,102.302,0.7599999904632568,-0.0229403622107639
102.413793,,0.0003087887241740184,102.77,0.7580000162124634,-0.02724198384930634
102.87931,,0.0003250214531252315,103.233,0.7760000228881836,0.012071087472457526
103.344828,,0.000340781404042316,103.701,0.7760000228881836,0.012207819277449426
103.810345,,0.00035599128873149374,104.163,0.7580000162124634,-0.026836066263344102
104.275862,,0.0003705724239946974,104.626,0.7900000214576721,0.04308214521863927
104.741379,,0.0003844449526635593,105.096,0.7570000290870667,-0.028588334637852653
105.206897,,0.0003975280785347756,105.561,0.890999972820282,0.2635937263323666
105.672414,,0.00040974031498635716,106.024,0.7749999761581421,0.01112631964103981
106.13793100000001,,0.00042099974699720836,106.489,0.7570000290870667,-0.027831110380524025
106.603448,,0.0004312243062340042,106.955,0.7699999809265137,0.0007405710050576342
107.068966,,0.00044033205880961645,107.414,0.7799999713897705,0.02275977617367867
107.534483,,0.0004482415052565275,107.885,0.7749999761581421,0.012075567927526
108.0,,0.00045487189219694493,108.351,0.7609999775886536,-0.018247318967717748
108.46551699999999,,0.0004601435351288773,108.815,0.7649999856948853,-0.009391740946448708
108.931034,,0.0004639781516844394,109.281,0.777999997138977,0.01902993451074391
109.396552,,0.0004662992046533371,109.741,0.7599999904632568,-0.0201313688688636
109.862069,,0.0004670322540010415,110.21,0.7870000004768372,0.03870001575621327
110.32758600000001,,0.0004661053170478405,110.671,0.7910000085830688,0.04737633408396749
110.793103,,0.00046344923591197843,111.14,0.7789999842643738,0.021149661976886416
111.258621,,0.0004589980512577018,111.6,0.777999997138977,0.018845876237865444
111.724138,,0.0004526893813274813,112.07,0.7599999904632568,-0.020533973144094393
112.189655,,0.00044446480517723277,112.535,0.7820000052452087,0.027198152758541726
112.655172,,0.00043427024897428184,112.999,0.8489999771118164,0.17294344149185253
113.12069,,0.00042205637416038304,113.465,0.7739999890327454,0.0093033403297807
113.586207,,0.0004077789662265931,113.93,0.7749999761581421,0.011229371987216978
114.051724,,0.000391399322793493,114.396,0.7590000033378601,-0.023886355269813617
114.51724100000001,,0.00037288463963944707,114.856,0.7760000228881836,0.012896455762443035
114.982759,,0.00035220839327157694,115.322,0.7609999775886536,-0.02002631347093283
115.448276,,0.00032935071858920323,115.789,0.7590000033378601,-0.02460759377173049
115.913793,,0.00030429878014796895,116.255,0.777999997138977,0.016588873058283184
116.37931,,0.00027704713549499575,116.715,0.7580000162124634,-0.027148940120688723
116.84482799999999,,0.00024759808901154593,117.185,0.7739999890327454,0.007582899130374812
117.310345,,0.00021596203467006837,117.648,0.7720000147819519,0.003142031915723549
117.77586199999999,,0.0001821577860874907,118.11,0.7760000228881836,0.011819134671244371
118.241379,,0.00014621289223645296,118.576,0.7599999904632568,-0.023029426610122597
118.70689700000001,,0.00010816393716112934,119.039,0.7820000052452087,0.024958053637214938
119.172414,,6.805682203466638e-05,119.505,0.7390000224113464,-0.06862121544927051
119.63793100000001,,2.594702789139574e-05,119.97,0.7590000033378601,-0.024904032676923787
120.103448,,1.810014263090406e-05,120.436,0.7749999761581421,0.010136092715666003
120.568966,,6.400934619519357e-05,120.901,0.7870000004768372,0.036494966449808354
121.034483,,0.00011169500395776881,121.367,0.7599999904632568,-0.022086705929044315
121.5,,0.0001610611326699506,121.834,0.7599999904632568,-0.02182630776562113
121.96551699999999,,0.0002120012032810475,122.3,0.781000018119812,0.024196008460701895
122.431034,,0.00026439802859908604,122.763,0.7549999952316284,-0.03217633445423026
122.896552,,0.0003181236815234842,123.225,0.746999979019165,-0.04934041695274697
123.362069,,0.0003730394453148517,123.693,0.7609999775886536,-0.018590626153373237
123.827586,,0.0004289957973098772,124.155,0.7820000052452087,0.027386116392915685
124.293103,,0.00048583242742234465,124.619,0.7599999904632568,-0.020349442082211986
124.758621,,0.0005433782926964518,125.088,0.7739999890327454,0.010309577699145518
125.22413800000001,,0.0006014517090999618,125.554,0.7599999904632568,-0.02007578976030301
125.68965500000002,,0.0006598604816618884,126.018,0.7590000033378601,-0.022185124989282805
126.15517200000001,,0.0007184020739633561,126.484,0.7820000052452087,0.027944310728940543
126.62069000000001,,0.0007768638178745971,126.948,0.7670000195503235,-0.004764076787233078
127.086207,,0.0008350231643092311,127.413,0.781000018119812,0.02565986665354653
127.55172400000001,,0.0008926479756630476,127.879,1.0149999856948853,0.5353448234967376
128.017241,,0.0009494968605100276,128.344,0.7620000243186951,-0.01600643764500988
128.48275900000002,,0.0010053195509874386,128.804,0.7720000147819519,0.005591985271938273
128.948276,,0.0010598573230876118,129.27,0.7590000033378601,-0.02295293588266967
129.413793,,0.0011128434598802568,129.741,0.7490000128746033,-0.04499045223890765
129.87931,,0.0011640037576465376,130.203,0.7739999890327454,0.009203265032975737
130.344828,,0.0012130570749264984,130.664,0.7609999775886536,-0.01940444073628089
130.81034499999998,,0.001259715924226545,131.133,0.7789999842643738,0.019522232345114063
131.275862,,0.0013036871055156437,131.601,0.7739999890327454,0.008345450044049156
131.741379,,0.0013446723802839828,132.063,0.7279999852180481,-0.09214230299565472
132.206897,,0.0013823691855272577,132.528,0.7620000243186951,-0.018316911293028162
132.67241399999997,,0.0014164713878102064,132.992,0.7630000114440918,-0.016357373057903832
133.13793099999998,,0.0014466700765619165,133.458,0.7739999890327454,0.007426573124914553
133.60344800000001,,0.001472654392902956,133.923,0.777999997138977,0.016004788415496428
134.06896600000002,,0.0014941123896514258,134.388,0.7739999890327454,0.00720379373161654
134.53448300000002,,0.0015107319230574022,134.849,0.7749999761581421,0.009349480219844877
135.0,,0.001522201581621623,135.314,0.8769999742507935,0.23159591601828103
135.465517,,0.0015282116506580288,135.782,0.7490000128746033,-0.047188289503000774
135.931034,,0.001528455095584095,136.244,0.7699999809265137,-0.0012997367735049753
136.396552,,0.0015226285477373594,136.711,0.7570000290870667,-0.029436447483425294
136.862069,,0.001510433308951521,137.174,0.8399999737739563,0.15162179627930927
137.327586,,0.0014915764148804834,137.645,0.7649999856948853,-0.011506808844212202
137.793103,,0.0014657717488767684,138.107,0.7739999890327454,0.008401503286966417
138.258621,,0.001432741110522571,138.572,0.7519999742507935,-0.039208596858842065
138.724138,,0.0013922151716056698,139.035,0.7770000100135803,0.015587620061514793
139.189655,,0.0013439344551686551,139.501,0.7730000019073486,0.007202794342893664
139.655172,,0.0012876505756717522,139.967,0.8180000185966492,0.10556251869075071
140.12069,,0.0012231276425520368,140.433,0.7739999890327454,0.01000363300349313
140.586207,,0.0011501432507007245,140.9,0.7730000019073486,0.008097451264031441
141.05172399999998,,0.0010684887895574112,141.359,0.7739999890327454,0.010509408915786486
141.51724099999998,,0.0009779700325084936,141.831,0.7559999823570251,-0.028520189234114566
141.982759,,0.0008784093154706328,142.289,0.7480000257492065,-0.04581761164412829
142.44827600000002,,0.000769648361094101,142.759,0.7739999890327454,0.010899589897465752
142.913793,,0.0006515482941539974,143.222,0.7639999985694885,-0.01087595972853281
143.37931,,0.0005239860222452654,143.685,0.7739999890327454,0.01085934524330065
143.844828,,0.0003868534155237297,144.155,0.7789999842643738,0.021640655208036
144.310345,,0.0002400661051360136,144.618,0.7649999856948853,-0.009030030532768508
144.77586200000002,,8.357410016488295e-05,145.081,0.7799999713897705,0.023427068214599816
145.241379,,8.264603263721936e-05,145.546,0.7559999823570251,-0.02912972909179713
145.706897,,0.00025861755560084896,146.01,0.777999997138977,0.01849257042574757
146.172414,,0.00044436697608367213,146.476,0.7400000095367432,-0.06463383807886876
146.637931,,0.0006398711021833734,146.941,0.7620000243186951,-0.017061228670762457
147.103448,,0.0008450065249818147,147.406,0.7749999761581421,0.01089497346272438
147.568966,,0.001059617087645589,147.874,0.7870000004768372,0.036676923344486446
148.034483,,0.0012836706514734667,148.34,0.765999972820282,-0.00942062491586861
148.5,,0.001517244660806638,148.805,0.7749999761581421,0.009868094388319284
148.965517,,0.0017601917120758325,149.27,0.796999990940094,0.057516672540627346
149.43103399999998,,0.002011902092339292,149.733,0.7739999890327454,0.007173156614706266
149.89655199999999,,0.002271801862565938,150.196,0.7599999904632568,-0.023508299966255763
150.362069,,0.0025402384904786787,150.663,0.7559999823570251,-0.0323439990878687
150.82758600000003,,0.0028181633739874446,151.125,0.7739999890327454,0.006814132068627972
151.293103,,0.003105057973108267,151.596,0.890999972820282,0.2617271397966533
151.758621,,0.0033979330023155272,152.059,0.781000018119812,0.022158357915338208
152.224138,,0.0036947953971610253,152.525,0.7519999742507935,-0.04087327090795276
152.68965500000002,,0.003999472916156516,152.99,0.7720000147819519,0.0029086860560547764
153.155172,,0.004318335062923523,153.455,0.7820000052452087,0.024957733506663055
153.62069,,0.004647758364282573,153.915,0.7609999775886536,-0.02048534051051679
154.086207,,0.004970871941183551,154.38,0.7789999842643738,0.019075271004966927
154.551724,,0.005280738017765326,154.845,0.8339999914169312,0.13927282437206265
155.017241,,0.005605536878776148,155.31,0.7739999890327454,0.00894227145316008
155.482759,,0.005980994074707794,155.774,0.777999997138977,0.018048473055121438
155.948276,,0.006376602041621388,156.244,0.7570000290870667,-0.027322137152027862
156.413793,,0.006693467864591832,156.704,0.7749999761581421,0.01225121532969785
156.87931,,0.00691430626307575,157.174,0.7699999809265137,0.0016813037554236528
157.34482799999998,,0.007227506593637738,157.634,0.7580000162124634,-0.024184037660260595
157.81034499999998,,0.007817636302171046,158.103,0.7760000228881836,0.015255849739100867
158.275862,,0.008443146615265686,158.569,0.6169999837875366,-0.33098931458993663
158.741379,,0.008530560015454993,159.032,0.6110000014305115,-0.3439760093822804
159.20689700000003,,0.008120176227606158,159.497,0.7770000100135803,0.017687227793292896
159.672414,,0.008433468883707851,159.964,0.7620000243186951,-0.01505689378862312
160.137931,,0.010381398355251311,160.429,0.7789999842643738,0.021849025132566858
160.60344800000001,,0.012116642703310766,160.889,0.753000020980835,-0.03498909376102523
161.06896600000002,,0.009719268191410026,161.354,0.7760000228881836,0.01487039861948987
161.534483,,0.0020405058589467624,161.819,0.7699999809265137,0.0015012197984690901
162.0,,0.006404755372642199,162.285,0.902999997138977,0.29092891690902806
162.465517,,0.00986152370179872,162.755,0.7770000100135803,0.016064005686728625
162.931034,,0.007965418419553724,163.218,0.7649999856948853,-0.010448823251933519
163.396552,,0.005538192735952776,163.685,0.7620000243186951,-0.017359033274052412
163.862069,,0.006358530962488002,164.148,0.7990000247955322,0.06288310324538754
164.327586,,0.009549505318508301,164.615,0.7580000162124634,-0.026791179693887734
164.793103,,0.011976350358896779,165.078,0.7860000133514404,0.03388987037833431
165.258621,,0.012037599946159822,165.543,0.7599999904632568,-0.023038188201738908
165.72413799999998,,0.010450599448445258,166.007,0.7760000228881836,0.011583460007366278
166.189655,,0.008664200798257993,166.472,0.7549999952316284,-0.034351978189284094
166.655172,,0.007605437984966345,166.938,0.7590000033378601,-0.025763060702483707
167.12069,,0.007543387151349923,167.404,0.7739999890327454,0.006852655005992318
167.58620699999997,,0.008123473820562261,167.87,0.7990000247955322,0.061319523398355835
168.051724,,0.008399766311541419,168.329,0.7950000166893005,0.05267091288155963
168.517241,,0.007577318101065124,168.8,0.7760000228881836,0.011405713275972944
168.98275900000002,,0.005957170445154139,169.266,0.7599999904632568,-0.023265839222196303
169.44827600000002,,0.0045846826885765106,169.726,0.7789999842643738,0.018366563346922656
169.913793,,0.0038616201499610146,170.196,0.7620000243186951,-0.018388579820368078
170.37931,,0.0032611099748525822,170.659,0.6679999828338623,-0.22286703628559235
170.844828,,0.002619123409173638,171.122,0.7639999985694885,-0.013380922851286156
171.310345,,0.0026288255254448985,171.588,0.7570000290870667,-0.028283065304058913
171.775862,,0.0033567008950359327,172.051,0.7789999842643738,0.019999510880054677
172.241379,,0.003334753485471333,172.517,0.7940000295639038,0.05302622667148813
172.706897,,0.0013317215827813333,172.982,0.7889999747276306,0.042464753085294515
173.172414,,0.001592600268881542,173.447,0.7739999890327454,0.010091854524412485
173.637931,,0.003043459550134459,173.912,0.7229999899864197,-0.10074829545233399
174.103448,,0.002077507186578284,174.378,0.7739999890327454,0.01058864773946463
174.568966,,4.2523818063037924e-05,174.844,0.7639999985694885,-0.011022962621719416
175.034483,,0.001260950711509613,175.31,0.7820000052452087,0.028312506029488285
175.5,,0.0013879716279470186,175.77,0.7519999742507935,-0.03698580628130277
175.96551699999998,,0.0012002595227302325,176.24,0.765999972820282,-0.006484147980875224
176.43103399999998,,0.001782782904105377,176.7,0.781000018119812,0.026136078099752696
176.896552,,0.0035867156377232486,177.17,0.7630000114440918,-0.013196890241526486
177.36206900000002,,0.0060222669776838446,177.633,0.7820000052452087,0.02802622151590346
177.827586,,0.007639345474277587,178.096,0.7599999904632568,-0.02012394196543438
178.293103,,0.00731154965615528,178.562,0.7739999890327454,0.010115222657764177
178.758621,,0.005697998571118889,179.025,0.7620000243186951,-0.01632459744197641
179.224138,,0.004967708900057851,179.491,0.7820000052452087,0.02692723660705841
179.68965500000002,,0.006304181159719743,179.955,0.7739999890327454,0.009161973057025163
180.155172,,0.008049241164979728,180.421,0.75,-0.043466817994356234
180.62069,,0.007350991494758908,180.886,0.753000020980835,-0.037268031671045365
181.086207,,0.0036409718978537473,181.351,0.7210000157356262,-0.10730884912541279
181.551724,,0.0005401437436811956,181.816,0.7749999761581421,0.010036847707153611
182.01724099999998,,0.0024231232086431454,182.282,0.7749999761581421,0.009768795378773083
182.482759,,0.0019076908881118539,182.744,0.7639999985694885,-0.01442228770699998
182.948276,,0.001235624472147523,183.214,0.746999979019165,-0.051637290425484046
183.413793,,0.002295809007246667,183.678,0.7760000228881836,0.011418750834602174
183.87931,,0.004681552524587412,184.14,0.7480000257492065,-0.04965134638108964
184.34482799999998,,0.0064036452699161184,184.604,0.7739999890327454,0.0069844215225993815
184.81034499999998,,0.006300835382180452,185.074,0.8949999809265137,0.2706537035023517
185.27586200000002,,0.005308665628980306,185.539,0.7749999761581421,0.009331294709608489
185.74137900000002,,0.005098207119741652,186.003,0.7789999842643738,0.018218224424374922
186.206897,,0.006023624285885245,186.469,0.7409999966621399,-0.06434971233936412
186.672414,,0.00710076216998437,186.934,0.7599999904632568,-0.022694338785301714
187.137931,,0.007556775744608883,187.4,0.777999997138977,0.016814876275538026
187.60344800000001,,0.007423894086387046,187.859,0.777999997138977,0.017132741657590867
188.06896600000002,,0.0068219467091752035,188.324,0.7580000162124634,-0.0261078577436973
188.534483,,0.0057305350547465035,188.79,0.7789999842643738,0.019979946880460814
189.0,,0.0045445286464841795,189.255,0.7770000100135803,0.015952930084973883
189.465517,,0.003914243670018162,189.726,0.7749999761581421,0.011909999571696509
189.931034,,0.003764750050329379,190.188,0.7739999890327454,0.01002038028683559
190.39655199999999,,0.003166911287277727,190.656,0.7739999890327454,0.010275161890386098
190.862069,,0.0015232359954196082,191.118,0.7599999904632568,-0.02001326256733836
191.327586,,0.0005486932823710995,191.584,0.7820000052452087,0.028081193606092097
191.793103,,0.001804708361802331,192.049,0.7739999890327454,0.010763227938386528
192.25862099999998,,0.001613115673619895,192.515,0.7580000162124634,-0.02404003141332789
192.72413799999998,,0.0003997920532884035,192.974,0.7770000100135803,0.017351377596488457
193.189655,,0.0010761297996559327,193.44,0.7789999842643738,0.02164856780880087
193.655172,,0.0026851211127240297,193.904,0.7720000147819519,0.0062833353025006575
194.12069000000002,,0.004855600621246047,194.37,0.7599999904632568,-0.020026623600660452
194.586207,,0.0074714119461325125,194.837,0.7620000243186951,-0.015881925754780264
195.051724,,0.009350316806885427,195.303,0.777999997138977,0.0187240754280304
195.517241,,0.009270632840617249,195.77,0.8410000205039978,0.15569680503938713
195.98275900000002,,0.007282138979520504,196.233,0.777999997138977,0.018139985391472338
196.448276,,0.004734479851042733,196.701,0.777999997138977,0.017826547767693844
196.913793,,0.0032426294041765094,197.163,0.7329999804496765,-0.08053022227189914
197.37931,,0.0035900589602193772,197.626,0.777999997138977,0.017196188821405646
197.844828,,0.005048531540492644,198.096,0.7609999775886536,-0.020139082059792347
198.310345,,0.005707138116587334,198.554,0.7570000290870667,-0.02912798991358054
198.775862,,0.004233786895008206,199.025,0.796999990940094,0.05777576784808693
199.241379,,0.001530739234682566,199.491,0.7829999923706055,0.027073244114464275
199.706897,,0.00010044685753861054,199.955,0.7739999890327454,0.0073106510943883535
200.172414,,0.0003889735756115549,200.414,0.7739999890327454,0.007206483224529237
200.63793099999998,,0.001839967307900167,200.881,0.7739999890327454,0.007155634947875814
201.103448,,0.0026855056007069823,201.347,0.7609999775886536,-0.021163322443661925
201.568966,,0.0025233324331475388,201.812,0.7620000243186951,-0.018927544870901904
202.034483,,0.00155718883677139,202.278,0.7820000052452087,0.024754139035194543
202.5,,0.00020897060301107722,202.741,0.7559999823570251,-0.03173357349683987
202.965517,,0.002441499019324433,203.21,0.7739999890327454,0.007682595281014414
203.431034,,0.004054269995134401,203.671,0.7710000276565552,0.0013843394744638908
203.896552,,0.004140175011750407,204.141,0.7599999904632568,-0.022313447853826242
204.36206900000002,,0.0029654280211363934,204.604,0.7739999890327454,0.008476500324441878
204.827586,,0.00170996065264045,205.066,0.7580000162124634,-0.026080318310274582
205.293103,,0.0015574582939985554,205.532,0.7620000243186951,-0.017060939085424782
205.758621,,0.0029820031096851525,205.996,0.8510000109672546,0.17713916813405303
206.224138,,0.005239802219992753,206.462,0.7760000228881836,0.014029404910711193
206.689655,,0.006478055464988555,206.926,0.7870000004768372,0.03826227304472814
207.155172,,0.0051417699990292075,207.391,0.753000020980835,-0.035574865950312236
207.62069,,0.0017190966133592287,207.856,0.7480000257492065,-0.04627042970601896
208.086207,,0.001303752180615141,208.322,0.777999997138977,0.01924124551894565
208.551724,,0.001561643037847251,208.789,0.7620000243186951,-0.015514000345142396
209.01724099999998,,0.0012975172735441229,209.255,0.777999997138977,0.01939552780437754
209.482759,,0.005776644617232388,209.715,0.7580000162124634,-0.024179544429550382
209.948276,,0.009853886381279767,210.184,0.7739999890327454,0.010623442481826572
210.413793,,0.011804718739166786,210.645,0.7739999890327454,0.010517007849818738
210.87930999999998,,0.01066924264872453,211.115,0.7580000162124634,-0.02449539941435086
211.344828,,0.007063779254171004,211.58,0.7760000228881836,0.014523208199998725
211.810345,,0.003335179592894226,212.044,0.7599999904632568,-0.02056909017758045
212.27586200000002,,0.0018811084500551405,212.51,0.7570000290870667,-0.027368560251670747
212.741379,,0.0030057459279024456,212.974,0.7990000247955322,0.06384989108562011
213.206897,,0.004911314065633205,213.439,0.7749999761581421,0.011266069566507426
213.672414,,0.005927130874707245,213.904,0.7760000228881836,0.013146359715374027
214.137931,,0.006178635098893627,214.369,0.753000020980835,-0.03725510303043127
214.60344800000001,,0.006719968095149132,214.834,0.7570000290870667,-0.02881896111175806
215.068966,,0.007597467757595753,215.3,0.777999997138977,0.01667673866753532
215.534483,,0.007601193343235347,215.763,0.7570000290870667,-0.029299876070248938
216.0,,0.005939551983773942,216.225,0.7609999775886536,-0.020773169338653724
216.465517,,0.0034071552795358114,216.693,0.7639999985694885,-0.014382242334793263
216.93103399999998,,0.001427447158697726,217.155,0.7889999747276306,0.039986553891417115
217.39655199999999,,0.00036124497623393347,217.619,0.7620000243186951,-0.018883236834556002
217.862069,,0.0005534542043819568,218.088,0.7620000243186951,-0.018877875389572554
218.327586,,0.0017368623432303203,218.554,0.9269999861717224,0.3406585011080477
218.793103,,0.0026039332369583827,219.018,0.7739999890327454,0.00743972341851936
219.25862099999998,,0.0025347266686704534,219.484,0.7739999890327454,0.0076029364182891405
219.724138,,0.0016995716327063524,219.948,0.847000002861023,0.16684925601301984
220.18965500000002,,0.0005761859250512628,220.414,0.7770000100135803,0.014585035372825352
220.65517200000002,,0.0006974872095256402,220.879,0.7630000114440918,-0.015647976094997386
221.12069,,0.0021011637887162616,221.345,0.7870000004768372,0.03692439575966893
221.586207,,0.003271773500691657,221.804,0.6539999842643738,-0.2525454616891377
222.051724,,0.00354946237711168,222.27,0.7590000033378601,-0.023502774096134386
222.517241,,0.002409876728549043,222.738,0.7590000033378601,-0.023231701109026736
222.98275900000002,,1.1446551743316943e-05,223.2,0.7770000100135803,0.01623577803737128
223.448276,,0.002505204481513533,223.67,0.8360000252723694,0.14500289609595737
223.913793,,0.003593614286949743,224.133,0.777999997138977,0.01883776180854525
224.37931,,0.0025799341445191305,224.596,0.777999997138977,0.018997359894415405
224.844828,,0.00032453802730414855,225.059,0.7789999842643738,0.02129296555896035
225.31034499999998,,0.0014404284181511987,225.524,0.7599999904632568,-0.020030515039840206
225.775862,,0.0012623150937668727,225.989,0.7620000243186951,-0.01565084935386162
226.241379,,0.0012964335001068442,226.454,0.8029999732971191,0.07364767691601805
226.706897,,0.005412740896784373,226.926,0.777999997138977,0.01910963334258297
227.172414,,0.009324028959736903,227.384,0.7739999890327454,0.01027970094427512
227.63793099999998,,0.01137609684825702,227.849,0.777999997138977,0.018838975726818072
228.103448,,0.011209869390737742,228.315,0.7590000033378601,-0.02274581849204056
228.56896600000002,,0.00999288317668435,228.79,0.7940000295639038,0.05328758913064841
229.03448300000002,,0.009259248171574468,229.248,0.7900000214576721,0.044332631293601314
229.5,,0.009330864579953054,229.711,0.7409999966621399,-0.06267534407198358
229.965517,,0.009051290375636222,230.174,0.7990000247955322,0.06342563897751546
230.431034,,0.007272742659880175,230.645,0.7990000247955322,0.06316763578835989
230.896552,,0.00434647496778585,231.107,0.777999997138977,0.01716928433165346
231.362069,,0.0017888687216052806,231.572,0.722000002861023,-0.10506474050766201
231.827586,,0.0005955325832350017,232.035,0.781000018119812,0.023268393299197956
232.293103,,0.00033475023687758437,232.501,0.6990000009536743,-0.15555980661031388
232.758621,,0.00010376861156056051,232.966,0.7620000243186951,-0.018450967634942538
233.224138,,4.35564930634477e-05,233.432,0.7760000228881836,0.011942240328713171
233.689655,,0.0007118740818452432,233.897,0.7739999890327454,0.007520061260861316
234.155172,,0.002424918815805749,234.363,0.7599999904632568,-0.023001020054566557
234.62069,,0.003974577332060185,234.829,0.7760000228881836,0.01188240142881214
235.086207,,0.004551021475994046,235.295,0.7590000033378601,-0.025085728559196885
235.55172399999998,,0.0047442976791465885,235.756,0.7580000162124634,-0.027154119378882152
236.01724099999998,,0.005525775516065078,236.225,0.7820000052452087,0.025281430646086626
236.482759,,0.00662480430752715,236.685,0.7549999952316284,-0.03336075410746506
236.94827600000002,,0.00657401328401772,237.155,0.7739999890327454,0.00824232455572594
237.413793,,0.004401384165359168,237.615,0.7620000243186951,-0.017671862516954514
237.87931,,0.0010321099759742231,238.085,0.7599999904632568,-0.021786282175434175
238.344828,,0.0012384736179132298,238.551,0.7739999890327454,0.008963552530008289
238.810345,,0.0009501664648618678,239.009,0.7789999842643738,0.020104179016689712
239.27586200000002,,0.0008663580330927257,239.475,0.7950000166893005,0.05520174975816666
239.741379,,0.0017053782349624878,239.942,0.7870000004768372,0.03799648567951283
240.206897,,0.00037455588193199547,240.407,0.7739999890327454,0.009875639919496627
240.672414,,0.0018883975133256205,240.874,0.7789999842643738,0.02094133578413517
241.137931,,0.0033131981440549197,241.34,0.753000020980835,-0.035566065042674726
241.603448,,0.0035949192815696944,241.8,0.777999997138977,0.018997793004487503
242.068966,,0.0033911762374887935,242.265,0.7789999842643738,0.021231857408025277
242.534483,,0.0030319719432093575,242.733,0.7739999890327454,0.01035058770624216
243.0,,0.002854118044898355,243.196,0.7549999952316284,-0.031076064607668676
243.465517,,0.003822490594615238,243.663,0.7590000033378601,-0.02243770795490054
243.93103399999998,,0.006390379570913794,244.125,0.7739999890327454,0.010124385147029773
244.39655199999999,,0.009243347275318638,244.596,0.7739999890327454,0.009969860118856323
244.862069,,0.010438920218985917,245.059,0.7749999761581421,0.011962308637940419
245.327586,,0.009601660779962988,245.524,0.7459999918937683,-0.05143086809652849
245.793103,,0.008063964718290212,245.989,0.7620000243186951,-0.016805009548233264
246.258621,,0.007106381963913746,246.455,0.777999997138977,0.017808264460833324
246.724138,,0.006997504124423571,246.915,0.7599999904632568,-0.021656585726297663
247.18965500000002,,0.007467258946137238,247.381,0.7789999842643738,0.019492384772900676
247.655172,,0.007932124311513824,247.845,0.800000011920929,0.06501106209803448
248.12069,,0.007270734521470949,248.31,0.777999997138977,0.016868132246495873
248.586207,,0.004642876394526167,248.778,0.7570000290870667,-0.02906983049250256
249.051724,,0.0009596681771301581,249.241,0.7549999952316284,-0.033582844963190785
249.517241,,0.0013270685991513729,249.704,0.7760000228881836,0.012048692722182052
249.982759,,0.00047719036037024976,250.174,0.7789999842643738,0.018504381318582147
250.44827600000002,,0.002735510278969846,250.637,0.7799999713897705,0.02064575290343644
250.913793,,0.005635886454388749,251.1,0.777999997138977,0.01629528641533947
251.37931000000003,,0.005947257996486436,251.565,0.7749999761581421,0.00980961671539079
251.844828,,0.003578423514844123,252.035,0.7749999761581421,0.009901586258191231
252.31034499999998,,0.0004225298967018526,252.494,0.7789999842643738,0.018746764228311556
252.77586200000002,,0.0013882457926437356,252.96,0.7599999904632568,-0.02248289345023137
253.241379,,0.0010171900566878283,253.426,0.7829999923706055,0.027819251147675066
253.706897,,0.0008690236926968441,253.893,0.7599999904632568,-0.022074090136303362
254.172414,,0.0028284513736212117,254.358,0.7749999761581421,0.01083653703992884
254.63793099999998,,0.0035883404373445835,254.822,0.7940000295639038,0.052470351383509174
255.10344800000001,,0.002884953765371076,255.288,0.7760000228881836,0.013495493769244088
255.56896600000002,,0.0015951115345888753,255.756,0.7760000228881836,0.013729839967522077
256.03448299999997,,0.0007291675720990031,256.218,0.7580000162124634,-0.025266127374650716
256.5,,0.0004188373448629915,256.681,0.7749999761581421,0.011968637756957884
256.965517,,0.00030041529525564074,257.144,0.7549999952316284,-0.03143469932136642
257.431034,,0.00036023610801847724,257.612,0.7519999742507935,-0.03783506283058929
257.896552,,0.0004711688177061366,258.074,0.8709999918937683,0.22152346832252134
258.362069,,0.000378531730306296,258.539,0.7739999890327454,0.010256890631813696
258.827586,,0.0029481324815255677,259.004,0.7739999890327454,0.010279145073854173
259.29310300000003,,0.005971070007821696,259.469,0.7590000033378601,-0.02242124210964852
259.758621,,0.007141271497973891,259.934,0.7559999823570251,-0.02902078407098415
260.224138,,0.006205729759263326,260.4,0.7749999761581421,0.012269156393288707
260.689655,,0.005546553976867492,260.866,0.7580000162124634,-0.024909271999065216
261.155172,,0.00697842717354248,261.332,0.7820000052452087,0.027204474700077984
261.62068999999997,,0.00933080332343978,261.796,0.7829999923706055,0.02918318301846883
262.086207,,0.010283305067902976,262.262,0.7789999842643738,0.02024941687344613
262.551724,,0.009509264226081946,262.73,0.7699999809265137,0.00040991699349514983
263.017241,,0.008591684122411637,263.192,0.7599999904632568,-0.021613880639919272
263.482759,,0.00843573858387306,263.656,0.777999997138977,0.017366209073484642
263.94827599999996,,0.008259933913719566,264.126,0.777999997138977,0.017140342871855056
264.413793,,0.007100890288567441,264.584,0.7820000052452087,0.02564646958055239
264.87931,,0.005104457003930372,265.05,0.7580000162124634,-0.026825850411818775
265.34482799999995,,0.0030217223700213084,265.515,0.7620000243186951,-0.018267142870959152
265.810345,,0.0011525001140611493,265.982,0.7549999952316284,-0.03364026776808514
266.27586199999996,,0.0008783261106426313,266.448,0.7870000004768372,0.03599172399310591
266.741379,,0.0034611325232585693,266.915,0.7649999856948853,-0.011982284292951624
267.206897,,0.005972973517488298,267.381,0.7739999890327454,0.007624327582721292
267.672414,,0.006468290182560036,267.845,0.7760000228881836,0.012022923870334625
268.137931,,0.003364993568000196,268.304,0.7760000228881836,0.012105536768599849
268.603448,,0.0019789603988162614,268.774,0.777999997138977,0.0165842047661775
269.06896600000005,,0.005413763841647285,269.236,0.7620000243186951,-0.018118014240281602
269.53448299999997,,0.00394074953609668,269.7,0.7829999923706055,0.02781915540341011
270.0,,0.0008780100439443382,270.17,0.7760000228881836,0.012778167700351494
270.465517,,0.0044863231337199504,270.633,0.7749999761581421,0.010826164719955343
270.931034,,0.0041548733451963965,271.096,0.7609999775886536,-0.01943864958533064
271.396552,,0.0013528173153900171,271.561,0.7789999842643738,0.020015032308658157
271.86206899999996,,0.0006020715469513853,272.024,0.6620000004768372,-0.2346566311804324
272.327586,,0.0002124375545549743,272.49,0.7870000004768372,0.03788801934140917
272.793103,,0.0012913333237198935,272.955,0.777999997138977,0.018472504485571854
273.258621,,0.0019455052386798167,273.421,0.7720000147819519,0.00556771311966894
273.724138,,0.0011817571262994974,273.886,0.7570000290870667,-0.026976078053465573
274.18965499999996,,7.76842860816979e-05,274.351,0.777999997138977,0.018875752631648323
274.655172,,4.089778999773838e-05,274.816,0.7820000052452087,0.0276524761782944
275.12069,,0.0008919739956544805,275.281,0.7749999761581421,0.012424339403879384
275.586207,,0.0015324832215815947,275.744,0.7670000195503235,-0.00502292516596944
276.051724,,0.0005548441670858223,276.214,0.7409999966621399,-0.06172696623642545
276.517241,,0.00179612811041212,276.675,0.7730000019073486,0.007891149514639699
276.98275900000004,,0.0038129553484401086,277.144,0.7990000247955322,0.06440222281685587
277.448276,,0.004135733025569453,277.608,0.7620000243186951,-0.01637168569412308
277.913793,,0.0032955581657366376,278.07,0.7609999775886536,-0.018740076149772602
278.37931,,0.003132177132124438,278.535,0.7739999890327454,0.009372500172652686
278.844828,,0.004613764945284127,279.0,0.777999997138977,0.017864147946239146
279.31034500000004,,0.006605706416956308,279.465,0.7770000100135803,0.015456884292198358
279.77586199999996,,0.007088588566029891,279.93,0.6729999780654907,-0.211351740885425
280.241379,,0.005309087415208688,280.396,0.7689999938011169,-0.002425682576203976
280.706897,,0.0023237720968454873,280.863,0.7620000243186951,-0.01788704257205632
281.172414,,0.00039548789625964677,281.329,0.7749999761581421,0.010246407504984628
281.637931,,0.0023533923516636875,281.794,0.7770000100135803,0.014443386039649708
282.10344799999996,,0.00392698349033729,282.26,0.7570000290870667,-0.029256334430586825
282.568966,,0.0053413621549387265,282.722,0.7789999842643738,0.018584487429792518
283.034483,,0.006279307154578426,283.185,0.7839999794960022,0.029429210013404053
283.5,,0.006640373818845985,283.656,0.777999997138977,0.01635174551370663
283.965517,,0.007231480113357314,284.118,0.7559999823570251,-0.03154164803485357
284.431034,,0.0089587211999308,284.585,0.7879999876022339,0.038253041193306574
284.89655200000004,,0.011176376846916867,285.05,0.753000020980835,-0.037883127444225645
285.362069,,0.011657241685021236,285.516,0.777999997138977,0.016734096206531577
285.827586,,0.009009644582472448,285.974,0.7820000052452087,0.02562979076196498
286.293103,,0.004799238167241485,286.44,0.7480000257492065,-0.04823899508905272
286.758621,,0.002267798189927629,286.904,0.777999997138977,0.01734255824527079
287.22413800000004,,0.0027560029686509377,287.37,0.7599999904632568,-0.021641123819234578
287.689655,,0.004338711397150365,287.837,0.7570000290870667,-0.027942728096444998
288.155172,,0.0044868943259821735,288.302,0.7630000114440918,-0.014642236568825271
288.62069,,0.003064793661806694,288.77,0.7760000228881836,0.013896322709417404
289.086207,,0.0018369090476537324,289.233,0.7739999890327454,0.009736151015823251
289.55172400000004,,0.002037388687306422,289.696,0.777999997138977,0.018623001276337606
290.01724099999996,,0.003698870669337549,290.159,0.746999979019165,-0.04877388748122431
290.482759,,0.006514542313257026,290.63,0.7739999890327454,0.010154868118748455
290.948276,,0.009709401828352372,291.092,0.7609999775886536,-0.018101642960105843
291.413793,,0.01150856958935524,291.558,0.7789999842643738,0.021139019376964545
291.87931,,0.010479779567364744,292.021,0.753000020980835,-0.0355226511354006
292.344828,,0.007396659058751027,292.487,0.777999997138977,0.018885215073498714
292.81034500000004,,0.004270169211074819,292.952,0.7789999842643738,0.02096643691300877
293.275862,,0.0015479233831100538,293.418,0.753000020980835,-0.035811697649224386
293.74137900000005,,0.0020540024244747757,293.886,0.7630000114440918,-0.014190985445329107
294.206897,,0.006728056898536826,294.344,0.7599999904632568,-0.02092000499099579
294.672414,,0.010504912766209715,294.812,0.7599999904632568,-0.021134005806620813
295.13793100000004,,0.01184576195828856,295.278,0.7749999761581421,0.011317854456190168
295.603448,,0.011676020717560768,295.741,0.7580000162124634,-0.025953190320892678
296.068966,,0.0116287132715577,296.21,0.7770000100135803,0.01520834477476259
296.534483,,0.011521145215442384,296.671,0.7770000100135803,0.014984770188209639
297.0,,0.010032523261380898,297.14,0.7490000128746033,-0.04622472840467224
297.46551700000003,,0.007134274868148591,297.604,0.7739999890327454,0.008056468826562503
297.931034,,0.004393795190963139,298.066,0.7570000290870667,-0.029137059825116607
298.396552,,0.003107057680032145,298.532,0.7850000262260437,0.03174234995483903
298.862069,,0.003232909749047823,298.996,0.7820000052452087,0.025122049660021236
299.327586,,0.00404640505554717,299.462,0.7739999890327454,0.00764993893823322
299.79310300000003,,0.004869556400465924,299.927,0.6710000038146973,-0.2167532846911707
300.258621,,0.005073433027679296,300.393,1.055999994277954,0.6220680323727436
300.724138,,0.004120382045212481,300.859,0.734000027179718,-0.07936675449027003
301.189655,,0.0019721465588656553,301.325,0.6639999747276306,-0.23174263344210055
301.65517200000005,,0.0006660967091017803,301.79,0.7749999761581421,0.010245539442820186
302.12069,,0.0025701804242904756,302.255,0.7739999890327454,0.00825097176722854
302.586207,,0.002664346046805943,302.718,0.7990000247955322,0.0629237277084796
303.05172400000004,,0.0008776442272511385,303.181,0.7739999890327454,0.008679932771788705
303.517241,,0.0016385742759739863,303.649,0.781000018119812,0.024161484871073804
303.982759,,0.0034382827694881967,304.111,0.6570000052452087,-0.24576176016976525
304.448276,,0.0038772874496957603,304.576,0.777999997138977,0.0180727399988894
304.913793,,0.0031940305599176357,305.039,0.7789999842643738,0.02045328652433095
305.37931000000003,,0.0019576848962461497,305.505,0.7559999823570251,-0.029474225818041756
305.844828,,0.0007790944752231923,305.974,0.7870000004768372,0.03821894974741265
306.310345,,6.494641537723226e-05,306.44,0.7519999742507935,-0.037909943576751426
306.775862,,0.0004358050377804005,306.9,0.7680000066757202,-0.002962919293889406
307.241379,,0.0014255020641467425,307.365,0.765999972820282,-0.00726975649159417
307.70689699999997,,0.00293935923641767,307.83,0.7749999761581421,0.012349609722571611
308.172414,,0.003875360155328035,308.296,0.7630000114440918,-0.013821663602087818
308.637931,,0.0031592251552975464,308.759,0.746999979019165,-0.04874622295775464
309.103448,,0.001027829828367399,309.229,0.7990000247955322,0.06444149048173499
309.568966,,0.0013099545177704156,309.692,0.7620000243186951,-0.016302282943649025
310.034483,,0.0029206448075821062,310.155,0.7789999842643738,0.020573678072753936
310.5,,0.0035787422102071206,310.626,0.7749999761581421,0.011675991174915539
310.96551700000003,,0.003417000550700877,311.089,0.7590000033378601,-0.023381677093924743
311.431034,,0.0029044276611185542,311.555,0.777999997138977,0.017803144678979695
311.896552,,0.002985603099584812,312.018,0.7979999780654907,0.061163924047725755
312.362069,,0.004395741838731615,312.484,0.7770000100135803,0.01520498223033763
312.827586,,0.006526289524699466,312.945,0.7789999842643738,0.019365772668589295
313.29310300000003,,0.007386679271247437,313.41,0.7860000133514404,0.03443676884447898
313.758621,,0.0052009166123334035,313.875,0.7739999890327454,0.008135740075980048
314.224138,,0.0003315584428324966,314.341,0.7850000262260437,0.03197084283165404
314.689655,,0.0044562280379888556,314.807,0.7739999890327454,0.00790639792505946
315.155172,,0.006200513231234515,315.273,0.7609999775886536,-0.02048199922540533
315.62068999999997,,0.004603581443799783,315.741,0.6579999923706055,-0.2449163149820423
316.086207,,0.0022156342921139023,316.203,0.777999997138977,0.016519561746872358
316.551724,,0.0013947964295151505,316.671,0.7820000052452087,0.025266164494821122
317.017241,,0.0020295319468480967,317.133,0.7919999957084656,0.04712018027871034
317.482759,,0.003033393333459869,317.596,0.7760000228881836,0.012362916100806441
317.94827599999996,,0.004671581165573366,318.059,0.7409999966621399,-0.06375960415658898
318.413793,,0.007652091970984014,318.525,0.7720000147819519,0.003932823787673954
318.87931000000003,,0.010769768524576668,318.993,0.7739999890327454,0.008463991511540018
319.344828,,0.011508416569970988,319.458,0.7760000228881836,0.013010172930623592
319.810345,,0.008978987015432743,319.923,0.7739999890327454,0.008850638618782618
320.275862,,0.004830349450831442,320.389,0.7739999890327454,0.009051259161650237
320.741379,,0.0011800035935860083,320.849,0.7739999890327454,0.009248333890545543
321.20689699999997,,0.00119888239758236,321.315,0.7590000033378601,-0.023244298408008783
321.672414,,0.002466940493380179,321.789,0.7739999890327454,0.009606357919343542
322.137931,,0.0025922683752222964,322.248,0.7739999890327454,0.009756140342781201
322.603448,,0.001352676626597507,322.711,0.7300000190734863,-0.08598093019276293
323.068966,,0.0008924910246704139,323.174,0.7749999761581421,0.012150676261977073
323.53448299999997,,0.0030775404291996135,323.645,0.777999997138977,0.01874634637329524
324.0,,0.004259453898966659,324.107,0.7739999890327454,0.010057747057299919
324.465517,,0.004385050185129544,324.573,0.7879999876022339,0.04055066591128834
324.931034,,0.004132730705886777,325.036,0.7839999794960022,0.03179443350314039
325.396552,,0.004094306153307488,325.502,0.7739999890327454,0.009934189612736047
325.86206899999996,,0.004107995559219902,325.966,0.753000020980835,-0.035921799078349005
326.327586,,0.00319632089155033,326.432,0.777999997138977,0.018412089827702142
326.793103,,0.00025931290272934986,326.896,0.7739999890327454,0.00954195061348385
327.258621,,0.004577728885998635,327.362,0.7609999775886536,-0.018954317621604155
327.724138,,0.009075652279236486,327.827,0.7599999904632568,-0.021320158626526826
328.189655,,0.010096140344123442,328.293,0.7839999794960022,0.030772794470020147
328.655172,,0.00651277015862711,328.755,0.777999997138977,0.017505806453250315
329.12068999999997,,0.0007076941572095533,329.225,0.7630000114440918,-0.015363527138742696
329.586207,,0.003440747695719674,329.685,0.7509999871253967,-0.041686493437229695
330.051724,,0.004002500916503011,330.155,0.7739999890327454,0.008259098482500645
330.517241,,0.002111165689060323,330.615,0.7879999876022339,0.03861860866814402
330.982759,,0.000121097915274407,331.085,0.7639999985694885,-0.013783846988986376
331.44827599999996,,0.000445779898873896,331.544,0.7590000033378601,-0.024762481127849692
331.913793,,0.0006787339302769688,332.014,0.7609999775886536,-0.020459108363830164
332.37931,,0.002724855960537333,332.48,0.7770000100135803,0.014378947943060617
332.844828,,0.0039073405800893815,332.945,0.800000011920929,0.0645026367626042
333.310345,,0.0024015161527084173,333.404,0.777999997138977,0.01662247864605124
333.77586199999996,,0.0016205557265245197,333.87,0.781000018119812,0.023242055541506722
334.241379,,0.005517294199182922,334.336,0.7490000128746033,-0.04636133436714118
334.706897,,0.006654230745909071,334.804,0.777999997138977,0.016958424393243722
335.17241399999995,,0.005007263956083614,335.269,0.7590000033378601,-0.02427566066117925
335.637931,,0.0026703074160083877,335.73,0.9470000267028809,0.38549022077373735
336.103448,,0.001290349603888917,336.199,0.7900000214576721,0.043639556792615
336.56896600000005,,0.0008446686694192893,336.66,0.7639999985694885,-0.0127999211741256
337.034483,,0.0006476209208612194,337.129,0.7760000228881836,0.013547032894787505
337.5,,0.0005125659619504777,337.593,0.7760000228881836,0.013741024343308757
337.965517,,0.0006516113172253185,338.055,0.7720000147819519,0.005205020427158795
338.431034,,0.0010731310156020368,338.521,0.7559999823570251,-0.02949653655134891
338.89655200000004,,0.0014692859241619925,338.985,0.7580000162124634,-0.025009736898862846
339.36206899999996,,0.0014902866999340042,339.451,0.7839999794960022,0.03173310265279258
339.827586,,0.0009734633529513576,339.916,0.7689999938011169,-0.0008823271748783678
340.293103,,2.9276221379685236e-06,340.382,0.753000020980835,-0.03571248615559726
340.758621,,0.0011222532758123442,340.848,0.777999997138977,0.018744581888253283
341.224138,,0.00184179869696882,341.314,0.753000020980835,-0.035767327027017244
341.68965499999996,,0.0013613450941339519,341.778,0.7630000114440918,-0.014061765890198665
342.155172,,0.0007192773405594186,342.24,0.7599999904632568,-0.020711102311457272
342.62069,,0.003483562797517529,342.708,0.7570000290870667,-0.02738873894929641
343.086207,,0.004963994099732195,343.17,0.7739999890327454,0.009483088504507187
343.551724,,0.004026664726645943,343.641,0.7490000128746033,-0.045165748843069856
344.01724099999996,,0.001762210241603057,344.103,0.7760000228881836,0.013463766030570659
344.48275900000004,,0.00030000305285589644,344.569,0.753000020980835,-0.036843840450529165
344.948276,,0.0003765251507110663,345.032,0.7839999794960022,0.030497880208800676
345.413793,,0.0009342182845155584,345.497,0.75,-0.04376336232860012
345.87931,,0.0010892099431970674,345.963,0.7590000033378601,-0.024327829396298566
346.344828,,0.0012456203333221145,346.429,0.7739999890327454,0.008200234897088817
346.81034500000004,,0.0017624096070065864,346.889,0.7680000066757202,-0.004996888597380242
347.275862,,0.0017573195097020412,347.354,0.7820000052452087,0.025409794290888674
347.741379,,0.00030049251358081814,347.822,0.7739999890327454,0.007920380949003719
348.206897,,0.001870884032823858,348.288,0.7599999904632568,-0.022605065068975593
348.672414,,0.002890011939408676,348.756,0.7580000162124634,-0.02695088136172157
349.13793100000004,,0.0018591596014365512,349.218,0.8080000281333923,0.08202887690211294
349.60344799999996,,0.00025021342669480275,349.685,0.7599999904632568,-0.022464082256713504
350.068966,,0.001689214246536752,350.147,0.7749999761581421,0.010329372742581782
350.534483,,0.0014180185667682997,350.615,0.7870000004768372,0.03661426136406606
351.0,,0.0003955498792894993,351.077,0.7789999842643738,0.019348972566882443
351.465517,,0.002801037324874612,351.544,0.7620000243186951,-0.01750730208062529
351.93103399999995,,0.004722040868510983,352.007,0.7699999809265137,0.0001122374357691372
352.396552,,0.005340117511589751,352.473,0.8489999771118164,0.17242053334380147
352.862069,,0.004215830679997139,352.938,0.7770000100135803,0.015752386337091275
353.32758600000005,,0.0015906610049623352,353.404,0.777999997138977,0.01811699506380173
353.793103,,0.0012089522343347423,353.87,0.7770000100135803,0.016107908949196816
354.258621,,0.0023201358030588664,354.329,0.7770000100135803,0.016254961043496163
354.72413800000004,,0.0010816216491873834,354.8,0.7789999842643738,0.02073156778938894
355.189655,,0.0010208519106442867,355.266,0.7549999952316284,-0.031468940273731184
355.655172,,0.001866876859417822,355.726,0.7789999842643738,0.02086982926251073
356.12069,,0.0009823051475430287,356.189,0.7590000033378601,-0.022689503900507148
356.586207,,0.0003232786961517107,356.659,0.7570000290870667,-0.02707157675919608
357.05172400000004,,0.0008240374580551331,357.122,0.777999997138977,0.018617531091789104
357.517241,,0.0005992125112747417,357.593,0.777999997138977,0.018520411638422902
357.982759,,0.00042851126159264275,358.055,0.7760000228881836,0.01403518259525225
358.448276,,0.0007200575459739349,358.521,0.7590000033378601,-0.023156618252830476
358.913793,,0.0013704614567347962,358.985,0.7820000052452087,0.0267760940222362
359.37931000000003,,0.0021781864504366913,359.45,0.765999972820282,-0.00827360137770438
359.844828,,0.002759592304063911,359.916,0.7739999890327454,0.008956149936063976
360.310345,,0.0022921112633117317,360.374,0.777999997138977,0.01747021735096902
360.775862,,0.00024881867208908565,360.841,0.7570000290870667,-0.028475904984479047
361.241379,,0.002420691312664567,361.306,0.7749999761581421,0.010557686634303502
361.706897,,0.0036681561124645556,361.774,0.7749999761581421,0.010395117161888172
362.172414,,0.0023834281079561388,362.237,0.7480000257492065,-0.048565738267083866
362.63793100000004,,0.00038565515648438865,362.7,0.7649999856948853,-0.011636740047398437
363.103448,,0.0025447001519291984,363.169,0.7599999904632568,-0.022604364504242608
363.568966,,0.0028882424226874294,363.63,0.7590000033378601,-0.024820798916767167
364.034483,,0.0017301188037736124,364.1,0.7739999890327454,0.0078594633023796
364.5,,0.00013461293215674474,364.566,0.7609999775886536,-0.020423468708431515
364.96551700000003,,0.0010265606744563856,365.028,0.777999997138977,0.016691176237455564
365.431034,,0.0014691519284932158,365.494,0.7760000228881836,0.012447479116923593
365.896552,,0.0013089228737690204,365.96,0.7630000114440918,-0.015729163268789207
366.362069,,0.0005904969790818653,366.426,0.7739999890327454,0.008408834259455229
366.827586,,0.0008131055017153357,366.885,0.7609999775886536,-0.01971959122481775
367.29310300000003,,0.0026324408995378593,367.351,0.7789999842643738,0.019704674745758863
367.758621,,0.003809263189211251,367.816,0.777999997138977,0.01774231971882633
368.224138,,0.003207834348477774,368.282,0.753000020980835,-0.03650764197686452
368.689655,,0.000825667920628991,368.744,0.7749999761581421,0.011630513752338402
369.155172,,0.0019830444424859825,369.214,0.753000020980835,-0.03610743857840437
369.62068999999997,,0.0036238748904033383,369.677,0.7770000100135803,0.016349706462947727
370.086207,,0.0036156613092509166,370.14,0.7559999823570251,-0.029261169377253163
370.55172400000004,,0.0029706955981471665,370.608,0.753000020980835,-0.03569064461312187
371.017241,,0.003247029458119952,371.07,0.7820000052452087,0.027558035800496698
371.482759,,0.005017556489950868,371.536,0.7590000033378601,-0.02252371707806261
371.948276,,0.007259918537085773,372.0,0.777999997138977,0.018855706565995785
372.413793,,0.008448028190365999,372.465,0.7570000290870667,-0.02695292564267317
372.87931000000003,,0.008146497849299113,372.93,0.7590000033378601,-0.022693827309059618
373.344828,,0.007191732827162305,373.396,0.7860000133514404,0.03599362175542128
373.810345,,0.006297969650814905,373.863,0.8230000138282776,0.11643559776233985
374.275862,,0.0049305102924712095,374.329,0.7739999890327454,0.009488096062922873
374.741379,,0.002041177388276095,374.789,0.777999997138977,0.017988687425601908
375.20689699999997,,0.0020136232730038747,375.255,0.7829999923706055,0.02865384222561105
375.672414,,0.004842101970096852,375.722,0.7739999890327454,0.008811500041475092
376.137931,,0.003993528437980171,376.185,0.7540000081062317,-0.03499510923237185
376.603448,,0.0003795604556888606,376.656,0.7519999742507935,-0.039578346115966945
377.068966,,0.00527704082867602,377.118,0.824999988079071,0.119253722001136
377.53448299999997,,0.007461426788360596,377.584,0.7749999761581421,0.010137477323717555
378.0,,0.006208461618452026,378.049,0.7580000162124634,-0.027051926353056883
378.465517,,0.003421786101229744,378.515,0.7570000290870667,-0.029347751464311553
378.931034,,0.0011613433499884597,378.974,0.7789999842643738,0.01850497713525026
379.396552,,0.00047728494130252753,379.44,0.7639999985694885,-0.014208733360896106
379.862069,,0.002548155075271793,379.905,0.7620000243186951,-0.01855493705630597
380.327586,,0.004800523699477245,380.371,0.7789999842643738,0.018538354168405657
380.79310300000003,,0.005392104872662596,380.837,0.7599999904632568,-0.022755285503142347
381.258621,,0.0036338480995616435,381.302,0.7799999713897705,0.020959961426899737
381.724138,,0.0019171074687404604,381.77,0.777999997138977,0.016782872897121243
382.189655,,0.003448206513153814,382.233,0.7789999842643738,0.019174362114174805
382.655172,,0.008131346078181863,382.7,0.765999972820282,-0.008909397873982455
383.12068999999997,,0.012160324344041379,383.163,0.7620000243186951,-0.017367476621488596
383.586207,,0.012381071598977392,383.626,0.7540000081062317,-0.0345314211372593
384.051724,,0.009834706466645233,384.096,0.7889999747276306,0.04198700434468028
384.517241,,0.007821524058356242,384.554,0.7749999761581421,0.011744288153030767
384.982759,,0.007579974926638321,385.026,0.7940000295639038,0.05338151225181531
385.44827599999996,,0.007737863461862599,385.484,0.7820000052452087,0.02745676051688184
385.913793,,0.007437292777607805,385.955,0.7580000162124634,-0.02464359325878336
386.37931,,0.007614115061777042,386.414,0.7609999775886536,-0.017960207623940048
386.84482799999995,,0.008684959010936723,386.886,0.7919999957084656,0.04968054729335738
387.310345,,0.00891839684869636,387.344,0.7940000295639038,0.054092752411809296
387.775862,,0.0063668983923998055,387.811,0.7559999823570251,-0.028691575168659875
388.241379,,0.001600458211759524,388.277,0.7699999809265137,0.0017614852646816548
388.70689699999997,,0.00251998174872635,388.744,0.7770000100135803,0.016912303946222777
389.172414,,0.00373311756223584,389.207,0.777999997138977,0.018942410438579874
389.637931,,0.002590446178382858,389.675,0.9110000133514404,0.3085123398591075
390.103448,,0.0016277142011629263,390.137,0.6890000104904175,-0.175373849772557
390.56896600000005,,0.0025077633646709997,390.6,0.777999997138977,0.018266771267612864
391.03448299999997,,0.004491915329352531,391.07,0.7549999952316284,-0.03212775506646019
391.5,,0.0058748246897278675,391.529,0.7739999890327454,0.00896459714955311
391.965517,,0.005959053678499466,391.996,0.777999997138977,0.017370839861358525
392.431034,,0.004866932860903056,392.462,0.9269999861717224,0.3416880572344839
392.896552,,0.00253615446293169,392.927,0.7599999904632568,-0.022428610063342444
393.36206899999996,,0.0006159177564585806,393.392,0.7620000243186951,-0.01832843937786414
393.827586,,0.0026733806892210487,393.859,0.7599999904632568,-0.02291252929474866
394.293103,,0.0015568575472815736,394.325,0.777999997138977,0.016114937056397757
394.75862099999995,,0.002506196383626388,394.789,0.7599999904632568,-0.0232435991391436
395.224138,,0.0068973074356210385,395.255,0.7710000276565552,0.0006293438152701405
395.68965499999996,,0.009123160713428311,395.715,0.7879999876022339,0.037628735774740046
396.155172,,0.008746711424870317,396.185,0.7570000290870667,-0.02988978157883137
396.62069,,0.006934114668125856,396.645,0.7829999923706055,0.02683156277949176
397.086207,,0.005025726590617674,397.115,0.8399999737739563,0.15114805029352157
397.551724,,0.0038977470659330537,397.581,0.7739999890327454,0.007545735001610154
398.017241,,0.0038831378737855565,398.044,0.7820000052452087,0.025211940628368634
398.48275900000004,,0.004386508820916219,398.51,0.7609999775886536,-0.02026253758958194
398.94827599999996,,0.003922587612074766,398.974,0.781000018119812,0.02361944340680111
399.413793,,0.0016237167258424659,399.44,0.7580000162124634,-0.02615836597829774
399.87931,,0.0013290008836636567,399.904,0.777999997138977,0.017757592622042094
400.344828,,0.00287585112054389,400.369,0.7649999856948853,-0.010220612815069396
400.810345,,0.002741143869510424,400.834,0.7990000247955322,0.06418868421161365
401.27586199999996,,0.0026812358285948053,401.3,0.7760000228881836,0.014395614367050545
401.741379,,0.003718767155706101,401.763,0.765999972820282,-0.007105097943169914
402.206897,,0.004448590774916097,402.225,0.7749999761581421,0.012748542211507966
402.672414,,0.0030357851848376526,402.693,0.7760000228881836,0.015124823739800276
403.137931,,1.1541353402045262e-05,403.155,0.777999997138977,0.01962468146864484
403.60344799999996,,0.0020994548541612376,403.623,0.7749999761581421,0.013171179072040207
404.068966,,0.001605904501994447,404.086,0.5830000042915344,-0.4051141097525009
404.534483,,0.0008336693290966987,404.552,0.7739999890327454,0.01095110700900469
405.0,,0.0033397340787129893,405.017,0.7590000033378601,-0.021852889194763477
405.465517,,0.004572247051897284,405.483,0.7829999923706055,0.030249808511654947
405.931034,,0.004239202505264459,405.948,0.7739999890327454,0.010402431626747987
406.39655200000004,,0.0025710114291604535,406.413,0.7730000019073486,0.00793692322629918
406.862069,,9.546516560281194e-05,406.878,0.7559999823570251,-0.029426181535850707
407.327586,,0.0031425736881167884,407.345,0.7749999761581421,0.011612722102825195
407.793103,,0.00542990155208322,407.805,0.7570000290870667,-0.027976554123830957
408.258621,,0.005797683421515697,408.27,0.7739999890327454,0.008680114779851623
408.72413800000004,,0.004176745918945696,408.741,0.777999997138977,0.017020251450366505
409.18965499999996,,0.0018901816258627673,409.203,0.7739999890327454,0.007949252164515287
409.655172,,0.00032329632792505445,409.664,0.7820000052452087,0.025051655259250773
410.12069,,0.0005130448814650955,410.133,0.753000020980835,-0.038416207971411286
410.586207,,0.0014795513945167192,410.596,0.777999997138977,0.015811513069033886
411.05172400000004,,0.0025534484351481448,411.059,0.7620000243186951,-0.019228713866015514
411.51724099999996,,0.002470900510145994,411.524,0.7919999957084656,0.046011916146885115
411.982759,,0.0004058119474321608,411.992,0.7829999923706055,0.026353211884229726
412.448276,,0.0026424622762738466,412.458,0.7749999761581421,0.008943155162182278
412.913793,,0.004670439728612976,412.922,0.7480000257492065,-0.04979224058435998
413.37931,,0.004658710075967016,413.388,0.7540000081062317,-0.03656692340950641
413.844828,,0.003313178644078702,413.852,0.7710000276565552,0.000684669716079076
414.31034500000004,,0.0019370232533233243,414.318,0.7609999775886536,-0.02083214393041554
414.775862,,0.001131587705857231,414.79,0.7440000176429749,-0.05755250994324653
415.241379,,0.0008199987770739141,415.248,0.7820000052452087,0.0255897951395864
415.706897,,0.0009591657006299627,415.711,0.7549999952316284,-0.03285323121538954
416.172414,,0.0014976195261547248,416.181,0.7739999890327454,0.008936815515165744
416.63793100000004,,0.0017806976937532048,416.642,0.777999997138977,0.018050361738742048
417.103448,,0.0009352497639088322,417.111,0.7590000033378601,-0.022954134941567284
417.568966,,0.0007621085495523624,417.569,0.75,-0.04219434031012263
418.034483,,0.0016840947331964382,418.039,0.7739999890327454,0.010426792348499709
418.5,,0.0006946988914939331,418.504,0.7549999952316284,-0.030678291708726636
418.96551700000003,,0.0013810639957388363,418.97,0.7820000052452087,0.028381087007223804
419.43103399999995,,0.0028861740168919722,419.436,0.7490000128746033,-0.04333957493416199
419.896552,,0.003410324717706974,419.896,0.7739999890327454,0.011234156439953596
420.362069,,0.0036918819940102675,420.362,0.7590000033378601,-0.021408940089040672
420.827586,,0.003685711876454332,420.83,0.7590000033378601,-0.02144495342251949
421.293103,,0.002145002577402004,421.295,0.8519999980926514,0.181062905476205
421.758621,,0.0013528934058954223,421.756,0.753000020980835,-0.034795859338743455
422.22413800000004,,0.0051238114680095875,422.225,0.777999997138977,0.01943509277855503
422.689655,,0.007072529603352249,422.686,0.7580000162124634,-0.024430262924752772
423.15517200000005,,0.00703272153523748,423.155,0.765999972820282,-0.007342269330610008
423.62069,,0.006577213846577917,423.618,0.7739999890327454,0.009707448279027142
424.086207,,0.006943730628305944,424.081,0.7129999995231628,-0.12359724650385032
424.55172400000004,,0.007909228857817486,424.546,0.7590000033378601,-0.023802889589729318
425.017241,,0.008437571921647942,425.011,0.7590000033378601,-0.024229090779464196
425.482759,,0.007776429572697096,425.476,0.7820000052452087,0.025465614213391077
425.948276,,0.006028161267024972,425.94,0.7599999904632568,-0.022853416633376793
426.413793,,0.004040890613330027,426.407,0.7829999923706055,0.026904747445454437
426.87931000000003,,0.002517662810264249,426.874,0.7739999890327454,0.006995630300066802
427.344828,,0.0010475135509677388,427.34,0.7570000290870667,-0.030283505907670136
427.810345,,0.0012739610913291898,427.804,0.753000020980835,-0.039174093335239496
428.275862,,0.003808741839543407,428.27,0.7979999780654907,0.058761653766724806
428.741379,,0.004084994732275633,428.73,0.7570000290870667,-0.030589005171721206
429.20689699999997,,0.0007803689610902699,429.199,0.7739999890327454,0.006500020580585998
429.672414,,0.003716909292763841,429.66,0.7609999775886536,-0.021693585134192152
430.137931,,0.005230985377896158,430.13,0.7409999966621399,-0.06506490558960713
430.603448,,0.0021813325571664157,430.593,0.7620000243186951,-0.019045183850920046
431.068966,,0.0029935200837360124,431.055,0.7739999890327454,0.007425751377405983
431.534483,,0.006562921373912918,431.521,0.7580000162124634,-0.027055359234167915
432.0,,0.006626130592732639,431.985,0.753000020980835,-0.03753322091375417
432.46551700000003,,0.00382413678429615,432.45,0.8709999918937683,0.21998993071708925
432.931034,,0.0003450639549826366,432.915,0.7620000243186951,-0.0170242826424419
433.396552,,0.0014697628460624253,433.381,0.777999997138977,0.01829250609328539
433.862069,,0.0006375075247624096,433.845,0.7789999842643738,0.0209136494370982
434.327586,,0.0016378574955632388,434.31,0.7609999775886536,-0.01788958483135757
434.79310300000003,,0.003078663259700586,434.778,0.7760000228881836,0.015159003108592597
435.258621,,0.0026542461328396745,435.241,0.7850000262260437,0.03508027215232325
435.724138,,0.0014165331369026186,435.704,0.6549999713897705,-0.24789833243991574
436.189655,,0.0008437113383096394,436.174,0.7789999842643738,0.02242198050790776
436.655172,,0.0010607440485557466,436.634,0.7559999823570251,-0.02760129033071908
437.12068999999997,,0.0012197763296307941,437.103,0.777999997138977,0.020331296507018332
437.586207,,0.0009222267303897033,437.569,0.7599999904632568,-0.01896601495354632
438.051724,,0.00037144149925256667,438.031,0.7739999890327454,0.01137166402000038
438.517241,,0.00043202374359747387,438.497,0.7649999856948853,-0.008476708091234329
438.982759,,0.001563528665017975,438.959,0.7559999823570251,-0.028395328800245683
439.448276,,0.002349670263489183,439.425,0.7749999761581421,0.012627183498198458
439.913793,,0.0018057192093423862,439.889,0.8920000195503235,0.26711044760213815
440.37931000000003,,0.00016533964460216908,440.354,0.7770000100135803,0.01611536607375438
440.844828,,0.0010550304137123432,440.819,0.7760000228881836,0.013466332443521923
441.310345,,0.0010480332235237237,441.285,0.7649999856948853,-0.01097735458574339
441.775862,,0.0009022552835017925,441.756,0.7559999823570251,-0.031057630438472806
442.241379,,0.0020864692207725787,442.218,0.7789999842643738,0.01859942075429431
442.70689699999997,,0.004383486865060855,442.685,0.8320000171661377,0.1336523281831503
443.172414,,0.006142802447431689,443.148,0.7749999761581421,0.009104344926208735
443.637931,,0.006271236316367037,443.611,0.8450000286102295,0.1613073536770108
444.103448,,0.005216143769085847,444.074,0.7910000085830688,0.04343013327889323
444.568966,,0.004006041821150538,444.54,0.7620000243186951,-0.01990229194513076
445.03448299999997,,0.0029745601340468047,445.007,0.7260000109672546,-0.0984047084524057
445.5,,0.0017313087238560955,445.473,0.8569999933242798,0.18701095432255743
445.965517,,2.916189673952537e-05,445.937,0.7950000166893005,0.05203409714069747
446.431034,,0.0017811203016498956,446.403,0.777999997138977,0.015180122064996426
446.896552,,0.0031224658339643213,446.868,0.7770000100135803,0.013261178768707926
447.36206899999996,,0.0036868721076654914,447.333,0.7590000033378601,-0.0256267015263903
447.827586,,0.0034917136152078903,447.8,0.777999997138977,0.01615341713269942
448.29310300000003,,0.0027231947879786857,448.265,0.7580000162124634,-0.026987359307034647
448.758621,,0.0016893184578359527,448.726,0.7799999713897705,0.021408349259626657
449.224138,,0.0006782630260149011,449.196,0.781000018119812,0.02407237788238731
449.689655,,0.0004182210956043406,449.659,0.7620000243186951,-0.016831525755139614
450.155172,,0.00204143442109695,450.122,0.796999990940094,0.05990173982381492
450.62068999999997,,0.003925449669579844,450.593,0.7760000228881836,0.014606894357238253
451.086207,,0.004331517101660799,451.055,0.7599999904632568,-0.019833155178703776
451.551724,,0.0014292366135291153,451.521,0.7570000290870667,-0.026002828112332232
452.017241,,0.004082476498371508,451.985,0.7609999775886536,-0.016985990835299346
452.482759,,0.008665236215419028,452.45,0.7630000114440918,-0.012399309974867045
452.94827599999996,,0.009201569925067717,452.915,0.7749999761581421,0.013893933233360167
453.413793,,0.006192509844200904,453.374,0.7820000052452087,0.02921022310513401
453.87931,,0.00285878532135992,453.845,0.7239999771118164,-0.09717240539747725
454.344828,,0.0013696504088081011,454.304,0.7570000290870667,-0.025385297683609583
454.810345,,0.0010826277844304835,454.774,0.777999997138977,0.020174066201041205
455.27586199999996,,0.0004926528901366015,455.236,0.7590000033378601,-0.021489385157984698
455.741379,,0.0005891402432405552,455.7,0.75,-0.041435630644350366
456.206897,,0.001597058498943134,456.17,0.7739999890327454,0.010454305714154509
456.672414,,0.00268644390449797,456.63,0.7680000066757202,-0.0030616654583822153
457.137931,,0.004186067397008563,457.1,0.7559999823570251,-0.029682567680976213
457.603448,,0.00511581697269723,457.559,0.7570000290870667,-0.027999794072326313
458.06896600000005,,0.0038491095874330465,458.029,0.7739999890327454,0.00853756169531654
458.53448299999997,,0.0004532621049274373,458.495,0.7549999952316284,-0.03334436601543386
459.0,,0.0028921232091336075,458.96,0.7590000033378601,-0.02509073125601043
459.465517,,0.004375374604487311,459.425,0.777999997138977,0.015883549535385514
459.931034,,0.004507252556266062,459.89,0.7820000052452087,0.02423284806356952
460.39655200000004,,0.004877835707648851,460.355,0.753000020980835,-0.03924732964163502
460.86206899999996,,0.005802222230964025,460.815,0.6909999847412109,-0.1745500600016042
461.327586,,0.006191407207585778,461.28,0.7820000052452087,0.02355953326600474
461.793103,,0.005180189265538365,461.748,0.7739999890327454,0.006068437291495682
462.258621,,0.0029295450212897807,462.211,0.7570000290870667,-0.030941526610521866
462.724138,,0.0003152235701265382,462.678,0.753000020980835,-0.03954179602084696
463.18965499999996,,0.001413448395974888,463.14,0.7720000147819519,0.002050807196430455
463.655172,,0.0013779932613303377,463.604,0.7620000243186951,-0.0194588846384965
464.12069,,0.0003219710937458507,464.074,0.7820000052452087,0.024461379582043835
464.58620699999994,,0.00036412398772793996,464.539,0.746999979019165,-0.051384142472281326
465.051724,,0.0025286566549929607,465.004,0.7799999713897705,0.02096575807727421
465.517241,,0.005161894661303002,465.47,0.7739999890327454,0.00838222678424175
465.98275900000004,,0.005859665226178963,465.93,0.7570000290870667,-0.028147442133408144
466.448276,,0.0044401426944382085,466.395,0.5929999947547913,-0.3849391449008782
466.913793,,0.002802016918376967,466.859,0.7599999904632568,-0.020617144324298457
467.37931,,0.002161827325394499,467.325,0.7760000228881836,0.01469835767219184
467.844828,,0.0018111099480226857,467.793,0.7870000004768372,0.03908010267890663
468.31034500000004,,0.000741861151741156,468.259,0.753000020980835,-0.03463019130570257
468.77586199999996,,0.0007769735730487337,468.722,0.7739999890327454,0.011420458825857446
469.241379,,0.0019291287212834394,469.184,0.7490000128746033,-0.04282074728754535
469.706897,,0.00286046681824973,469.655,0.7540000081062317,-0.03178403083992354
470.172414,,0.004392953276512449,470.118,0.7870000004768372,0.040169224534213545
470.63793100000004,,0.0062983448708846075,470.584,0.7739999890327454,0.01181815163833571
471.10344799999996,,0.00691970595738842,471.05,0.6959999799728394,-0.1582322279602707
471.568966,,0.005090037345458667,471.515,0.7789999842643738,0.022394538464367383
472.034483,,0.0017791959348200993,471.975,0.7549999952316284,-0.03017241988655614
472.5,,0.0008973169204721543,472.441,0.7879999876022339,0.04137492420205376
472.965517,,0.0019756552631997946,472.908,0.7739999890327454,0.010468039042444055
473.43103399999995,,0.0022497678565866425,473.374,0.7720000147819519,0.005659450077630976
473.89655200000004,,0.002764226354201772,473.834,0.7620000243186951,-0.016610947377678726
474.362069,,0.003578453178726284,474.299,0.777999997138977,0.017745243247855907
474.827586,,0.004338128883412263,474.767,0.777999997138977,0.01724034546969503
475.293103,,0.0052790638709066815,475.229,0.6240000128746033,-0.3187667026383822
475.758621,,0.006769024642950517,475.7,0.7789999842643738,0.018450636674189332
476.22413800000004,,0.008117135789100243,476.162,0.7269999980926514,-0.09527407192125409
476.689655,,0.007908735388028165,476.63,0.7620000243186951,-0.01940301132152571
477.155172,,0.005831720948780126,477.092,0.7760000228881836,0.010782062775322981
477.62069,,0.0033799429124057095,477.558,0.7770000100135803,0.01272147023710939
478.086207,,0.002250999603952367,478.021,0.7839999794960022,0.02781752149125083
478.55172400000004,,0.002530613175241824,478.486,0.7820000052452087,0.023395838294423873
479.01724099999996,,0.002878665363397848,478.952,0.746999979019165,-0.05282981269816422
479.482759,,0.00215162697573433,479.418,0.7699999809265137,-0.00260372178644483
479.948276,,0.0004350020652193071,479.882,0.796999990940094,0.05642434155711788
480.413793,,0.0012807666898303838,480.348,0.7739999890327454,0.006602215926508268
480.87931000000003,,0.0019241575932909432,480.815,0.777999997138977,0.015677022606628673
481.344828,,0.000844926917794001,481.281,0.7760000228881836,0.011742102687004851
481.810345,,0.0018374625160393965,481.741,0.777999997138977,0.016570956720995275
482.275862,,0.00488613120304982,482.211,0.7609999775886536,-0.0199599348580329
482.74137900000005,,0.006345305284644705,482.671,0.7739999890327454,0.008887410910935777
483.206897,,0.005003319813512056,483.14,0.7639999985694885,-0.012371634047829275
483.672414,,0.0015457477221646103,483.6,0.7559999823570251,-0.029287401023594194
484.13793100000004,,0.002032580753047378,484.07,0.7720000147819519,0.006054551795441496
484.603448,,0.0041653050356624645,484.536,0.9810000061988831,0.4618351884345156
485.068966,,0.004828125355928425,485.0,0.7710000276565552,0.00471170476161414
485.534483,,0.005153602311354972,485.465,0.7699999809265137,0.0028591315384722668
486.0,,0.006084676551988363,485.925,0.7730000019073486,0.009640168790598418
486.46551700000003,,0.007306639031824174,486.391,0.7599999904632568,-0.018526640960852568
486.931034,,0.00750931711089166,486.856,0.7620000243186951,-0.014108722471080382
487.396552,,0.0058855178413954705,487.322,0.777999997138977,0.020712825713348343
487.862069,,0.003280208607346782,487.789,0.7820000052452087,0.02929475339833811
488.327586,,0.0013334763313962205,488.254,0.7770000100135803,0.018176997473261874
488.79310300000003,,0.00037497071479404467,488.716,0.7749999761581421,0.013509724389943299
489.258621,,0.0008875031711458206,489.185,0.7590000033378601,-0.021735052052813227
489.724138,,0.002932921627408472,489.648,0.7820000052452087,0.027922432561770114
490.189655,,0.0038143396393765126,490.111,0.7609999775886536,-0.018331698063412488
490.655172,,0.0013919468213033973,490.577,0.777999997138977,0.018167444714516267
491.12069,,0.0034234164148577327,491.04,0.7620000243186951,-0.01724766335535311
491.586207,,0.0072031662761964065,491.505,0.7760000228881836,0.012695173183498599
492.05172400000004,,0.007732295888508185,491.97,0.777999997138977,0.016510483777364336
492.517241,,0.005955136642657574,492.436,0.7630000114440918,-0.016677683975617554
492.982759,,0.004035453934791742,492.9,0.7609999775886536,-0.02149447815225901
493.448276,,0.0027753176619650884,493.366,0.7599999904632568,-0.02406917690359221
493.913793,,0.0017953443682023461,493.831,1.0230000019073486,0.5486004789426162
494.37931000000003,,0.001324329007747385,494.297,0.7789999842643738,0.01679129154564348
494.844828,,0.0022113832522126313,494.759,0.7609999775886536,-0.022544354567824484
495.310345,,0.004029184219159091,495.229,0.7739999890327454,0.0057557223018395495
495.775862,,0.004624816975326439,495.689,0.7760000228881836,0.010189192249060688
496.241379,,0.0025137956900040635,496.159,0.7620000243186951,-0.020139550505682908
496.70689699999997,,0.001012753337209999,496.622,0.7749999761581421,0.008445862849292454
497.172414,,0.003191188729413159,497.085,0.8349999785423279,0.1395119119212463
497.637931,,0.002981798865209332,497.551,0.7760000228881836,0.011393486298238779
498.103448,,0.002168208613169737,498.017,0.7580000162124634,-0.02734024078287931
498.568966,,0.003178891588420351,498.483,0.7860000133514404,0.0341878667767001
499.03448299999997,,0.006293092404430396,498.949,0.7580000162124634,-0.026260556633222118
499.5,,0.009238396274982448,499.414,0.7960000038146973,0.05709264453428579
499.96551700000003,,0.009486527755846023,499.874,0.753000020980835,-0.036031305400523024
500.431034,,0.00688462442571217,500.34,0.7620000243186951,-0.015890206689959233
500.89655200000004,,0.0038419511458761507,500.805,0.4650000035762787,-0.6624630550971518
501.362069,,0.0027020482862426943,501.271,0.7820000052452087,0.028587674158804723
501.827586,,0.0032376487187634317,501.734,0.7570000290870667,-0.02553332668288292
502.293103,,0.003380617834027123,502.203,0.7910000085830688,0.048807739118829935
502.758621,,0.0022225572117167062,502.667,0.7789999842643738,0.02284573736921217
503.224138,,0.0011099208168910636,503.129,0.7269999980926514,-0.09035319418710756
503.68965499999996,,0.0013532715989743001,503.6,0.7639999985694885,-0.009747203083973225
504.15517200000005,,0.0021882772693803845,504.063,0.7630000114440918,-0.01202371045341617
504.62068999999997,,0.002198362416207552,504.528,0.777999997138977,0.02046861544137063
505.08620699999994,,0.0017437567349794538,504.993,0.7760000228881836,0.01584109391404318
505.55172400000004,,0.00220673848632059,505.459,0.7599999904632568,-0.019362101208866004
506.017241,,0.0031660249834365036,505.926,0.6290000081062317,-0.3051766738641097
506.48275899999993,,0.0022312938117855403,506.384,0.7599999904632568,-0.020242046297014756
506.948276,,0.001811765451105166,506.849,0.7599999904632568,-0.020750263260895928
507.413793,,0.006994157452029825,507.315,0.7749999761581421,0.011399869586254706
507.87931,,0.010072632590625465,507.789,0.7770000100135803,0.015223210297927472
508.344828,,0.009819586642820451,508.248,0.7950000166893005,0.053917428892817275
508.810345,,0.007773071582215938,508.715,0.7749999761581421,0.00985154712792011
509.27586199999996,,0.006065086019378546,509.177,0.7649999856948853,-0.012384893401520661
509.74137900000005,,0.005346923337949193,509.641,0.7739999890327454,0.006828582094809034
510.20689699999997,,0.0051000230379285895,510.111,0.7599999904632568,-0.023999853933403634
510.67241399999995,,0.005125260936875777,510.569,0.7609999775886536,-0.022072469058679087
511.13793100000004,,0.005684437653031132,511.039,0.7580000162124634,-0.028776679199692803
511.603448,,0.006385058723397448,511.505,0.6470000147819519,-0.2706898581976365
512.0689659999999,,0.006053277878587499,511.964,0.7870000004768372,0.03432352133477585
512.534483,,0.004042625070254006,512.43,0.7590000033378601,-0.026588378624304125
513.0,,0.0010014713055193816,512.896,0.7730000019073486,0.004089449574835029
513.465517,,0.0019143254901895772,513.362,0.765999972820282,-0.010903806957900424
513.931034,,0.004116677380619531,513.827,0.7630000114440918,-0.01710991910112332
514.396552,,0.005651517551098279,514.292,0.777999997138977,0.01596166038384092
514.862069,,0.006456951857812118,514.756,0.7630000114440918,-0.016275989952995645
515.327586,,0.005900782575879729,515.225,0.777999997138977,0.016882320323689744
515.793103,,0.0034921748890165507,515.686,0.777999997138977,0.017383050096517267
516.258621,,0.00022316270598456828,516.155,0.7739999890327454,0.009176172992799382
516.724138,,0.0015810992326680691,516.618,0.777999997138977,0.01838996425544197
517.189655,,0.0006535860034469486,517.081,0.7580000162124634,-0.02470784839184058
517.655172,,0.001478368474942317,517.547,0.7820000052452087,0.028016170019360468
518.1206900000001,,0.002266042125553143,518.011,0.7590000033378601,-0.02170804641665355
518.5862070000001,,0.001319903232244785,518.477,0.7739999890327454,0.011292973709512695
519.051724,,0.0005766784725823799,518.944,0.777999997138977,0.020256142634330353
519.517241,,0.0014187451365585582,519.41,0.7639999985694885,-0.010076284436776425
519.982759,,0.0029973373173699997,519.875,0.7599999904632568,-0.018707506434991243
520.448276,,0.00373370905826921,520.34,0.7820000052452087,0.029218711525196603
520.9137929999999,,0.0032570952423613057,520.8,0.7749999761581421,0.013877591222374306
521.37931,,0.0021735210920676385,521.266,0.7630000114440918,-0.012440042792037219
521.844828,,0.0009319146906318853,521.734,0.7990000247955322,0.06573972809949036
522.310345,,6.43601285015099e-05,522.196,0.7739999890327454,0.010952670664924067
522.7758620000001,,6.064503665147783e-05,522.659,0.7620000243186951,-0.01557140764442485
523.241379,,0.0017524166826649,523.129,0.753000020980835,-0.03560856701402107
523.7068969999999,,0.003757528922530551,523.597,0.7609999775886536,-0.018644909741651915
524.172414,,0.003948938069024501,524.059,0.7590000033378601,-0.023489324807045995
524.637931,,0.0017771904770050248,524.524,0.7760000228881836,0.013054194895346006
525.103448,,0.0008215083706769147,524.989,0.7739999890327454,0.00821254676167774
525.568966,,0.0015053846128336697,525.455,0.7509999871253967,-0.04235679252729
526.034483,,0.0002469900716529721,525.919,0.7620000243186951,-0.018814788694138707
526.5,,0.0006083696851506872,526.385,0.7590000033378601,-0.025724049353650726
526.9655170000001,,0.0008370249262014828,526.844,0.7820000052452087,0.024073393132140894
527.4310340000001,,0.0036408806425402536,527.31,0.7419999837875366,-0.0633129050192975
527.8965519999999,,0.004959028976477551,527.778,0.7839999794960022,0.02802818547711997
528.362069,,0.003169558582791438,528.24,0.7789999842643738,0.0170564044675336
528.827586,,0.0005164754747058112,528.708,0.781000018119812,0.021421686025541422
529.293103,,0.0035241540104395367,529.17,0.777999997138977,0.014979495623725103
529.7586210000001,,0.004343623496997897,529.634,0.7639999985694885,-0.015345372785666531
530.224138,,0.003314216958250899,530.103,0.6600000262260437,-0.24167439263274568
530.689655,,0.001689595166511483,530.569,0.8429999947547913,0.1573344150456279
531.155172,,0.00048429518212273035,531.032,0.7749999761581421,0.009561759635266063
531.62069,,0.00010131569660551419,531.497,0.7599999904632568,-0.02269394851727681
532.086207,,0.0005558910724832974,531.966,0.7919999957084656,0.04748097273342248
532.5517239999999,,0.0011969398205381532,532.424,0.4699999988079071,-0.6535710183752987
533.017241,,0.0015083626501268322,532.889,0.7820000052452087,0.026635545499576144
533.482759,,0.0009751767477217887,533.354,0.7739999890327454,0.009660823005843689
533.9482760000001,,0.00043425884009438867,533.819,0.7739999890327454,0.010094054552882547
534.413793,,0.0013999426002356955,534.285,0.7599999904632568,-0.02000816710310969
534.87931,,0.00371620370411962,534.755,0.753000020980835,-0.03490645642739913
535.344828,,0.0051016684683807875,535.217,0.722000002861023,-0.10215046035901285
535.810345,,0.0037661003009204566,535.686,0.781000018119812,0.02661734459093052
536.275862,,0.0005610743950178841,536.148,0.7739999890327454,0.011522541734452225
536.7413789999999,,0.002241766726927042,536.611,0.7730000019073486,0.009424541285038121
537.206897,,0.0034988807203057645,537.074,0.7820000052452087,0.029035668615887515
537.672414,,0.0036657029104380373,537.539,0.7599999904632568,-0.018968726012464576
538.137931,,0.0034045942524570222,538.004,0.7559999823570251,-0.02783318411735209
538.6034480000001,,0.0027457223911335478,538.47,0.7760000228881836,0.0155186236952195
539.0689659999999,,0.0014852611292692445,538.937,0.7839999794960022,0.03266247014063191
539.5344829999999,,0.00017684364610153397,539.403,0.7850000262260437,0.03450112134420405
540.0,,0.0014383525066413668,539.867,0.7739999890327454,0.010150929381026002
540.465517,,0.0013698993599487964,540.332,0.7599999904632568,-0.020769398632075668
540.931034,,1.848117722565491e-05,540.797,0.7699999809265137,0.0005752334737053897
541.396552,,0.0012660830675500926,541.262,0.753000020980835,-0.03691349841783687
541.862069,,0.0007318513941802338,541.726,0.753000020980835,-0.03736252585242013
542.327586,,0.0013761112751565021,542.196,0.777999997138977,0.016670605500541245
542.7931030000001,,0.002790957312505851,542.656,0.8069999814033508,0.07944842284865036
543.258621,,0.0013733108766167308,543.125,0.7820000052452087,0.024622125384087878
543.7241379999999,,0.0026376823812646407,543.584,0.7979999780654907,0.05917348667457945
544.189655,,0.0065778473276174665,544.05,0.7739999890327454,0.006640571638090828
544.655172,,0.0075091761033435865,544.516,0.777999997138977,0.015177852376567744
545.12069,,0.004735432736397629,544.981,0.7620000243186951,-0.01978545078100244
545.5862070000001,,0.00041261991109095087,545.447,0.7770000100135803,0.012864229792349207
546.051724,,0.002530391463769052,545.911,0.7990000247955322,0.06084080648564828
546.517241,,0.003120063431812209,546.376,0.7730000019073486,0.004317494682366416
546.982759,,0.0028079345843626275,546.841,0.7799999713897705,0.01976077100460873
547.448276,,0.003468688752273594,547.306,0.7549999952316284,-0.03444792826123035
547.9137929999999,,0.005437658510090995,547.774,0.753000020980835,-0.038491499980789115
548.3793099999999,,0.007425571483841923,548.236,0.7599999904632568,-0.022880786910292803
548.844828,,0.007792217703174422,548.7,0.7559999823570251,-0.031198939506321056
549.310345,,0.005879118204085086,549.17,0.7820000052452087,0.025867684574701913
549.775862,,0.002677026317257248,549.633,0.7620000243186951,-0.017269945592989226
550.241379,,0.00027414826728231417,550.096,0.7710000276565552,0.0027742498777262453
550.706897,,7.147394877306413e-05,550.561,0.7490000128746033,-0.04473162624097743
551.172414,,0.00038827419775101335,551.024,0.7910000085830688,0.047172192074753254
551.637931,,0.0010150701726911087,551.49,0.777999997138977,0.01921593694417736
552.103448,,0.004877264883257838,551.955,0.75,-0.041464997074233574
552.568966,,0.008103153201442385,552.421,0.7630000114440918,-0.012876414802852912
553.034483,,0.007019648160051092,552.885,0.8009999990463257,0.07011640305615506
553.5,,0.0018688080732783359,553.351,0.7739999890327454,0.011430524828160721
553.965517,,0.003132428853526558,553.818,0.7749999761581421,0.013676192617978603
554.4310340000001,,0.004458308370197176,554.284,0.7559999823570251,-0.027724384642386468
554.896552,,0.002776692566290552,554.744,0.7820000052452087,0.028841019732499376
555.3620689999999,,0.0012071775993756108,555.214,0.824999988079071,0.12237385243671779
555.827586,,0.0013309621083837837,555.678,0.7590000033378601,-0.021630402298849803
556.293103,,0.002211159371394727,556.14,0.777999997138977,0.01949082417095734
556.758621,,0.002603483045044916,556.604,0.7730000019073486,0.0082719362134502
557.224138,,0.002396797472862906,557.073,0.7850000262260437,0.03404717714086088
557.689655,,0.0018048262575461134,557.539,0.7599999904632568,-0.020820366723620965
558.155172,,0.0006731695809404456,558.004,0.7519999742507935,-0.038672959773829924
558.6206900000001,,0.0008137272229558618,558.469,0.7789999842643738,0.019716862662056953
559.0862070000001,,0.0017909427984306257,558.934,0.7739999890327454,0.008392663456679687
559.5517239999999,,0.0018308657974557777,559.4,0.7699999809265137,-0.0007375965546466473
560.017241,,0.0017836860850913613,559.859,0.7620000243186951,-0.018555524362696585
560.482759,,0.002681742823714916,560.325,0.7789999842643738,0.018130514726042147
560.948276,,0.003929751397497828,560.789,0.7760000228881836,0.011292195324258573
561.413793,,0.003414187837727944,561.256,0.765999972820282,-0.010739644430301199
561.87931,,4.118429781806217e-06,561.726,0.7490000128746033,-0.04795823350553786
562.344828,,0.0045373286234239585,562.188,0.7649999856948853,-0.013213117404631837
562.8103450000001,,0.007010369869033719,562.656,0.7580000162124634,-0.02850478469474802
563.275862,,0.006368442002525608,563.118,0.7519999742507935,-0.04154458081883427
563.7413789999999,,0.004499155741067514,563.584,0.753000020980835,-0.039261224541282225
564.206897,,0.003310900123595349,564.05,0.7979999780654907,0.058953020014589214
564.672414,,0.002428505509508002,564.516,0.7739999890327454,0.006907674889561316
565.137931,,0.0006216486190834996,564.974,0.7789999842643738,0.018103606168469216
565.603448,,0.001731700182268487,565.439,0.765999972820282,-0.009864620523364016
566.068966,,0.002987096570152259,565.911,0.8370000123977661,0.1452163096698951
566.534483,,0.0025672917962153785,566.369,0.8289999961853027,0.12821732066858682
567.0,,0.001748583511243522,566.841,0.777999997138977,0.017557616362109542
567.465517,,0.002061482071740569,567.299,0.7799999713897705,0.02237223459326601
567.931034,,0.0037064733179561606,567.767,0.7739999890327454,0.009749285571751858
568.396552,,0.0057402203663321615,568.229,0.6470000147819519,-0.2665144922454195
568.862069,,0.007143204933437905,568.697,0.7570000290870667,-0.026478045658224487
569.327586,,0.007257601824074124,569.159,0.8019999861717224,0.0718977661414686
569.793103,,0.0057407866837176896,569.63,0.7590000033378601,-0.02150262637751849
570.2586210000001,,0.0029719565331166402,570.092,0.781000018119812,0.026645348871315967
570.724138,,0.0004566954938408355,570.558,0.6100000143051147,-0.3457594743513959
571.189655,,0.00011597117631684644,571.021,0.7749999761581421,0.013781166476010827
571.655172,,0.0012324933055147208,571.487,0.7760000228881836,0.01594413582140692
572.12069,,0.002273430291636217,571.952,0.7559999823570251,-0.02772075322987719
572.586207,,0.0006750335267750539,572.418,0.7850000262260437,0.035294915690415644
573.051724,,0.0032309191297379505,572.882,0.7710000276565552,0.004560468566806614
573.517241,,0.00620155353403823,573.348,0.7570000290870667,-0.02623551138263363
573.982759,,0.005179871791107109,573.815,0.777999997138977,0.01916779854391652
574.4482760000001,,0.00074160793188748,574.28,0.7820000052452087,0.027491482285038022
574.913793,,0.0031409934111279484,574.741,0.7739999890327454,0.009640321784465835
575.37931,,0.0032321927569659353,575.21,0.7459999918937683,-0.05180339474767798
575.844828,,0.0005293378530038619,575.674,0.9259999990463257,0.33990716994535736
576.310345,,0.0009861032007188579,576.136,0.7620000243186951,-0.017826467552016705
576.775862,,0.0010080679153417807,576.604,0.6060000061988831,-0.35811334319218224
577.241379,,0.004463513638099899,577.067,0.7770000100135803,0.0140418472829356
577.706897,,0.005347711359895226,577.533,0.7620000243186951,-0.018993521630785565
578.172414,,0.0023683795401827877,577.999,0.7789999842643738,0.017739171927947373
578.6379310000001,,0.0015912143418598773,578.465,0.7519999742507935,-0.04132855862221557
579.1034480000001,,0.0029625573825810977,578.93,0.7599999904632568,-0.02407686033950237
579.5689659999999,,0.001439221953226249,579.395,0.7839999794960022,0.02810528764842866
580.034483,,0.00031776698318374447,579.859,0.7879999876022339,0.03679091223035468
580.5,,0.0002478762302935713,580.325,0.7739999890327454,0.006338556778774085
580.965517,,0.0009702209052994625,580.793,0.7739999890327454,0.006463259110053849
581.431034,,0.0014159690552763761,581.251,0.7789999842643738,0.017553493399014033
581.896552,,0.0005886008799924514,581.719,0.7789999842643738,0.01781736900092376
582.362069,,0.00022932314259137103,582.181,0.7609999775886536,-0.021075377886598096
582.827586,,5.2985262193826e-05,582.649,0.7580000162124634,-0.027239213767822644
583.2931030000001,,0.0010317380006246795,583.111,0.7990000247955322,0.06249615291443851
583.758621,,0.0017390078625484728,583.576,0.7739999890327454,0.00846846669315125
584.2241379999999,,0.0019532698641728245,584.039,0.7609999775886536,-0.019400556930974585
584.689655,,0.00201345107939087,584.505,0.7739999890327454,0.009376334616045564
585.155172,,0.0019965235449421834,584.974,0.777999997138977,0.018533513341113802
585.6206900000001,,0.0017018435876922776,585.439,0.7580000162124634,-0.02462155310854438
586.0862070000001,,0.0010727586218037815,585.904,0.753000020980835,-0.03513451671626117
586.551724,,0.0002539525189272159,586.369,0.7749999761581421,0.013127124037505348
587.017241,,0.0004499225131315075,586.834,0.777999997138977,0.019936894456890085
587.482759,,0.0005447702964371389,587.299,0.7760000228881836,0.015788241964756557
587.948276,,0.0002935523013325529,587.763,0.781000018119812,0.02681881472317272
588.4137929999999,,0.0017494300561615873,588.226,0.5889999866485596,-0.3914233649918784
588.87931,,0.003143151195600967,588.689,0.7739999890327454,0.011601131431813173
589.344828,,0.004141512139311502,589.159,0.7630000114440918,-0.012469738554951813
589.810345,,0.0048034206829593905,589.619,0.6779999732971191,-0.1978361868812185
590.2758620000001,,0.005041001656483882,590.089,0.7739999890327454,0.011061532257959148
590.741379,,0.004546223857647741,590.555,0.7580000162124634,-0.024111526470401677
591.2068969999999,,0.003330443362407892,591.018,0.7820000052452087,0.027810345424482956
591.672414,,0.0019874769046341625,591.484,0.765999972820282,-0.00745353639894884
592.137931,,0.0011791898950580628,591.948,0.7770000100135803,0.016078585641373384
592.603448,,0.0008529461607178262,592.414,0.777999997138977,0.017809290153163078
593.068966,,0.00022138174475174315,592.874,0.7490000128746033,-0.04582145850300938
593.534483,,0.001089183864754355,593.34,0.7979999780654907,0.06049319509514686
594.0,,0.0020532946562168966,593.807,0.7590000033378601,-0.024889047579591192
594.4655170000001,,0.0012817836446480727,594.273,0.7739999890327454,0.007411418718245499
594.9310340000001,,0.0007479596848546115,594.734,0.8109999895095825,0.08768924485655567
595.3965519999999,,0.0016548321370465147,595.203,0.7540000081062317,-0.036768932877049285
595.862069,,0.0002182814868836996,595.667,0.7739999890327454,0.006592326083609094
596.327586,,0.001492665823136785,596.129,0.7590000033378601,-0.02623041048228911
596.793103,,0.0005036219173359875,596.597,0.7559999823570251,-0.03283729227539349
597.2586210000001,,0.0029518707692669623,597.059,0.7559999823570251,-0.03283477834839836
597.724138,,0.005358891083331935,597.525,0.7760000228881836,0.010814095153319377
598.189655,,0.0041776888769076625,597.992,0.7739999890327454,0.006604004668576051
598.655172,,0.0006534886722347206,598.459,0.7590000033378601,-0.025861476251434725
599.12069,,0.0022385377547434106,598.925,0.8199999928474426,0.10731135894771851
599.586207,,0.003297897414599088,599.384,0.765999972820282,-0.010006670968997735
600.0517239999999,,0.0035116809208196407,599.855,0.7609999775886536,-0.020527741668868716
600.517241,,0.00391826535820221,600.314,0.7609999775886536,-0.02012464297625282
600.982759,,0.00445563896981526,600.788,0.7580000162124634,-0.026238403721652523
601.448276,,0.004816756069556409,601.246,0.7599999904632568,-0.021452371608771816
601.913793,,0.005293585016706436,601.71,0.7570000290870667,-0.027565142756478582
602.37931,,0.0062760792343595755,602.18,0.7680000066757202,-0.003194619841148552
602.844828,,0.007492187224876652,602.642,0.7760000228881836,0.014611372013215704
603.310345,,0.00829969216050208,603.105,0.7760000228881836,0.01494934202968606
603.775862,,0.008395598418085298,603.571,0.7559999823570251,-0.028334259507556192
604.2413789999999,,0.007665599509986388,604.04,0.7739999890327454,0.011113945331064502
604.706897,,0.005712172733517612,604.499,0.7749999761581421,0.01346203124711262
605.172414,,0.0024812122231555544,604.964,0.777999997138977,0.02010031374832924
605.637931,,0.000714910460202841,605.429,0.7559999823570251,-0.027797815339641752
606.1034480000001,,0.0019217820472776793,605.896,0.7649999856948853,-0.008229124466776401
606.5689659999999,,0.0006919705381832611,606.362,0.7609999775886536,-0.017052993409839727
607.0344829999999,,0.0012945439624175092,606.826,0.7570000290870667,-0.025943476048028925
607.5,,0.002172012078657725,607.292,0.7820000052452087,0.028285515289763273
607.965517,,0.001742046092317461,607.756,0.7739999890327454,0.01056565779100407
608.431034,,0.0009049904704515602,608.219,0.7760000228881836,0.014587684266328909
608.896552,,7.881372335228208e-05,608.689,0.7760000228881836,0.014217280479954908
609.362069,,0.0018553029076447654,609.152,0.7570000290870667,-0.027572146964363886
609.827586,,0.004538669575668617,609.615,0.7720000147819519,0.004698650755250488
610.293103,,0.006827152491906002,610.085,0.7639999985694885,-0.013141553688828593
610.758621,,0.007130227446486593,610.55,0.777999997138977,0.01695843853302932
611.2241379999999,,0.005335323806419213,611.009,0.777999997138977,0.016578978979090893
611.689655,,0.0029972943877731367,611.475,0.7599999904632568,-0.022983908438154677
612.155172,,0.001873018574965522,611.941,0.7739999890327454,0.007211604668723318
612.62069,,0.002533198334497848,612.406,0.753000020980835,-0.03879558205573039
613.0862070000001,,0.004109495618516097,612.871,0.753000020980835,-0.03899466519543705
613.551724,,0.004928313728011297,613.337,0.7839999794960022,0.02840652843327241
614.017241,,0.0036555024109142624,613.804,0.7549999952316284,-0.03484449385925857
614.4827590000001,,0.000542882781663529,614.269,0.777999997138977,0.015262614020334752
614.948276,,0.002397738724652812,614.73,0.7630000114440918,-0.01735056428423245
615.4137929999999,,0.0030606980644371667,615.2,0.7990000247955322,0.061214249532636544
615.8793099999999,,0.001246943893766199,615.663,0.7680000066757202,-0.0061270598815979654
616.344828,,0.0013103923639714607,616.126,0.765999972820282,-0.01023039986236399
616.810345,,0.0027387440232607536,616.596,0.7739999890327454,0.0075021638905220555
617.275862,,0.0024005317457914377,617.059,0.753000020980835,-0.03790564442547557
617.741379,,0.0007942243904848073,617.524,0.7760000228881836,0.012577393523250642
618.206897,,0.001139283619228791,617.989,0.777999997138977,0.017328887974380466
618.672414,,0.0024556689028203665,618.455,0.7599999904632568,-0.021483493781958133
619.137931,,0.0024519106902467025,618.915,0.7770000100135803,0.01595415831417274
619.603448,,0.0009115838669507396,619.381,0.7570000290870667,-0.027232430597244138
620.068966,,0.0017932666364876319,619.845,0.7630000114440918,-0.013799725391213654
620.534483,,0.004880567084224501,620.311,0.7699999809265137,0.001775859896004415
621.0,,0.007402370930968739,620.774,0.777999997138977,0.019485803209533865
621.465517,,0.00833293647674645,621.243,0.777999997138977,0.019714646143777898
621.9310340000001,,0.00686390122284057,621.704,0.7549999952316284,-0.03022404396014352
622.396552,,0.003282118971670255,622.174,0.4429999887943268,-0.7098624310727731
622.862069,,0.0004910746173420982,622.634,0.7820000052452087,0.02872150019169654
623.327586,,0.0021593884623822023,623.103,0.7599999904632568,-0.01925895131790316
623.793103,,0.0013702765654302691,623.569,0.7950000166893005,0.05688013903439771
624.258621,,0.0001481410253901148,624.031,0.7910000085830688,0.047993068973419664
624.724138,,0.00046356379279571466,624.497,0.7490000128746033,-0.043736174230375784
625.189655,,0.0019904794362350276,624.959,0.7599999904632568,-0.020045126077838704
625.655172,,0.0029178907313466215,625.425,0.7739999890327454,0.010141914155900695
626.1206900000001,,0.0023514870989185055,625.889,0.7760000228881836,0.01415520379544639
626.5862070000001,,0.0010947771177647312,626.355,0.7590000033378601,-0.023246061671078937
627.0517239999999,,0.00045654464901432896,626.822,0.7649999856948853,-0.010548634633057451
627.5172409999999,,0.0010356942287727856,627.287,0.7580000162124634,-0.02617349939126429
627.982759,,0.002504683702951794,627.756,0.7570000290870667,-0.028716231371401297
628.448276,,0.003988822042431168,628.218,0.7739999890327454,0.007977046746532216
628.913793,,0.00456998385335072,628.681,0.7620000243186951,-0.018480160509131212
629.37931,,0.003776741663562383,629.144,0.777999997138977,0.016103428540840438
629.844828,,0.001919252689323615,629.611,0.7760000228881836,0.011517772642099744
630.3103450000001,,1.0118550461119788e-06,630.074,0.7839999794960022,0.028771017460572798
630.7758620000001,,0.0009276621995124806,630.539,0.7620000243186951,-0.019278296439915486
631.2413789999999,,0.000531120920957396,631.011,0.7820000052452087,0.024234629062194778
631.706897,,0.0005281416111626417,631.469,0.7870000004768372,0.035128401579265334
632.172414,,0.0011039577234484659,631.934,0.777999997138977,0.015581349107850168
632.637931,,0.000542300943060226,632.4,0.7609999775886536,-0.02133759746490633
633.103448,,0.0005276887621844822,632.866,0.7739999890327454,0.007155849761997512
633.568966,,0.0005055916945349463,633.332,0.753000020980835,-0.03837742956549381
634.034483,,0.0015197176616277407,633.797,0.7620000243186951,-0.018510903347268008
634.5,,0.0043414750365361535,634.263,0.7739999890327454,0.007924507484616566
634.9655170000001,,0.005561426814512877,634.726,0.7549999952316284,-0.03315316290561886
635.431034,,0.004315017368804018,635.189,0.7820000052452087,0.02600311630481815
635.8965519999999,,0.002424923708860295,635.659,0.7749999761581421,0.011092614141458929
636.362069,,0.0022706396801126178,636.122,0.7739999890327454,0.009252376676310034
636.827586,,0.004068327321458282,636.589,0.7839999794960022,0.031366339294008866
637.293103,,0.0059545460093516425,637.052,0.7599999904632568,-0.02061352428743518
637.7586210000001,,0.006244465665751771,637.517,0.7820000052452087,0.02759619542761334
638.224138,,0.004713894686285514,637.982,0.777999997138977,0.019125645710700512
638.689655,,0.0020167529874194944,638.448,0.7739999890327454,0.010613611638170237
639.155172,,0.0010445487139605627,638.915,0.7749999761581421,0.012947955909700876
639.62069,,0.003550881311777371,639.38,0.75,-0.04141372672638884
640.086207,,0.004640255890146865,639.844,0.7739999890327454,0.010924192155928898
640.551724,,0.0040901061473974905,640.31,0.7599999904632568,-0.019581439578463457
641.017241,,0.002500469394883797,640.77,0.7760000228881836,0.015218354584849327
641.482759,,0.0008971057680774261,641.24,0.7799999713897705,0.02382248972668875
641.9482760000001,,0.00040436313097143696,641.701,0.7580000162124634,-0.024266305118450057
642.413793,,0.0019284926683079543,642.17,0.7789999842643738,0.021282683389312544
642.87931,,0.005218117449592403,642.634,0.7829999923706055,0.029756995107505044
643.344828,,0.00809874450318127,643.096,0.7739999890327454,0.00987823276640783
643.810345,,0.007794266907932312,643.562,0.7609999775886536,-0.01873876875249435
644.275862,,0.003915567541674138,644.024,0.7739999890327454,0.009273182321321006
644.7413789999999,,0.0004928523731961015,644.49,0.7630000114440918,-0.015009929504221697
645.206897,,0.001903181367705755,644.958,0.7599999904632568,-0.021863085065436005
645.672414,,9.3794895985903e-06,645.424,0.777999997138977,0.017044852130705314
646.1379310000001,,0.00240606339149699,645.889,0.7739999890327454,0.008040648091637874
646.6034480000001,,0.002926863575642062,646.355,0.7549999952316284,-0.0336175581919097
647.0689659999999,,0.0016562231984650114,646.819,0.7570000290870667,-0.029492137496151292
647.534483,,0.00012526343841622335,647.285,0.765999972820282,-0.010078433185104563
648.0,,0.00051565095364996,647.748,0.7620000243186951,-0.018943594736564734
648.465517,,9.254473309180396e-05,648.211,0.7490000128746033,-0.047369672210289177
648.931034,,0.0016624728611649054,648.679,0.7789999842643738,0.017935899270991294
649.396552,,0.0031077267955522134,649.141,0.7739999890327454,0.007040764940643665
649.862069,,0.0030711357368364005,649.604,0.7699999809265137,-0.0016235073658988882
650.327586,,0.0014364452795841078,650.074,0.7649999856948853,-0.012415909073787191
650.7931030000001,,0.00019082463576073147,650.539,0.7919999957084656,0.04655644548153687
651.258621,,0.0003516382671435052,651.004,0.7580000162124634,-0.02732458828124228
651.7241379999999,,0.0003428570768468228,651.469,0.777999997138977,0.01647989467616975
652.189655,,0.00019459296374901906,651.933,0.7829999923706055,0.027637127231437818
652.655172,,0.0009535106395138744,652.399,0.7739999890327454,0.00831894966115815
653.12069,,0.0014100713050746207,652.864,0.7749999761581421,0.010804810723517716
653.5862070000001,,0.0001389440590392914,653.329,0.7570000290870667,-0.02809479310895727
654.051724,,0.0017304399031998494,653.789,0.7739999890327454,0.009257906228256368
654.517241,,0.002512384016327424,654.255,0.7599999904632568,-0.020936204420032422
654.982759,,0.0020718658746470844,654.726,0.7570000290870667,-0.02718247816202321
655.448276,,0.0014723888489822582,655.188,0.777999997138977,0.018833440281954397
655.9137929999999,,0.0012172599031786873,655.649,0.7630000114440918,-0.013613879262754935
656.37931,,0.0008612083292490329,656.118,0.7839999794960022,0.032332007238352736
656.844828,,0.00010720847201959063,656.585,0.7580000162124634,-0.024161831288551747
657.310345,,0.000686098838988675,657.05,0.7820000052452087,0.02822903543840362
657.7758620000001,,0.0012080249031308935,657.515,0.7770000100135803,0.017388883650004013
658.241379,,0.0016507907011539238,657.975,0.753000020980835,-0.03489755741728503
658.7068969999999,,0.002129096339513073,658.44,0.7829999923706055,0.030410412176023124
659.172414,,0.0021654222468077905,658.904,0.7760000228881836,0.015057727069413628
659.637931,,0.0012555354608514546,659.37,0.7770000100135803,0.017086319608885615
660.103448,,0.00020707746819639914,659.837,0.7839999794960022,0.03214288723740975
660.568966,,0.0010324293643885836,660.303,0.7739999890327454,0.010123798031114316
661.034483,,0.00045644715594050526,660.771,0.7649999856948853,-0.009749661207760718
661.5,,0.0009123897489819312,661.233,0.7620000243186951,-0.01657766387565834
661.965517,,0.001624977701491386,661.701,0.7649999856948853,-0.010352887736255527
662.4310340000001,,0.0008836793749165945,662.163,0.7789999842643738,0.019826862226828723
662.8965519999999,,0.0007238104205867475,662.626,0.7590000033378601,-0.02406874205194061
663.362069,,0.002075318183460698,663.096,0.7820000052452087,0.025724963242239322
663.827586,,0.0027584307763751353,663.555,0.7590000033378601,-0.02468304996216785
664.293103,,0.0030225619148292475,664.026,0.7490000128746033,-0.04674476927761618
664.7586210000001,,0.0027035082011692543,664.484,0.7599999904632568,-0.023023971289624526
665.224138,,0.0010665642797458826,664.949,0.7559999823570251,-0.03194480447651226
665.689655,,0.0019005298937754783,665.415,0.7490000128746033,-0.047357478685548106
