Trial: ,16
Threshold: ,0.0
Maximum EMG: ,0.08443842004503911
Success: ,True

EMG Time,Raw EMG,Filtered EMG,Force Time,Raw Force (V),Filtered Force (N)
0.0,samples,2.0486544064278348e-11,0.467,0.7739999890327454,0.013080753123839812
0.46551699999999996,time,2.143144550913674e-11,0.935,0.7770000100135803,0.019773109030800165
0.9310339999999999,value,2.2340769289550126e-11,1.398,0.7549999952316284,-0.02797941989543063
1.396552,,2.3209737892375822e-11,1.861,0.777999997138977,0.022322954806915065
1.862069,,2.4033511308613194e-11,2.331,0.7580000162124634,-0.021046740606476107
2.327586,,2.4807201585054626e-11,2.791,0.7440000176429749,-0.051341567070822096
2.793103,,2.5525888175269267e-11,3.26,0.777999997138977,0.022935175437578233
3.258621,,2.6184634069726947e-11,3.726,0.7739999890327454,0.014414492074247491
3.724138,,2.6778502681220737e-11,4.19,0.7820000052452087,0.03202359767508738
4.189654999999999,,2.730257545802485e-11,4.655,0.7760000228881836,0.01911216847482588
4.655172,,2.7751970193440488e-11,5.115,0.753000020980835,-0.030861235146679832
5.12069,,2.812185999654624e-11,5.58,0.7739999890327454,0.014996192413416756
5.586207,,2.8407492885093636e-11,6.046,0.7580000162124634,-0.0197891729716245
6.051723999999999,,2.8604211957583973e-11,6.512,0.7929999828338623,0.05650171165816395
6.517241,,2.8707476097642833e-11,6.976,0.7570000290870667,-0.021926943314837993
6.982759,,2.8712881159886706e-11,7.441,0.7739999890327454,0.015076480988834691
7.448276,,2.8616181582565815e-11,7.909,0.777999997138977,0.023722414112536824
7.913793000000001,,2.8413312368383055e-11,8.372,0.7720000147819519,0.010549095049740078
8.379309999999998,,2.8100411371045987e-11,8.835,0.7749999761581421,0.01695363518909444
8.844828000000001,,2.7673841821322278e-11,9.305,0.7710000276565552,0.008081811247027755
9.310345,,2.7130215022655093e-11,9.765,0.7760000228881836,0.018796407742950785
9.775862,,2.646641314276991e-11,10.235,0.7889999747276306,0.04692452774120831
10.241379,,2.567961202418488e-11,10.7,0.7770000100135803,0.020577218485242812
10.706897,,2.4767303933140216e-11,11.164,0.7710000276565552,0.007298185061343226
11.172414,,2.3727320163205584e-11,11.63,0.7570000290870667,-0.023408140882592184
11.637931,,2.2557853406725986e-11,12.095,0.7699999809265137,0.004716693067894152
12.103447999999998,,2.12574798043436e-11,12.561,0.777999997138977,0.021962530218473247
12.568966000000001,,1.982518058010384e-11,13.02,0.7760000228881836,0.017442105698336898
13.034483,,1.826036316713644e-11,13.486,0.7570000290870667,-0.024090472571793503
13.5,,1.656288172661489e-11,13.954,0.781000018119812,0.02808771469094048
13.965517,,1.4733056960657966e-11,14.415,0.8100000023841858,0.09119251264371021
14.431034,,1.2771695118063543e-11,14.883,0.777999997138977,0.02143642228581584
14.896552,,1.0680106090275043e-11,15.346,0.7739999890327454,0.012719700377194377
15.362069,,8.460120493792511e-12,15.817,0.7699999809265137,0.0040394365645781884
15.827586000000002,,6.1141056343703985e-12,16.279,0.7519999742507935,-0.03510703344668978
16.293103,,3.64498024780973e-12,16.744,0.7879999876022339,0.04342634896244313
16.758621,,1.0562279119697827e-12,17.207,0.7820000052452087,0.03048709085640676
17.224138,,1.648090975190453e-12,17.673,0.7580000162124634,-0.02164121313374545
17.689655,,4.463328756162723e-12,18.138,0.7749999761581421,0.01557617417829478
18.155172,,7.384241716688061e-12,18.604,0.8690000176429749,0.2205674387946971
18.62069,,1.0404983033083037e-11,19.068,0.777999997138977,0.02252228936191122
19.086207,,1.3519097564572723e-11,19.534,0.7580000162124634,-0.020833403296678505
19.551724,,1.6719518588872855e-11,20.001,0.734000027179718,-0.07290808032614589
20.017241000000002,,1.9998566576580376e-11,20.46,0.7570000290870667,-0.022598052372763345
20.482758999999998,,2.334795009679188e-11,20.928,0.753000020980835,-0.031129181436225242
20.948276,,2.6758768942764763e-11,21.39,0.7870000004768372,0.0431060855555286
21.413793000000002,,3.0221519562358944e-11,21.861,0.7749999761581421,0.01709735328818049
21.87931,,3.372610287344194e-11,22.323,0.7739999890327454,0.015023832126121694
22.344828,,3.726183453940242e-11,22.787,0.7739999890327454,0.015095511571684985
22.810344999999998,,4.08174577743947e-11,23.257,0.7570000290870667,-0.021905647563584284
23.275862,,4.4381158741926825e-11,23.715,0.753000020980835,-0.030622102103391204
23.741379,,4.794058460390897e-11,24.187,0.7990000247955322,0.06955683121941518
24.206897,,5.1482864270298996e-11,24.645,0.7570000290870667,-0.022020329036967268
24.672414,,5.499463189202173e-11,25.11,0.7889999747276306,0.047589680748946005
25.137931,,5.846205313190431e-11,25.575,0.7760000228881836,0.0191314287910698
25.603448,,6.18708542399689e-11,26.043,0.7739999890327454,0.014613121398875214
26.068966,,6.520635395056632e-11,26.508,0.7509999871253967,-0.03567760277712305
26.534483,,6.845349820953183e-11,26.976,0.7590000033378601,-0.018446216339125722
27.0,,7.159689772981054e-11,27.441,0.7570000290870667,-0.023011473452192156
27.465517,,7.462086836385221e-11,27.903,0.7699999809265137,0.0050993766160021626
27.931034,,7.750947427053025e-11,28.366,0.7739999890327454,0.013606060857103733
28.396552,,8.024657384341848e-11,28.835,0.6790000200271606,-0.1935649145638559
28.862069,,8.281586835598505e-11,29.297,0.7749999761581421,0.015399003449168638
29.327586,,8.520095326766015e-11,29.769,0.7710000276565552,0.006518844105752482
29.793103000000002,,8.73853721228299e-11,30.231,0.8100000023841858,0.09134869137350844
30.258620999999998,,8.935267296263243e-11,30.697,0.8510000109672546,0.18057064818427615
30.724138,,9.108646715701597e-11,31.161,0.7570000290870667,-0.024286625762768323
31.189655000000002,,9.257049055189546e-11,31.626,0.7620000243186951,-0.013420081477714074
31.655172000000004,,9.378866681345155e-11,32.09,0.7950000166893005,0.0584859234893759
32.12069,,9.472517283869031e-11,32.556,0.777999997138977,0.021497225100707465
32.586207,,9.536450608836494e-11,33.02,0.7749999761581421,0.01504561610855692
33.051724,,9.569155368529464e-11,33.486,0.7480000257492065,-0.043661189039951545
33.517241000000006,,9.569166310804457e-11,33.946,0.7739999890327454,0.013128061331886157
33.982759,,9.535071429690111e-11,34.416,0.8489999771118164,0.17669623594963052
34.448276,,9.465519297613703e-11,34.879,0.7739999890327454,0.013488590280668023
34.913793,,9.359226498376072e-11,35.342,0.7549999952316284,-0.02770110529266417
35.37931,,9.214985138733541e-11,35.81,0.7590000033378601,-0.018776870190396262
35.844828,,9.031670415208975e-11,36.272,0.7749999761581421,0.016289499124902854
36.310345,,8.808248211547684e-11,36.738,0.746999979019165,-0.04451261212873568
36.775862,,8.543782701062892e-11,37.201,0.7749999761581421,0.01667518398354011
37.241378999999995,,8.237443926985763e-11,37.666,0.7720000147819519,0.01030526099133044
37.706897000000005,,7.888515332852257e-11,38.132,0.7620000243186951,-0.01133977172332226
38.172414,,7.496401213929341e-11,38.597,0.7870000004768372,0.04323914819809591
38.637931,,7.060634059712136e-11,39.065,0.7739999890327454,0.014997928839373535
39.103448,,6.580881756617615e-11,39.531,0.7749999761581421,0.0172239980703678
39.568965999999996,,6.056954619165316e-11,39.991,0.7789999842643738,0.025950893250864623
40.034483,,5.488812217177401e-11,40.457,0.777999997138977,0.02374939725852103
40.5,,4.876569965855213e-11,40.92,0.6959999799728394,-0.1549584461674313
40.965517,,4.2205054450032747e-11,41.389,0.777999997138977,0.023597116747770343
41.431034,,3.5210644131803706e-11,41.85,0.7770000100135803,0.021294413919077746
41.896552,,2.7788664821667896e-11,42.32,0.7630000114440918,-0.009355668095780346
42.362069000000005,,1.9947104168527408e-11,42.783,0.7440000176429749,-0.05091982620195237
42.827586000000004,,1.1695790254809996e-11,43.246,0.878000020980835,0.24083563374988945
43.293103,,3.046436051224379e-12,43.711,0.7749999761581421,0.016246091089487897
43.758621,,5.987320926684876e-12,44.175,0.777999997138977,0.022593151701018794
44.224138,,1.538988410874895e-11,44.641,0.765999972820282,-0.0037361730048962372
44.689655,,2.5143668852428573e-11,45.105,0.7739999890327454,0.01351646008522846
45.155172,,3.5229079257722746e-11,45.571,0.7580000162124634,-0.02150445499302092
45.620689999999996,,4.5624491149266604e-11,46.035,0.753000020980835,-0.03254193425777233
46.086206999999995,,5.63062415526194e-11,46.501,0.7760000228881836,0.017445332743937295
46.551724,,6.72486249827195e-11,46.968,0.7490000128746033,-0.041473477440654244
47.017241,,7.842389685193609e-11,47.434,0.7789999842643738,0.02381981453275723
47.482759,,8.980228429304866e-11,47.902,0.7739999890327454,0.012891948973848199
47.948276,,1.0135200467881233e-10,48.364,0.7639999985694885,-0.008896629448523955
48.413793,,1.1303929210449841e-10,48.828,0.7739999890327454,0.01291980003895116
48.879310000000004,,1.2482843208292338e-10,49.29,0.7480000257492065,-0.04366444632563223
49.344828,,1.3668180468298395e-10,49.756,0.7649999856948853,-0.006538913370749584
49.810345,,1.4855993632259921e-10,50.221,0.7739999890327454,0.01318293643377287
50.275862,,1.6042156040522314e-10,50.687,0.7630000114440918,-0.010645976075992753
50.741379,,1.7222368696574008e-10,51.154,0.7749999761581421,0.015651736091651852
51.206897,,1.8392168146660576e-10,51.62,0.7570000290870667,-0.023396978479312307
51.672414,,1.954693528585661e-10,52.08,0.7749999761581421,0.015992965741354875
52.137931,,2.068190509922043e-10,52.546,0.7590000033378601,-0.018688857345439083
52.603448,,2.1792177343696265e-10,53.013,0.7490000128746033,-0.04030258686943953
53.068966,,2.2872728173320253e-10,53.479,0.781000018119812,0.029577825092265645
53.534483,,2.391842270703486e-10,53.946,0.7839999794960022,0.03626431472447627
54.0,,2.4924028535026626e-10,54.408,0.7739999890327454,0.014611466769584549
54.465517,,2.5884230155980695e-10,54.872,0.7720000147819519,0.01036648836626197
54.931034,,2.679364433399911e-10,55.335,0.7789999842643738,0.025704401230829226
55.396552,,2.7646836360165995e-10,55.805,0.7739999890327454,0.014871333245238228
55.862069,,2.8438337199869917e-10,56.268,0.7490000128746033,-0.039564196654827084
56.327586,,2.9162661503020845e-10,56.734,0.7680000066757202,0.001829774455917501
56.793102999999995,,2.981432645023628e-10,57.197,0.7720000147819519,0.010513526662890894
57.258621000000005,,3.038787140392869e-10,57.662,0.7570000290870667,-0.022226207294216666
57.724138,,3.08778783290159e-10,58.127,0.7739999890327454,0.014723406097953053
58.189655,,3.12789929437093e-10,58.593,0.777999997138977,0.023326666621460056
58.655172,,3.1585946556524816e-10,59.057,0.777999997138977,0.02319534572879118
59.120689999999996,,3.1793578541321837e-10,59.522,0.7739999890327454,0.014333606115070592
59.586207,,3.1896859397819695e-10,59.987,0.9810000061988831,0.46515942509334307
60.051724,,3.1890914340685025e-10,60.453,0.7490000128746033,-0.040441278392351176
60.517241,,3.1771047355941846e-10,60.916,0.7609999775886536,-0.014451299209096378
60.982758999999994,,3.1532765659145397e-10,61.386,0.7760000228881836,0.01807586099394623
61.448276,,3.117180448549737e-10,61.847,0.8040000200271606,0.07893200045665966
61.913793,,3.0684152137881697e-10,62.317,0.7559999823570251,-0.025778136624991923
62.379310000000004,,3.0066075214684006e-10,62.78,0.7739999890327454,0.013316599021625507
62.84482800000001,,2.931414393524251e-10,63.242,0.800000011920929,0.069858073488371
63.310345000000005,,2.842525747688209e-10,63.708,0.7559999823570251,-0.026085197364819904
63.775862000000004,,2.7396669233725964e-10,64.172,0.7559999823570251,-0.02614596252570006
64.241379,,2.6226011903879607e-10,64.637,0.7799999713897705,0.0261039538608461
64.706897,,2.491132230815924e-10,65.101,0.7559999823570251,-0.026196665118731657
65.172414,,2.3451065840312467e-10,65.567,0.7739999890327454,0.013030785468292495
65.637931,,2.1844160445670828e-10,66.033,0.7559999823570251,-0.0261487923366637
66.103448,,2.0090000022404101e-10,66.499,0.746999979019165,-0.045697628265459686
66.56896599999999,,1.8188477137033395e-10,66.966,0.7599999904632568,-0.017295260211894068
67.03448300000001,,1.6140004943625193e-10,67.431,0.7789999842643738,0.024198421924196616
67.5,,1.3945538194151198e-10,67.894,0.7519999742507935,-0.0345084831539814
67.965517,,1.1606593225878754e-10,68.357,0.7739999890327454,0.013552427253098305
68.431034,,9.125266810373486e-11,68.82,0.753000020980835,-0.032058144274431495
68.896552,,6.504253747768583e-11,69.29,0.7770000100135803,0.020377115713922415
69.362069,,3.746863089402537e-11,69.756,0.753000020980835,-0.031759931072218806
69.827586,,8.570328717673751e-12,70.222,0.7770000100135803,0.02067689699517706
70.293103,,2.1606567550400353e-11,70.68,0.7739999890327454,0.014285288403811523
70.75862099999999,,5.3009721204934126e-11,71.147,0.7649999856948853,-0.00518683460485759
71.22413800000001,,8.558016463448165e-11,71.613,0.7739999890327454,0.014544114034688737
71.689655,,1.1925222312017986e-10,72.08,0.777999997138977,0.02336599953983479
72.15517200000001,,1.5395345924895097e-10,72.545,0.7760000228881836,0.019097427585160653
72.62069,,1.8960463902955048e-10,73.01,0.7820000052452087,0.032236870402465104
73.086207,,2.2611972076952288e-10,73.475,0.7590000033378601,-0.0178278776356644
73.551724,,2.634058677356988e-10,73.938,0.7739999890327454,0.01487068861137801
74.017241,,3.013634855802626e-10,74.401,0.7549999952316284,-0.026531113556626216
74.482759,,3.398862854685625e-10,74.869,0.753000020980835,-0.030922701696506488
74.94827599999999,,3.788613737936591e-10,75.331,0.7310000061988831,-0.0789143634789582
75.41379300000001,,4.1816936930607007e-10,75.798,0.7549999952316284,-0.02671405370003617
75.87931,,4.5768454842523616e-10,76.26,0.7950000166893005,0.06032234779823339
76.344828,,4.972750194318906e-10,76.726,0.7739999890327454,0.014443184774846508
76.810345,,5.368029261677742e-10,77.19,0.7749999761581421,0.01647991709616437
77.275862,,5.761246817910237e-10,77.656,0.75,-0.03813954189798575
77.741379,,6.150912330521166e-10,78.12,0.7749999761581421,0.01616571225873957
78.206897,,6.535483554665545e-10,78.585,0.7599999904632568,-0.016677925570417106
78.67241399999999,,6.913369796665865e-10,79.05,0.7490000128746033,-0.040805673705952214
79.137931,,7.282935491153451e-10,79.516,0.7739999890327454,0.013503498238546673
79.603448,,7.642504092629006e-10,79.983,0.7760000228881836,0.01771477588482432
80.068966,,7.990362281151091e-10,80.449,0.7820000052452087,0.030656330908088836
80.53448300000001,,8.324764480729101e-10,80.91,0.7739999890327454,0.013116497949605961
81.0,,8.643937687821284e-10,81.379,0.7580000162124634,-0.02182997788684092
81.465517,,8.946086606120868e-10,81.842,0.7739999890327454,0.012964839675038677
81.931034,,9.229399082556743e-10,82.305,0.7549999952316284,-0.028466452364898507
82.396552,,9.492051838142542e-10,82.776,0.7559999823570251,-0.02629741449527467
82.86206899999999,,9.73221648598208e-10,83.238,0.7739999890327454,0.012936605035342356
83.327586,,9.948065827383478e-10,83.704,0.7710000276565552,0.0064473295781154755
83.79310299999999,,1.0137780415652234e-09,84.169,0.6079999804496765,-0.34860162579875875
84.258621,,1.0299555375729096e-09,84.635,0.7919999957084656,0.05236084450754778
84.72413800000001,,1.0431607466415586e-09,85.101,0.7580000162124634,-0.02160109980653344
85.189655,,1.0532182370492853e-09,85.56,0.753000020980835,-0.03236171776866073
85.65517200000001,,1.0599562196592688e-09,86.031,0.8569999933242798,0.19436873705875982
86.12069,,1.0632073175227675e-09,86.497,0.7739999890327454,0.013708550962410509
86.586207,,1.0628093529935666e-09,86.962,0.7760000228881836,0.0182446684783203
87.051724,,1.0586061503047124e-09,87.42,0.6169999837875366,-0.3279803366021754
87.517241,,1.050448351414776e-09,87.891,0.7749999761581421,0.01642005805061395
87.98275899999999,,1.0381942427888986e-09,88.353,0.7480000257492065,-0.042238417250246484
88.448276,,1.0217105906400644e-09,88.816,0.7739999890327454,0.014560281890277742
88.913793,,1.0008734820190216e-09,89.287,0.7649999856948853,-0.004908779064713311
89.37931,,9.755691690076356e-10,89.745,0.7739999890327454,0.01481903593954618
89.844828,,9.456949131408447e-10,90.215,0.7599999904632568,-0.015584610444339248
90.310345,,9.111598270574131e-10,90.681,0.7749999761581421,0.017166870278736094
90.775862,,8.718857102599957e-10,91.146,0.7739999890327454,0.015032208895019264
91.241379,,8.278078757513112e-10,91.612,0.7570000290870667,-0.021990391194814215
91.706897,,7.788759642060963e-10,92.076,0.7599999904632568,-0.015471333178602704
92.17241399999999,,7.250547422386788e-10,92.542,0.7829999923706055,0.034589772583124
92.63793100000001,,6.663248812341252e-10,93.002,0.7720000147819519,0.010547300929844051
93.103448,,6.026837131276488e-10,93.467,0.7570000290870667,-0.022238008304771628
93.568966,,5.341459594429927e-10,93.935,0.7590000033378601,-0.01801292296029212
94.03448300000001,,4.6074442983647677e-10,94.397,0.7789999842643738,0.025404676623039867
94.5,,3.8253068633999177e-10,94.865,0.7739999890327454,0.014337525123297105
94.965517,,2.9957566945407435e-10,95.327,0.7739999890327454,0.014149735653715221
95.431034,,2.119702822119477e-10,95.79,0.7749999761581421,0.01613159372311308
95.896552,,1.1982592831768124e-10,96.261,0.7620000243186951,-0.01239136946622709
96.36206899999999,,2.3275000457017384e-11,96.726,0.7670000195503235,-0.0016974745339755374
96.827586,,7.75286851114875e-11,97.19,0.777999997138977,0.022075322658969734
97.293103,,1.824095115539956e-10,97.656,0.7739999890327454,0.01318141408649438
97.758621,,2.911697458784168e-10,98.12,0.7739999890327454,0.013020439616253123
98.224138,,4.03589288548291e-10,98.586,0.7580000162124634,-0.02197607785060315
98.689655,,5.194254920016406e-10,99.046,0.7739999890327454,0.012770842768220683
99.155172,,6.384130516974643e-10,99.512,0.7580000162124634,-0.022168479528283696
99.62069,,7.602639732104968e-10,99.979,0.7599999904632568,-0.017859222487322978
100.086207,,8.846676187758575e-10,100.445,0.8199999928474426,0.11284764881073939
100.551724,,1.0112908365489408e-09,100.905,0.7590000033378601,-0.020023984826768836
101.017241,,1.1397781756921136e-09,101.375,0.7820000052452087,0.0301480946042775
101.482759,,1.269752190228264e-09,101.839,0.7860000133514404,0.0389616444516617
101.948276,,1.4008138344118345e-09,102.301,0.7739999890327454,0.012950624669686734
102.413793,,1.532542952160586e-09,102.765,0.7990000247955322,0.06758044584383367
102.87931,,1.6644988628659183e-09,103.234,0.7519999742507935,-0.03462640413295572
103.344828,,1.7962210456561697e-09,103.7,0.7749999761581421,0.015692605451152464
103.810345,,1.927229923925996e-09,104.164,0.7599999904632568,-0.016762794574084798
104.275862,,2.0570277516658698e-09,104.63,0.7739999890327454,0.013970711847333499
104.741379,,2.185099602829162e-09,105.095,0.7760000228881836,0.018562322857843122
105.206897,,2.3109144646604595e-09,105.561,0.7990000247955322,0.06890135252845152
105.672414,,2.433926435578125e-09,106.021,0.7860000133514404,0.040798749188604225
106.13793100000001,,2.5535760278570646e-09,106.486,0.7509999871253967,-0.03525170041556846
106.603448,,2.6692915749947715e-09,106.95,0.7580000162124634,-0.019823912438943717
107.068966,,2.780490743265543e-09,107.42,0.7760000228881836,0.01953822296539834
107.534483,,2.8865821465750496e-09,107.883,0.7580000162124634,-0.01956602002350968
108.0,,2.9869670633209033e-09,108.346,0.7760000228881836,0.01972242715876689
108.46551699999999,,3.0810412535454056e-09,108.816,0.7749999761581421,0.017575380090529516
108.931034,,3.168196874235181e-09,109.279,0.7919999957084656,0.05460225002170757
109.396552,,3.2478244901799354e-09,109.744,0.7599999904632568,-0.015166943258309515
109.862069,,3.3193151773502325e-09,110.207,0.7739999890327454,0.015239835404204267
110.32758600000001,,3.382062715293136e-09,110.673,0.7739999890327454,0.015105705729477333
110.793103,,3.4354658645760666e-09,111.138,0.7580000162124634,-0.019923253585856112
111.258621,,3.4789307248346705e-09,111.604,0.7689999938011169,0.0038388015741443572
111.724138,,3.5118731685012613e-09,112.069,0.777999997138977,0.023217009633480983
112.189655,,3.533721344808043e-09,112.534,0.8640000224113464,0.21033319061530667
112.655172,,3.5439182481753762e-09,113.001,0.7789999842643738,0.02489089667385125
113.12069,,3.5419243446115063e-09,113.46,0.777999997138977,0.02245156868985677
113.586207,,3.5272202492681427e-09,113.928,0.777999997138977,0.022192937093172164
114.051724,,3.4993094478178854e-09,114.39,0.7580000162124634,-0.021629525591372073
114.51724100000001,,3.45772105384656e-09,114.857,0.7549999952316284,-0.028399437420543565
114.982759,,3.4020125939879913e-09,115.32,0.7649999856948853,-0.006824591639699669
115.448276,,3.3317728120726093e-09,115.791,0.5540000200271606,-0.46670595681684046
115.913793,,3.246624483116541e-09,116.253,0.7710000276565552,0.005902063951880199
116.37931,,3.1462272275465877e-09,116.719,0.7509999871253967,-0.03779294338241415
116.84482799999999,,3.0302803156408593e-09,117.182,0.7689999938011169,0.0013461306254173794
117.310345,,2.898525451766943e-09,117.648,0.7580000162124634,-0.022646725569400093
117.77586199999999,,2.750749527621574e-09,118.112,0.7559999823570251,-0.026981056511730033
118.241379,,2.586787333319994e-09,118.578,0.925000011920929,0.3412879963985612
118.70689700000001,,2.406524214851796e-09,119.043,0.7739999890327454,0.012445669924903478
119.172414,,2.209898666115293e-09,119.509,0.753000020980835,-0.03312164653645537
119.63793100000001,,1.996904843466512e-09,119.976,0.7710000276565552,0.006320694995635213
120.103448,,1.7675949904740893e-09,120.441,0.7580000162124634,-0.021738914680859738
120.568966,,1.5220817603597942e-09,120.902,0.7739999890327454,0.013411202192227958
121.034483,,1.2605404234283639e-09,121.371,0.8100000023841858,0.09215590323690939
121.5,,9.8321094665192e-10,121.835,0.7260000109672546,-0.0905250119687294
121.96551699999999,,6.903999324756068e-10,122.297,0.8769999742507935,0.23877935256847121
122.431034,,3.824824038542901e-10,122.768,0.8029999732971191,0.07788306904042745
122.896552,,5.990342251720204e-11,123.231,0.7749999761581421,0.01718926304795526
123.362069,,2.768204725097444e-10,123.696,0.7480000257492065,-0.041354184511528815
123.827586,,6.271000190137733e-10,124.162,0.7609999775886536,-0.012790905556443268
124.293103,,9.90272191097095e-10,124.62,0.7540000081062317,-0.027847862177556894
124.758621,,1.365599376649704e-09,125.087,0.7570000290870667,-0.021172579241256637
125.22413800000001,,1.7522687851384033e-09,125.552,0.7599999904632568,-0.014556836461604505
125.68965500000002,,2.1493920977696084e-09,126.016,0.7599999904632568,-0.014539597238457762
126.15517200000001,,2.55600537174035e-09,126.482,0.7699999809265137,0.007200259486230227
126.62069000000001,,2.971069209892204e-09,126.946,0.7689999938011169,0.004912066387753829
127.086207,,3.3934692066255773e-09,127.416,0.7559999823570251,-0.023580489698026647
127.55172400000001,,3.822016680416042e-09,127.88,0.777999997138977,0.02412359532613108
128.017241,,4.255449702699548e-09,128.342,0.7490000128746033,-0.039333224200067816
128.48275900000002,,4.692434432258832e-09,128.81,0.7599999904632568,-0.01568645488939313
128.948276,,5.13156676354888e-09,129.272,0.753000020980835,-0.03128839352545851
129.413793,,5.571374296644757e-09,129.737,0.777999997138977,0.022804215133664648
129.87931,,6.010318635680651e-09,130.2,0.7570000290870667,-0.023331152355050018
130.344828,,6.446798021774802e-09,130.665,0.828000009059906,0.13097181084042117
130.81034499999998,,6.879150305501706e-09,131.131,0.7699999809265137,0.004244873816113501
131.275862,,7.305656262981406e-09,131.597,0.753000020980835,-0.033131009828545034
131.741379,,7.724543258606664e-09,132.061,0.7739999890327454,0.01231745322752487
132.206897,,8.13398925632384e-09,132.526,0.7609999775886536,-0.01626215598253153
132.67241399999997,,8.5321271802237e-09,132.991,0.753000020980835,-0.03389408864745511
133.13793099999998,,8.917049623986081e-09,133.457,0.7739999890327454,0.011715825182198658
133.60344800000001,,9.286813907459193e-09,133.92,0.7570000290870667,-0.025396060159462937
134.06896600000002,,9.639447477342888e-09,134.39,0.7739999890327454,0.011635947215944978
134.53448300000002,,9.972953647587849e-09,134.85,0.777999997138977,0.020417065396807942
135.0,,1.0285317673722382e-08,135.32,0.7580000162124634,-0.02301900058595811
135.465517,,1.0574513153878283e-08,135.783,0.777999997138977,0.02075750588600221
135.931034,,1.0838508747810688e-08,136.245,0.7490000128746033,-0.042158721978324466
136.396552,,1.1075275203697454e-08,136.711,0.765999972820282,-0.004804080923933911
136.862069,,1.128279268096546e-08,137.175,0.847000002861023,0.17202977171322922
137.327586,,1.145905835582864e-08,137.641,0.7710000276565552,0.006852321699433801
137.793103,,1.1602094294639832e-08,138.106,0.7730000019073486,0.011632600327957396
138.258621,,1.170995557856055e-08,138.572,0.753000020980835,-0.03150889577666862
138.724138,,1.1780738661444648e-08,139.038,0.7739999890327454,0.014668728263210048
139.189655,,1.181258994121877e-08,139.504,0.8109999895095825,0.09568707294625764
139.655172,,1.1803714523430011e-08,139.969,0.7739999890327454,0.015455652614369113
140.12069,,1.1752385154025093e-08,140.436,0.7570000290870667,-0.021245745623343953
140.586207,,1.1656951296831684e-08,140.898,0.75,-0.03621643287693766
141.05172399999998,,1.1515848329637317e-08,141.36,0.7760000228881836,0.020643223254507757
141.51724099999998,,1.1327606831211329e-08,141.828,0.7770000100135803,0.022964740790275454
141.982759,,1.1090861930096755e-08,142.29,0.777999997138977,0.025209659557963317
142.44827600000002,,1.0804362684519032e-08,142.757,0.7739999890327454,0.01648175642238789
142.913793,,1.0466981461323618e-08,143.222,0.7760000228881836,0.020745653944861192
143.37931,,1.0077723280472316e-08,143.688,0.7559999823570251,-0.02299944849483187
143.844828,,9.635735090305318e-09,144.153,0.8040000200271606,0.08132990292923661
144.310345,,9.140314937520146e-09,144.619,0.7760000228881836,0.020015743827247266
144.77586200000002,,8.590920994637041e-09,145.083,0.753000020980835,-0.03046284437394434
145.241379,,7.987180406620438e-09,145.549,0.7630000114440918,-0.009093971349421196
145.706897,,7.328897917315278e-09,146.014,0.7429999709129333,-0.053120450284118985
146.172414,,6.6160642354426925e-09,146.479,0.7720000147819519,0.0095851158990714
146.637931,,5.848864099089268e-09,146.942,0.7739999890327454,0.013460552988999726
147.103448,,5.027683996925203e-09,147.405,0.7620000243186951,-0.01315588532083856
147.568966,,4.153119503806459e-09,147.876,0.7940000295639038,0.05611246309285575
148.034483,,3.225982187961614e-09,148.338,0.7310000061988831,-0.08155243604533303
148.5,,2.2473060466427143e-09,148.806,0.7739999890327454,0.011770394926105467
148.965517,,1.2183534269377373e-09,149.268,0.7620000243186951,-0.014669340308045925
149.43103399999998,,1.4062038840718459e-10,149.734,0.7570000290870667,-0.025785220472073052
149.89655199999999,,9.841585356749161e-10,150.197,0.7739999890327454,0.011110264031001895
150.362069,,2.1540062214183714e-09,150.662,0.7599999904632568,-0.019445395236080142
150.82758600000003,,3.3666995242533705e-09,151.127,0.753000020980835,-0.034661135563839436
151.293103,,4.6197665775945295e-09,151.593,0.7739999890327454,0.01121432505571384
151.758621,,5.91048486133247e-09,152.061,0.7770000100135803,0.017961259762184004
152.224138,,7.235880080284189e-09,152.526,0.7549999952316284,-0.029676584713555137
152.68965500000002,,8.5927258915798e-09,152.991,0.753000020980835,-0.033668883908285686
153.155172,,9.977544518620772e-09,153.45,0.7839999794960022,0.03429603775056703
153.62069,,1.1386608287710312e-08,153.92,0.7620000243186951,-0.0131572991145527
154.086207,,1.2815942121726996e-08,154.382,0.753000020980835,-0.03225316792476373
154.551724,,1.4261327023286153e-08,154.85,0.7609999775886536,-0.014293242140824773
155.017241,,1.571830457770794e-08,155.312,0.7770000100135803,0.021098870268476382
155.482759,,1.718218250378565e-08,155.776,0.7559999823570251,-0.024132706188690557
155.948276,,1.8648041277822253e-08,156.246,0.515999972820282,-0.5465234096415562
156.413793,,2.0110741853677703e-08,156.711,0.7580000162124634,-0.01886031005859866
156.87931,,2.1564934498645405e-08,157.176,0.7519999742507935,-0.03156680653460997
157.34482799999998,,2.3005068761855064e-08,157.641,0.7870000004768372,0.044980412234001434
157.81034499999998,,2.4425404588583738e-08,158.106,0.7839999794960022,0.03865941121667033
158.275862,,2.5820024590350637e-08,158.572,0.7739999890327454,0.017001608728271656
158.741379,,2.7182847476978285e-08,159.031,0.7580000162124634,-0.017819813782725243
159.20689700000003,,2.8507642652928132e-08,159.497,0.7730000019073486,0.014802552087318748
159.672414,,2.978804597616878e-08,159.961,0.7749999761581421,0.019009371588729534
160.137931,,3.101757667361617e-08,160.427,0.7480000257492065,-0.04005400342498325
160.60344800000001,,3.218965540280554e-08,160.89,0.7789999842643738,0.027160612051480907
161.06896600000002,,3.3297623444922955e-08,161.36,0.6019999980926514,-0.358860742187006
161.534483,,3.4334763009649575e-08,161.824,0.7580000162124634,-0.019460466926117987
162.0,,3.529431862746482e-08,162.286,0.7850000262260437,0.03884244770343625
162.465517,,3.6169519600127086e-08,162.752,0.7630000114440918,-0.00964084813367381
162.931034,,3.69536034750143e-08,163.216,0.7739999890327454,0.013755639122153808
163.396552,,3.763984050387548e-08,163.682,0.753000020980835,-0.032563133973047775
163.862069,,3.8221559041332056e-08,164.149,0.7760000228881836,0.01699732926716735
164.327586,,3.869217183318947e-08,164.615,0.7519999742507935,-0.03580304531690213
164.793103,,3.904520313929131e-08,165.08,0.7620000243186951,-0.014477576080934671
165.258621,,3.927431663028691e-08,165.546,0.7739999890327454,0.011271288338552328
165.72413799999998,,3.937334399230662e-08,166.005,0.7570000290870667,-0.026081270839651227
166.189655,,3.9336314168165147e-08,166.471,0.777999997138977,0.01944418491979243
166.655172,,3.915748315836189e-08,166.94,0.7509999871253967,-0.039508425684690304
167.12069,,3.883136429983824e-08,167.403,0.8420000076293945,0.1587224127640923
167.58620699999997,,3.835275893520582e-08,167.865,0.7739999890327454,0.010653800386581418
168.051724,,3.77167873799984e-08,168.334,0.753000020980835,-0.03491542451642049
168.517241,,3.6918920090445075e-08,168.795,0.7739999890327454,0.011114490796411036
168.98275900000002,,3.595500892933723e-08,169.265,0.7749999761581421,0.013659811311023555
169.44827600000002,,3.482131842278808e-08,169.73,0.7590000033378601,-0.020754184893715236
169.913793,,3.3514556896086687e-08,170.194,0.7870000004768372,0.04075659045175934
170.37931,,3.203190737245069e-08,170.66,0.7590000033378601,-0.019687850897874268
170.844828,,3.037105811430897e-08,171.124,0.7519999742507935,-0.034349227979057595
171.310345,,2.853023268282118e-08,171.59,0.7770000100135803,0.020719465471537767
171.775862,,2.6508219387690158e-08,172.05,0.7820000052452087,0.032210621956500464
172.241379,,2.4304399995970743e-08,172.515,0.7590000033378601,-0.017323116244853953
172.706897,,2.191877756554929e-08,172.98,0.7739999890327454,0.015890687762914805
173.172414,,1.9352003266286748e-08,173.445,0.7990000247955322,0.07083386610633768
173.637931,,1.6605402049509358e-08,173.917,0.777999997138977,0.025487571778104283
174.103448,,1.3680997024618947e-08,174.379,0.7720000147819519,0.012736237366014733
174.568966,,1.0581532400103644e-08,174.847,0.4050000011920929,-0.7866103283871734
175.034483,,7.310494845182806e-09,175.309,0.7580000162124634,-0.017446516406937135
175.5,,3.872133127740264e-09,175.772,0.777999997138977,0.026113446764294248
175.96551699999998,,2.714758841096108e-10,176.235,0.753000020980835,-0.0284718817694659
176.43103399999998,,3.4856526233041448e-09,176.7,0.7760000228881836,0.021415395375320716
176.896552,,7.392618903630221e-09,177.168,0.7739999890327454,0.016741126997034016
177.36206900000002,,1.1441968931925594e-08,177.634,0.753000020980835,-0.029412796864008148
177.827586,,1.562541927984448e-08,178.101,0.7739999890327454,0.015862917042780353
178.293103,,1.9933850819412613e-08,178.567,0.7519999742507935,-0.032602122395896035
178.758621,,2.4357305133473535e-08,179.031,0.753000020980835,-0.031000956418524094
179.224138,,2.888498376249546e-08,179.497,0.7599999904632568,-0.016353436267409024
179.68965500000002,,3.3505250412918856e-08,179.962,0.7739999890327454,0.013538369070438315
180.155172,,3.820563624707559e-08,180.42,0.7739999890327454,0.012942105597346357
180.62069,,4.297284836891111e-08,180.891,0.777999997138977,0.021092063128184284
181.086207,,4.7792781613284084e-08,181.353,0.7739999890327454,0.011861712731022453
181.551724,,5.265053373949777e-08,181.821,0.7789999842643738,0.022303849535263456
182.01724099999998,,5.7530424121931375e-08,182.283,0.7509999871253967,-0.039071520133730116
182.482759,,6.241601602218567e-08,182.748,0.7870000004768372,0.039075570809875476
182.948276,,6.729014251803794e-08,183.212,0.6869999766349792,-0.17897734146600144
183.413793,,7.213493615471929e-08,183.677,0.7609999775886536,-0.01784492898348304
183.87931,,7.693186237359003e-08,184.142,0.7950000166893005,0.05624604787254447
184.34482799999998,,8.166175676220393e-08,184.608,0.7739999890327454,0.010617336048596528
184.81034499999998,,8.630486615803175e-08,185.072,0.7689999938011169,-5.081789493155918e-05
185.27586200000002,,9.084089362577303e-08,185.537,0.7760000228881836,0.01551955311399508
185.74137900000002,,9.52490473152397e-08,186.002,0.777999997138977,0.020281568972239015
186.206897,,9.950809319326542e-08,186.468,0.7570000290870667,-0.024992886204032515
186.672414,,1.0359641162900429e-07,186.931,0.7749999761581421,0.014757014836175612
187.137931,,1.0749205779735714e-07,187.401,0.7820000052452087,0.030583140718655595
187.60344800000001,,1.1117282585013186e-07,187.861,0.753000020980835,-0.03199859277064317
188.06896600000002,,1.1461631678893953e-07,188.331,0.7760000228881836,0.018714005031833004
188.534483,,1.1780000995778383e-07,188.794,0.781000018119812,0.030197373937923145
189.0,,1.2070133805685645e-07,189.257,0.7739999890327454,0.01550573986666216
189.465517,,1.2329776556224815e-07,189.723,0.753000020980835,-0.02973573545716779
189.931034,,1.2556687041916628e-07,190.189,0.7739999890327454,0.016460854814691617
190.39655199999999,,1.274864288588638e-07,190.654,0.7559999823570251,-0.022388461392954587
190.862069,,1.2903450317188214e-07,191.12,0.777999997138977,0.025818529898035188
191.327586,,1.301895322524438e-07,191.586,0.7760000228881836,0.021640273985750295
191.793103,,1.3093042471095737e-07,192.051,0.7620000243186951,-0.00878486977310893
192.25862099999998,,1.3123665433367485e-07,192.516,0.7639999985694885,-0.004457521358029973
192.72413799999998,,1.3108835765063336e-07,192.976,0.7739999890327454,0.017194207999122236
193.189655,,1.3046643335518273e-07,193.441,0.7580000162124634,-0.017899385027020584
193.655172,,1.2935264330071513e-07,193.909,0.7559999823570251,-0.022585689470527238
194.12069000000002,,1.2772971478274086e-07,194.371,0.7609999775886536,-0.012105142713414658
194.586207,,1.2558144379726908e-07,194.839,0.7609999775886536,-0.012588658335484924
195.051724,,1.2289279894962586e-07,195.301,0.7760000228881836,0.0195521766917047
195.517241,,1.1965002567144993e-07,195.765,0.753000020980835,-0.03113445076795773
195.98275900000002,,1.1584075038772677e-07,196.235,0.7739999890327454,0.014018392756758988
196.448276,,1.1145408426043279e-07,196.7,0.7549999952316284,-0.027977196756018147
196.913793,,1.0648072612074273e-07,197.165,0.7739999890327454,0.012831900136642396
197.37931,,1.00913064187887e-07,197.631,0.7739999890327454,0.012281117695961583
197.844828,,9.474527615971197e-08,198.09,0.753000020980835,-0.03396986091785395
198.310345,,8.797342724787975e-08,198.556,0.7730000019073486,0.009169986143225556
198.775862,,8.059556571952582e-08,199.021,0.7770000100135803,0.01753156195626976
199.241379,,7.261181549715587e-08,199.486,0.7760000228881836,0.015091288637746737
199.706897,,6.40244653596912e-08,199.95,0.7739999890327454,0.010571629946120074
200.172414,,5.483805427994517e-08,200.42,0.7570000290870667,-0.026523761755493362
200.63793099999998,,4.505945242751367e-08,200.883,0.7649999856948853,-0.009048104690571957
201.103448,,3.469793736116982e-08,201.346,0.7609999775886536,-0.01761280578700087
201.568966,,2.376526493144519e-08,201.813,0.7599999904632568,-0.019542897571384513
202.034483,,1.2275734412232959e-08,202.275,0.8399999737739563,0.155089787475707
202.5,,2.462473800370434e-10,202.741,0.7739999890327454,0.011723132848343216
202.965517,,1.2303640139013831e-08,203.211,0.7839999794960022,0.034003113761198744
203.431034,,2.5351672730998105e-08,203.677,0.7739999890327454,0.01276302584758926
203.896552,,3.8872858336380475e-08,204.138,0.7680000066757202,0.0002730649818366946
204.36206900000002,,5.283943913702802e-08,204.604,0.7570000290870667,-0.02309338203794158
204.827586,,6.722087104358384e-08,205.068,0.753000020980835,-0.031211826332703273
205.293103,,8.198381222773841e-08,205.534,0.777999997138977,0.023829665460732487
205.758621,,9.709212113089961e-08,205.998,0.7739999890327454,0.01565249596749949
206.224138,,1.1250686436562253e-07,206.464,0.7739999890327454,0.016135799583613896
206.689655,,1.2818633490888216e-07,206.928,0.7739999890327454,0.016549990905883938
207.155172,,1.4408608096682568e-07,207.39,0.6449999809265137,-0.2641658426649921
207.62069,,1.601589458690014e-07,207.857,0.7739999890327454,0.017113160176863113
208.086207,,1.763551193262117e-07,208.327,0.7739999890327454,0.01724520419403227
208.551724,,1.9262220036006606e-07,208.787,0.7559999823570251,-0.021941259945036495
209.01724099999998,,2.0890527218401538e-07,209.25,0.7609999775886536,-0.011122679922447753
209.482759,,2.2514698928513586e-07,209.715,0.777999997138977,0.025738730874598006
209.948276,,2.412876769232085e-07,210.187,0.7749999761581421,0.018932550771761786
210.413793,,2.5726544322873644e-07,210.645,0.7770000100135803,0.022934164343408475
210.87930999999998,,2.7301630404448117e-07,211.11,0.7080000042915344,-0.12782395520336456
211.344828,,2.884743206159241e-07,211.575,0.7649999856948853,-0.004135728564498758
211.810345,,3.035717501948156e-07,212.043,0.7509999871253967,-0.035178843736960966
212.27586200000002,,3.182392095767202e-07,212.508,0.7739999890327454,0.014358749875003943
212.741379,,3.324058515482704e-07,212.972,0.7590000033378601,-0.01890343981560645
213.206897,,3.459995541727816e-07,213.438,0.7820000052452087,0.030630306138665544
213.672414,,3.589471227940405e-07,213.906,0.7749999761581421,0.014830071861682708
214.137931,,3.711745045875586e-07,214.368,0.7580000162124634,-0.02271414999380145
214.60344800000001,,3.8260701543648876e-07,214.831,0.7739999890327454,0.011694334694220172
215.068966,,3.9316957885585445e-07,215.301,0.7620000243186951,-0.014828044718376721
215.534483,,4.02786976633864e-07,215.765,0.7350000143051147,-0.07394830658152854
216.0,,4.113841108030166e-07,216.227,0.8240000009536743,0.11974597827991948
216.465517,,4.188862764965971e-07,216.693,0.7739999890327454,0.010707146171684551
216.93103399999998,,4.252194451881684e-07,217.158,0.7739999890327454,0.010702569135754464
217.39655199999999,,4.303105577529679e-07,217.624,0.777999997138977,0.019513152532208297
217.862069,,4.340878267308732e-07,218.091,0.753000020980835,-0.03476032556980911
218.327586,,4.364810471110178e-07,218.55,0.7590000033378601,-0.021406267354496106
218.793103,,4.374219148983995e-07,219.016,0.8420000076293945,0.1597854220184078
219.25862099999998,,4.368443526631484e-07,219.482,0.7599999904632568,-0.01842851065036187
219.724138,,4.346848412137082e-07,219.95,0.7739999890327454,0.012564262324150859
220.18965500000002,,4.308827564762727e-07,220.413,0.8489999771118164,0.17649568505463537
220.65517200000002,,4.25380710604635e-07,220.876,0.7680000066757202,0.0005836290042133675
221.12069,,4.181248962873849e-07,221.346,0.7559999823570251,-0.024995582530954595
221.586207,,4.0906543316337767e-07,221.809,0.7770000100135803,0.02130751675943161
222.051724,,3.9815671520184923e-07,222.272,0.7519999742507935,-0.03263781304383206
222.517241,,3.8535775785072656e-07,222.737,0.7620000243186951,-0.01037723505243331
222.98275900000002,,3.7063254370583726e-07,223.2,0.7730000019073486,0.014000317178461669
223.448276,,3.5395036540512677e-07,223.666,0.753000020980835,-0.029234046521216743
223.913793,,3.3528616440591835e-07,224.131,0.7870000004768372,0.045094598853381504
224.37931,,3.1462086425996797e-07,224.597,0.7739999890327454,0.016935971399605086
224.844828,,2.919416969608532e-07,225.062,0.7440000176429749,-0.04835537406514045
225.31034499999998,,2.672425209013659e-07,225.527,0.7599999904632568,-0.013527347269012294
225.775862,,2.4052412894533e-07,225.994,0.7229999899864197,-0.0942651007500848
226.241379,,2.1179454508890843e-07,226.46,0.7680000066757202,0.0035534498863376805
226.706897,,1.8106930816127843e-07,226.92,0.7480000257492065,-0.04032489731244533
227.172414,,1.4837174099380124e-07,227.39,0.7789999842643738,0.026834009237708588
227.63793099999998,,1.1373320347076734e-07,227.85,0.7490000128746033,-0.03896546342629772
228.103448,,7.719332786371222e-08,228.32,0.7739999890327454,0.015014067164432113
228.56896600000002,,3.8800234845430525e-08,228.783,0.7739999890327454,0.014496987578016571
229.03448300000002,,1.3892714205872726e-09,229.246,0.7739999890327454,0.01396657037118873
229.5,,4.3309530714275896e-08,229.712,0.7599999904632568,-0.01706162479960623
229.965517,,8.688587830442976e-08,230.175,0.7590000033378601,-0.0197479227357999
230.431034,,1.3203452217583876e-07,230.641,0.7739999890327454,0.01245945112939193
230.896552,,1.7866244748479766e-07,231.105,0.7559999823570251,-0.027178338167438826
231.362069,,2.266673497594094e-07,231.571,0.7739999890327454,0.011678457896672672
231.827586,,2.7593759832413843e-07,232.036,0.777999997138977,0.02010865782863424
232.293103,,3.263522313842375e-07,232.501,0.7590000033378601,-0.021487015990290705
232.758621,,3.77780984154828e-07,232.968,0.7609999775886536,-0.017242928743720062
233.224138,,4.3008435136143833e-07,233.434,0.753000020980835,-0.034694522132154716
233.689655,,4.831136853735987e-07,233.902,0.7570000290870667,-0.02591191537971419
234.155172,,5.367113311605693e-07,234.364,0.7739999890327454,0.01128099136181417
234.62069,,5.90710799178389e-07,234.832,0.7749999761581421,0.013698664058035648
235.086207,,6.449369772101355e-07,235.294,0.7789999842643738,0.02272764898580512
235.55172399999998,,6.992063820865842e-07,235.76,0.7760000228881836,0.01657102661820447
236.01724099999998,,7.533274521123497e-07,236.223,0.7739999890327454,0.012645121717655465
236.482759,,8.071008809131418e-07,236.689,0.753000020980835,-0.03263743316240878
236.94827600000002,,8.603199933030394e-07,237.154,0.7710000276565552,0.0070690753361834216
237.413793,,9.127711636467794e-07,237.62,0.7730000019073486,0.011923408032455125
237.87931,,9.642342770611074e-07,238.08,0.7609999775886536,-0.013732792438332626
238.344828,,1.0144832336614064e-06,238.545,0.7749999761581421,0.017230838237013806
238.810345,,1.0632864959152999e-06,239.01,0.7739999890327454,0.015475353592899308
239.27586200000002,,1.1104076790139485e-06,239.476,0.7559999823570251,-0.023369962813606593
239.741379,,1.1556061840145709e-06,239.946,0.7760000228881836,0.020508969643617234
240.206897,,1.1986378733446305e-06,240.408,0.753000020980835,-0.029367957403065064
240.672414,,1.2392557880894527e-06,240.876,0.753000020980835,-0.02921715479858875
241.137931,,1.2772109063111353e-06,241.338,0.7789999842643738,0.027493091055519017
241.603448,,1.3122529414678893e-06,241.806,0.7789999842643738,0.02747272234281939
242.068966,,1.3441311798198103e-06,242.268,0.7760000228881836,0.02083242300922035
242.534483,,1.372595355520014e-06,242.734,0.765999972820282,-0.0011390036625909977
243.0,,1.397396561899561e-06,243.196,0.6660000085830688,-0.2192648511794551
243.465517,,1.4182881972611639e-06,243.662,0.7739999890327454,0.01569909594224251
243.93103399999998,,1.4350269433009123e-06,244.13,0.7480000257492065,-0.041332069842029806
244.39655199999999,,1.4473737740797203e-06,244.597,0.7820000052452087,0.032314024112504884
244.862069,,1.4550949932675627e-06,245.061,0.781000018119812,0.029680895161628508
245.327586,,1.4579632971844537e-06,245.527,0.7749999761581421,0.016143272192794506
245.793103,,1.4557588609632384e-06,245.987,0.7860000133514404,0.03964685894554454
246.258621,,1.4482704449613385e-06,246.453,0.7739999890327454,0.01306033694763858
246.724138,,1.4352965183523468e-06,246.916,0.7739999890327454,0.012650491299774962
247.18965500000002,,1.4166463966345798e-06,247.386,0.7549999952316284,-0.029108504615000152
247.655172,,1.392141389603179e-06,247.846,0.7730000019073486,0.00979866737150307
248.12069,,1.361615956145912e-06,248.317,0.7820000052452087,0.02916406425529242
248.586207,,1.3249188620413139e-06,248.78,0.7609999775886536,-0.016756502270457354
249.051724,,1.2819143367620642e-06,249.243,0.7839999794960022,0.03326173185443494
249.517241,,1.2324832251174224e-06,249.708,0.7730000019073486,0.00928656858968651
249.982759,,1.1765241294070085e-06,250.173,0.7350000143051147,-0.07343264171897738
250.44827600000002,,1.113954537605142e-06,250.638,0.8149999976158142,0.10100506967209065
250.913793,,1.0447119329512254e-06,251.105,0.7599999904632568,-0.018602653748460242
251.37931000000003,,9.687548801882206e-07,251.571,0.7829999923706055,0.03178859686752742
251.844828,,8.860640835690085e-07,252.036,0.7850000262260437,0.036482682566076945
252.31034499999998,,7.966434116403001e-07,252.502,0.6579999923706055,-0.2398280736379948
252.77586200000002,,7.005208837166625e-07,252.961,0.7689999938011169,0.002405523599126948
253.241379,,5.977496128740628e-07,253.427,0.7739999890327454,0.013716629952627426
253.706897,,4.884087002240134e-07,253.89,0.8460000157356262,0.17100167350722792
254.172414,,3.7260407517680315e-07,254.36,0.7549999952316284,-0.02684140198207547
254.63793099999998,,2.504692763662951e-07,254.821,0.777999997138977,0.02365843195403322
255.10344800000001,,1.2216616789019802e-07,255.29,0.7609999775886536,-0.013024569473066041
255.56896600000002,,1.2114414480596154e-08,255.756,0.7699999809265137,0.006889291513017387
256.03448299999997,,1.5215209245128858e-07,256.222,0.753000020980835,-0.029899568591103473
256.5,,2.9769645500021613e-07,256.68,0.7549999952316284,-0.02536016874886908
256.965517,,4.4846665405376375e-07,257.146,0.781000018119812,0.031395876654713786
257.431034,,6.041510911890085e-07,257.612,0.753000020980835,-0.02956871789055614
257.896552,,7.644072004118919e-07,258.08,0.7549999952316284,-0.02524851664951612
258.362069,,9.288613319342478e-07,258.545,0.781000018119812,0.031286682461273065
258.827586,,1.0971087417256183e-06,259.005,0.9480000138282776,0.3949470547462858
259.29310300000003,,1.2687136914449977e-06,259.471,0.7540000081062317,-0.02793994959004059
259.758621,,1.4432096631630644e-06,259.939,0.7649999856948853,-0.004255043979848589
260.224138,,1.6200996930667481e-06,260.401,0.7699999809265137,0.006313039288937942
260.689655,,1.798856828094876e-06,260.865,0.7630000114440918,-0.00929658675502693
261.155172,,1.978924709185959e-06,261.334,0.9750000238418579,0.452199475755116
261.62068999999997,,2.1597182845268046e-06,261.795,0.7599999904632568,-0.016590287425353678
262.086207,,2.340624655873573e-06,262.264,0.7580000162124634,-0.02132224075699206
262.551724,,2.5210040606751424e-06,262.73,0.7710000276565552,0.0066387450642450855
263.017241,,2.700190992362454e-06,263.193,0.7549999952316284,-0.02855657854626532
263.482759,,2.8774954607770016e-06,263.659,0.777999997138977,0.021250611479733113
263.94827599999996,,3.0522043942972677e-06,264.124,0.7820000052452087,0.029708531576705787
264.413793,,3.2235831847840462e-06,264.59,0.7549999952316284,-0.02931874335106488
264.87931,,3.3908773760048485e-06,265.05,0.7889999747276306,0.044610379540969615
265.34482799999995,,3.553314495714574e-06,265.516,0.7590000033378601,-0.020830641141271956
265.810345,,3.7101060310650956e-06,265.983,0.7630000114440918,-0.012132468367577427
266.27586199999996,,3.860449546491245e-06,266.449,0.7590000033378601,-0.020798614132012495
266.741379,,4.0035309426758735e-06,266.917,0.8889999985694885,0.2625397248885396
267.206897,,4.13852685463329e-06,267.379,0.7829999923706055,0.03178124499676305
267.672414,,4.264607186369632e-06,267.842,0.7590000033378601,-0.020271536854160083
268.137931,,4.380937778981985e-06,268.305,0.7789999842643738,0.023582290842728032
268.603448,,4.48668320844665e-06,268.776,0.7860000133514404,0.03915110431136823
269.06896600000005,,4.581009708722535e-06,269.239,0.7580000162124634,-0.02150577145073367
269.53448299999997,,4.6630882151598415e-06,269.704,0.7730000019073486,0.011534551113724416
270.0,,4.732097522558728e-06,270.172,0.9110000133514404,0.31255517518599996
270.465517,,4.7872275515694604e-06,270.63,0.7739999890327454,0.014444709625597576
270.931034,,4.827682716466604e-06,271.095,0.7739999890327454,0.014792509914974631
271.396552,,4.85268538666723e-06,271.561,0.5149999856948853,-0.5491651531445955
271.86206899999996,,4.861479433699083e-06,272.028,0.7639999985694885,-0.006419125845622362
272.327586,,4.85333385466145e-06,272.493,0.7310000061988831,-0.07810638512840462
272.793103,,4.827546462561575e-06,272.965,0.765999972820282,-0.001701618015346734
273.258621,,4.783447633255283e-06,273.424,0.7739999890327454,0.01582051140217046
273.724138,,4.720404098074627e-06,273.887,0.753000020980835,-0.02989889738765126
274.18965499999996,,4.637822770590522e-06,274.356,0.7770000100135803,0.022359738888325063
274.655172,,4.535154595337175e-06,274.82,0.7599999904632568,-0.014765367591643378
275.12069,,4.4118984057205295e-06,275.282,0.7680000066757202,0.0025203152573686077
275.586207,,4.267604777747706e-06,275.748,0.7590000033378601,-0.017281463810508674
276.051724,,4.101879865651529e-06,276.211,0.7720000147819519,0.01080359041652133
276.517241,,3.914389204946606e-06,276.677,0.7459999918937683,-0.04611427622830879
276.98275900000004,,3.704861467944097e-06,277.142,0.7540000081062317,-0.028984947873062585
277.448276,,3.473092156274313e-06,277.607,0.8029999732971191,0.07745253745793762
277.913793,,3.2189472145226576e-06,278.073,0.7519999742507935,-0.03397988326467674
278.37931,,2.94236654867822e-06,278.538,0.6069999933242798,-0.35020379541380553
278.844828,,2.643367432728678e-06,279.003,0.777999997138977,0.022033879437686487
279.31034500000004,,2.3220477864130466e-06,279.468,0.753000020980835,-0.032722093791513876
279.77586199999996,,1.9785893068682545e-06,279.931,0.7739999890327454,0.012773021489185573
280.241379,,1.613260436679581e-06,280.401,0.7599999904632568,-0.017943175947422205
280.706897,,1.226419150671545e-06,280.864,0.7329999804496765,-0.07693464868564166
281.172414,,8.185155436577801e-07,281.327,0.7960000038146973,0.06020435735738964
281.637931,,3.900942013086211e-07,281.791,0.7710000276565552,0.0056787210575273035
282.10344799999996,,5.820366370377082e-08,282.26,0.777999997138977,0.020927828959777336
282.568966,,5.256383280582363e-07,282.726,0.7580000162124634,-0.022589703327985936
283.034483,,1.0113699442801394e-06,283.19,0.7739999890327454,0.012377901321847597
283.5,,1.5144572148251101e-06,283.655,0.7580000162124634,-0.022321704092752102
283.965517,,2.0338563709266126e-06,284.12,0.7620000243186951,-0.013405062588861618
284.431034,,2.568420473040224e-06,284.586,0.7599999904632568,-0.017524559038038512
284.89655200000004,,3.11689904930008e-06,285.046,0.7739999890327454,0.013242162805053831
285.362069,,3.677938087909048e-06,285.511,0.7950000166893005,0.05927896929237155
285.827586,,4.250080398812333e-06,285.976,0.7870000004768372,0.04214551291630529
286.293103,,4.831766359353017e-06,286.442,0.7770000100135803,0.020655391615173362
286.758621,,5.421335057876403e-06,286.905,0.7749999761581421,0.016584458862198285
287.22413800000004,,6.01702584843714e-06,287.375,0.7570000290870667,-0.022364683676449247
287.689655,,6.616980328868297e-06,287.835,0.7760000228881836,0.019266973007924387
288.155172,,7.21924475349451e-06,288.305,0.7630000114440918,-0.008854767561858802
288.62069,,7.82177289071198e-06,288.768,0.7580000162124634,-0.019590440710916538
289.086207,,8.422429334516628e-06,289.231,0.765999972820282,-0.002052016011580467
289.55172400000004,,9.018993277838708e-06,289.696,0.765999972820282,-0.001993823861315174
290.01724099999996,,9.609162754238445e-06,290.161,0.765999972820282,-0.001987947085938578
290.482759,,1.0190559353133926e-05,290.627,0.7590000033378601,-0.017284538395185154
290.948276,,1.0760733412271073e-05,291.091,0.7570000290870667,-0.021737964381026553
291.413793,,1.1317169689607951e-05,291.557,0.7739999890327454,0.015156748248085938
291.87931,,1.1857293515173905e-05,292.024,0.7689999938011169,0.004081161674062219
292.344828,,1.2378477421780872e-05,292.49,0.7749999761581421,0.0169375341343576
292.81034500000004,,1.2878048251712387e-05,292.95,0.7739999890327454,0.014518188487592553
293.275862,,1.3353294734698721e-05,293.42,0.753000020980835,-0.031491112175411576
293.74137900000005,,1.380147553060775e-05,293.883,0.7739999890327454,0.013994323970984254
294.206897,,1.4219827728344744e-05,294.346,0.75,-0.03855858109935522
294.672414,,1.4605575790464592e-05,294.813,0.7910000085830688,0.050510866624760224
295.13793100000004,,1.4955940930961857e-05,295.275,0.7620000243186951,-0.012905741564175316
295.603448,,1.5268150911622605e-05,295.741,0.7770000100135803,0.019565402225039854
296.068966,,1.5539450240202825e-05,296.211,0.7549999952316284,-0.028539729094871097
296.534483,,1.576711075154729e-05,296.67,0.7990000247955322,0.06718577439393175
297.0,,1.594844255058612e-05,297.138,0.7739999890327454,0.012629025320832264
297.46551700000003,,1.608080529395085e-05,297.604,0.753000020980835,-0.033166167437237014
297.931034,,1.6161619784744418e-05,298.068,0.7480000257492065,-0.04405658534603325
298.396552,,1.6188379852787562e-05,298.534,0.7609999775886536,-0.01568593273313696
298.862069,,1.6158664490455183e-05,298.999,0.6039999723434448,-0.35764473614435
299.327586,,1.6070150212018443e-05,299.465,0.7760000228881836,0.01720716318986859
299.79310300000003,,1.592062360222988e-05,299.928,0.7609999775886536,-0.015314815379836578
300.258621,,1.5707994017738364e-05,300.39,0.7739999890327454,0.013196629071981755
300.724138,,1.54303064028069e-05,300.861,0.777999997138977,0.022125071303149106
301.189655,,1.508575417873844e-05,301.324,0.7599999904632568,-0.016859288290856388
301.65517200000005,,1.467269216440216e-05,301.787,0.7739999890327454,0.013882336960409431
302.12069,,1.4189649483304671e-05,302.25,0.7519999742507935,-0.03380674293884436
302.586207,,1.363534241077708e-05,302.715,0.7950000166893005,0.06010916110258553
303.05172400000004,,1.3008687113059423e-05,303.187,0.7879999876022339,0.04507815242330426
303.517241,,1.2308812228368859e-05,303.645,0.7680000066757202,0.0017031347318874723
303.982759,,1.1535071238447228e-05,304.113,0.7760000228881836,0.01930105767346004
304.448276,,1.0687054577607061e-05,304.579,0.7549999952316284,-0.026317478552306768
304.913793,,9.764601424943259e-06,305.043,0.753000020980835,-0.030582386664001707
305.37931000000003,,8.767811124160352e-06,305.509,0.7739999890327454,0.015217416722815699
305.844828,,7.697054174392732e-06,305.976,0.7599999904632568,-0.015280704246993283
306.310345,,6.552982734477464e-06,306.442,0.7649999856948853,-0.004429916848072265
306.775862,,5.336540582386107e-06,306.902,0.7609999775886536,-0.013231078829791569
307.241379,,4.048972470943104e-06,307.371,0.777999997138977,0.023678604961444635
307.70689699999997,,2.691832820563199e-06,307.832,0.7760000228881836,0.019158037556535355
308.172414,,1.266993689538314e-06,308.295,0.800000011920929,0.07125265413254492
308.637931,,2.233480375957387e-07,308.765,0.7739999890327454,0.014392155141874653
309.103448,,1.7766643028718607e-06,309.227,0.7549999952316284,-0.027233878710515205
309.568966,,3.3900904277134106e-06,309.693,0.7879999876022339,0.0444210084279278
310.034483,,5.0604206239390595e-06,310.158,0.7739999890327454,0.013679437550463
310.5,,6.7841045202350155e-06,310.623,0.7710000276565552,0.00691139617386564
310.96551700000003,,8.55724476024856e-06,311.09,0.7760000228881836,0.017588436351705164
311.431034,,1.0375595727079706e-05,311.556,0.7760000228881836,0.01739577795564428
311.896552,,1.223456344731826e-05,312.021,0.7839999794960022,0.03466263271031622
312.362069,,1.4129206725886822e-05,312.486,0.7639999985694885,-0.009036612427565632
312.827586,,1.605423956080208e-05,312.946,0.7739999890327454,0.012663476049590025
313.29310300000003,,1.800403488455378e-05,313.416,0.7770000100135803,0.019156105232546076
313.758621,,1.9972629676120325e-05,313.879,0.7540000081062317,-0.030951714086158603
314.224138,,2.195373148469028e-05,314.342,0.7839999794960022,0.03445315047059124
314.689655,,2.3940726402939638e-05,314.81,0.777999997138977,0.0214702550957454
315.155172,,2.592668852422521e-05,315.272,0.781000018119812,0.02813623066129097
315.62068999999997,,2.7904390914296317e-05,315.737,0.7540000081062317,-0.03052111926709424
316.086207,,2.9866318124102173e-05,316.2,0.7739999890327454,0.013248125355811182
316.551724,,3.180468026598394e-05,316.666,0.7739999890327454,0.013468203938573845
317.017241,,3.371142867099305e-05,317.131,0.7590000033378601,-0.01897494098663768
317.482759,,3.557827314027613e-05,317.597,0.7770000100135803,0.020485615019451557
317.94827599999996,,3.739670079841857e-05,318.062,0.7739999890327454,0.014194836327845496
318.413793,,3.9157996551350865e-05,318.528,0.7549999952316284,-0.02696235579774547
318.87931000000003,,4.085326514590369e-05,318.994,0.7749999761581421,0.01683116900664474
319.344828,,4.247345482235938e-05,319.46,0.734000027179718,-0.07229721212901145
319.810345,,4.4009382545400344e-05,319.92,0.7739999890327454,0.015013216617590416
320.275862,,4.5451760792711865e-05,320.39,0.7789999842643738,0.02603458005434422
320.741379,,4.679122587417176e-05,320.854,0.7549999952316284,-0.02616522172961132
321.20689699999997,,4.801836774806793e-05,321.316,0.7620000243186951,-0.010871010625170508
321.672414,,4.912376129414307e-05,321.787,0.7760000228881836,0.019627970772699836
322.137931,,5.0097998996492577e-05,322.249,0.7699999809265137,0.006508617414164252
322.603448,,5.093172498245476e-05,322.715,0.7580000162124634,-0.01972649597018213
323.068966,,5.1615670356653555e-05,323.179,0.7549999952316284,-0.026395642747938545
323.53448299999997,,5.2140689762304225e-05,323.645,0.7590000033378601,-0.017851877075459745
324.0,,5.249779909479486e-05,324.11,0.7739999890327454,0.014625279650068414
324.465517,,5.267821428543533e-05,324.576,0.7490000128746033,-0.040068268115449036
324.931034,,5.267339106614552e-05,325.036,0.7789999842643738,0.02504644574111879
325.396552,,5.247506561876325e-05,325.501,0.7739999890327454,0.013899933411192354
325.86206899999996,,5.207529600561624e-05,325.968,0.7739999890327454,0.013646962824113953
326.327586,,5.146650427105058e-05,326.434,0.753000020980835,-0.03234923715920752
326.793103,,5.06415190967704e-05,326.895,0.7739999890327454,0.013173899580389541
327.258621,,4.959361888714906e-05,327.364,0.7580000162124634,-0.021888792904764625
327.724138,,4.831657515415434e-05,327.832,0.7630000114440918,-0.01116897522883633
328.189655,,4.680469606521943e-05,328.294,0.765999972820282,-0.004769644485417562
328.655172,,4.505287001132119e-05,328.765,0.765999972820282,-0.004864291004491959
329.12068999999997,,4.305660904673124e-05,329.22,0.7820000052452087,0.029945179600978138
329.586207,,4.08120920464169e-05,329.685,0.7710000276565552,0.005979047236741126
330.051724,,3.831620742192341e-05,330.152,0.8379999995231628,0.15199681431658885
330.517241,,3.5566595231799754e-05,330.617,0.7739999890327454,0.012660621528653593
330.982759,,3.2561688518273376e-05,331.083,0.7620000243186951,-0.013341164186424405
331.44827599999996,,2.9300753697969406e-05,331.549,0.7749999761581421,0.015161561997124996
331.913793,,2.578392983104184e-05,332.014,0.7739999890327454,0.013196048370951199
332.37931,,2.2012266590173357e-05,332.48,0.7559999823570251,-0.02578106723945023
332.844828,,1.7987760748540727e-05,332.942,0.7820000052452087,0.031119735758356488
333.310345,,1.3713391004069096e-05,333.405,0.7710000276565552,0.0074196489253190775
333.77586199999996,,9.193150956143896e-06,333.872,0.7730000019073486,0.012042219189693101
334.241379,,4.432080050446937e-06,334.342,0.753000020980835,-0.03127454884564255
334.706897,,5.637076922346583e-07,334.802,0.765999972820282,-0.002714345643046987
335.17241399999995,,5.78699734648038e-06,335.272,0.7799999713897705,0.02799858934715033
335.637931,,1.1229449333599873e-05,335.73,0.777999997138977,0.023820671021091866
336.103448,,1.6881578433081794e-05,336.201,0.7820000052452087,0.03267616545920948
336.56896600000005,,2.273273573010353e-05,336.666,0.7870000004768372,0.0436671077333776
337.034483,,2.8771093671032468e-05,337.125,0.753000020980835,-0.030356291831128073
337.5,,3.498363439395429e-05,337.59,0.7599999904632568,-0.015105283617067367
337.965517,,4.13561414954965e-05,338.058,0.753000020980835,-0.03040612501351572
338.431034,,4.787319538855615e-05,338.523,0.7739999890327454,0.015245891060460313
338.89655200000004,,5.4518172397973124e-05,338.991,0.777999997138977,0.023815626446211758
339.36206899999996,,6.127324773269857e-05,339.45,0.7730000019073486,0.012737292283751226
339.827586,,6.811940246358103e-05,339.92,0.777999997138977,0.023411216369727202
340.293103,,7.503643462551997e-05,340.383,0.7730000019073486,0.012271645881164592
340.758621,,8.200297455141197e-05,340.846,0.777999997138977,0.022899645758339228
341.224138,,8.899650453303703e-05,341.316,0.7549999952316284,-0.027484976702196542
341.68965499999996,,9.599338289079976e-05,341.776,0.777999997138977,0.02234667191938182
342.155172,,0.00010296887252005684,342.246,1.003000020980835,0.5122778319172357
342.62069,,0.00010989717396663412,342.711,0.7720000147819519,0.008770519918164242
343.086207,,0.00011675146306807677,343.175,0.7789999842643738,0.023810800232060447
343.551724,,0.0001235039331801997,343.641,0.7720000147819519,0.008381807774422007
344.01724099999996,,0.00013012584199063206,344.105,0.7739999890327454,0.01259786408778296
344.48275900000004,,0.00013658756290229883,344.571,0.7519999742507935,-0.03543221021521579
344.948276,,0.00014285864095018094,345.035,0.7570000290870667,-0.024594592269185252
345.413793,,0.00014890785319427913,345.501,0.9169999957084656,0.3239821533234608
345.87931,,0.00015470327351052007,345.965,0.7559999823570251,-0.026735389945689955
346.344828,,0.00016021234167942137,346.43,0.7739999890327454,0.012573248106207802
346.81034500000004,,0.00016540193664970623,346.894,0.7639999985694885,-0.009077922191825644
347.275862,,0.00017023845383077387,347.356,0.7739999890327454,0.012881994817332333
347.741379,,0.00017468788624407387,347.824,0.7590000033378601,-0.01959177950309208
348.206897,,0.0001787159093390958,348.287,0.6729999780654907,-0.2067257979946432
348.672414,,0.000182287969254902,348.752,0.7839999794960022,0.03534940907619244
349.13793100000004,,0.00018536937428287502,349.216,0.7480000257492065,-0.042827210202829584
349.60344799999996,,0.00018792538926068987,349.682,0.7889999747276306,0.04675509488394521
350.068966,,0.00018992133260172924,350.147,0.7789999842643738,0.025222285060258066
350.534483,,0.00019132267563849178,350.612,0.7739999890327454,0.014571033902834096
351.0,,0.0001920951439328329,351.079,0.7739999890327454,0.014793464792599043
351.465517,,0.00019220482017966024,351.545,0.7559999823570251,-0.024226700244117393
351.93103399999995,,0.00019161824830417427,352.005,0.7739999890327454,0.01515122518409144
352.396552,,0.00019030253832722426,352.471,0.7580000162124634,-0.019583191651560854
352.862069,,0.000188225471549741,352.939,0.7599999904632568,-0.015144417477651108
353.32758600000005,,0.00018535560558374488,353.402,0.777999997138977,0.024108032034973942
353.793103,,0.0001816623787311152,353.865,0.7559999823570251,-0.023831135525247495
354.258621,,0.0001771162131836435,354.335,0.7739999890327454,0.015330261759196075
354.72413800000004,,0.00017168861649652663,354.798,0.7689999938011169,0.00433915107748559
355.189655,,0.00016535228077567722,355.26,0.7739999890327454,0.015094244787482478
355.655172,,0.00015808117900425358,355.726,0.7680000066757202,0.0018482606572779708
356.12069,,0.0001498506578989699,356.19,0.7400000095367432,-0.059359269212804724
356.586207,,0.0001406375266453622,356.656,0.7490000128746033,-0.03998260860417565
357.05172400000004,,0.000130420140858475,357.12,0.7559999823570251,-0.024981981419549108
357.517241,,0.00011917848116042452,357.586,0.7739999890327454,0.013973817543291533
357.982759,,0.0001068942257735417,358.053,0.7760000228881836,0.018070247939842635
358.448276,,9.355081641094145e-05,358.519,0.7739999890327454,0.013459456662179688
358.913793,,7.913351661257386e-05,358.984,0.7580000162124634,-0.02163717540192311
359.37931000000003,,6.36294617875165e-05,359.45,0.9139999747276306,0.31801854124452045
359.844828,,4.702770057261728e-05,359.913,0.7739999890327454,0.01282852199416105
360.310345,,2.931922715443578e-05,360.375,0.7549999952316284,-0.028707968278350794
360.775862,,1.0497003508342772e-05,360.846,0.7699999809265137,0.003867622522432652
361.241379,,9.444030117743994e-06,361.309,0.7749999761581421,0.01469802549643167
361.706897,,3.0506957213013953e-05,361.772,0.7580000162124634,-0.02235865809906263
362.172414,,5.269289819524483e-05,362.235,0.7599999904632568,-0.017978207675201793
362.63793100000004,,7.600103373545523e-05,362.7,0.7580000162124634,-0.022270525193570128
363.103448,,0.00010042864155957006,363.172,0.7699999809265137,0.003977833132314612
363.568966,,0.00012597115299409957,363.63,0.7599999904632568,-0.017667411575427287
364.034483,,0.00015262222877363262,364.095,0.7590000033378601,-0.019672834815779538
364.5,,0.0001803738421753033,364.561,0.7739999890327454,0.013206720654325885
364.96551700000003,,0.00020921636222002852,365.028,0.7739999890327454,0.013427612739017436
365.431034,,0.00023913865688090534,365.493,0.7730000019073486,0.011484427685480282
365.896552,,0.000270128248236214,365.965,0.7599999904632568,-0.016595521264991916
366.362069,,0.0003021715050438606,366.423,0.5460000038146973,-0.4825886975120995
366.827586,,0.0003352537963733598,366.891,0.7580000162124634,-0.020493413743483038
367.29310300000003,,0.0003693595760141131,367.353,0.7620000243186951,-0.011575580361185943
367.758621,,0.0004044725311639613,367.817,0.7429999709129333,-0.052787027130721864
368.224138,,0.00044057596464696877,368.287,0.7739999890327454,0.01490894764516601
368.689655,,0.00047765327147874473,368.745,0.777999997138977,0.02375289233855425
369.155172,,0.0005156880508912132,369.215,0.7739999890327454,0.015136442895303762
369.62068999999997,,0.0005546637739258353,369.681,0.6200000047683716,-0.32031392582987284
370.086207,,0.0005945638862213233,370.146,0.7570000290870667,-0.021818567494098346
370.55172400000004,,0.0006353732114880953,370.612,0.7789999842643738,0.026093363352743024
371.017241,,0.0006770795366460385,371.076,0.7580000162124634,-0.01971097883813966
371.482759,,0.0007196727053895152,371.541,0.7760000228881836,0.01941940927459202
371.948276,,0.000763141387565593,372.006,0.7710000276565552,0.008411382146453298
372.413793,,0.0008074731532592314,372.472,0.7580000162124634,-0.02005183895424673
372.87931000000003,,0.0008526619957337153,372.935,0.7760000228881836,0.01900113555139784
373.344828,,0.0008987150324552244,373.397,0.7910000085830688,0.05150160897739193
373.810345,,0.000945643262856933,373.865,0.753000020980835,-0.03147750059650828
374.275862,,0.0009934413247236244,374.328,0.7760000228881836,0.018434300763380332
374.741379,,0.0010420912814425047,374.791,0.5109999775886536,-0.5591110911915893
375.20689699999997,,0.0010916082196913374,375.26,0.7739999890327454,0.013665361726543274
375.672414,,0.0011420698010614749,375.726,0.6499999761581421,-0.25669207262656185
376.137931,,0.0011935470524281392,376.19,0.7670000195503235,-0.0019830588444383255
376.603448,,0.0012459893767741898,376.656,0.7559999823570251,-0.02612192984948989
377.068966,,0.0012992761254344207,377.12,0.746999979019165,-0.04587731406258389
377.53448299999997,,0.0013534951643924392,377.586,0.7599999904632568,-0.017672267361354615
378.0,,0.0014090600081809877,378.051,0.656000018119812,-0.24433727871751149
378.465517,,0.001466231406056413,378.516,0.7739999890327454,0.012690600560053522
378.931034,,0.0015244957865809938,378.976,0.7580000162124634,-0.02218380173544418
379.396552,,0.0015830540829815047,379.442,0.7760000228881836,0.017054823470054263
379.862069,,0.0016424905912267944,379.905,0.7609999775886536,-0.01556374687191395
380.327586,,0.0017050998538050486,380.375,0.7490000128746033,-0.04161024345221465
380.79310300000003,,0.0017717165585365686,380.839,0.7789999842643738,0.02387912000862298
381.258621,,0.001838515295249873,381.301,0.8090000152587891,0.08939874636481179
381.724138,,0.00190097686936274,381.765,0.7739999890327454,0.013332189710416713
382.189655,,0.0019636331883628585,382.235,0.777999997138977,0.022252612897258106
382.655172,,0.002039685298168053,382.701,0.7820000052452087,0.031185662858027555
383.12068999999997,,0.0021306610104235104,383.161,0.7919999957084656,0.05319666744761625
383.586207,,0.0022109735413965432,383.626,0.7760000228881836,0.018561964167387802
384.051724,,0.002257433118066682,384.09,0.777999997138977,0.023134399924316013
384.517241,,0.0023045392064851068,384.556,0.7739999890327454,0.0146193511601014
384.982759,,0.002427902901569886,385.021,0.7559999823570251,-0.024419263253526915
385.44827599999996,,0.0026173282070009055,385.487,0.7760000228881836,0.01930236468068482
385.913793,,0.002709658625979977,385.95,0.7739999890327454,0.015060639166959067
386.37931,,0.0025961860178512026,386.42,0.7760000228881836,0.01949739437185629
386.84482799999995,,0.002526164916357631,386.883,0.7490000128746033,-0.039286039566877866
387.310345,,0.0029223510826831907,387.346,0.7739999890327454,0.015179216491778783
387.775862,,0.0036095882684742324,387.817,0.7760000228881836,0.019495156176691498
388.241379,,0.0035791608904880714,388.279,0.753000020980835,-0.030694242113533058
388.70689699999997,,0.002391223763037104,388.745,0.7739999890327454,0.01494002361263881
389.172414,,0.0017919585920801759,389.208,0.8939999938011169,0.2762302125281714
389.637931,,0.00412662533479029,389.674,0.8389999866485596,0.15623489317506997
390.103448,,0.007587533583481694,390.139,0.7739999890327454,0.014435460898017928
390.56896600000005,,0.0048427399512056685,390.605,0.7620000243186951,-0.011911129172683062
391.03448299999997,,0.009990001314201004,391.065,0.7689999938011169,0.00312545864894571
391.5,,0.03294160940620155,391.531,0.7549999952316284,-0.027594216222180064
391.965517,,0.051972130836065944,391.998,0.7710000276565552,0.007047601931771156
392.431034,,0.05751188752824628,392.464,0.7559999823570251,-0.025840133032188947
392.896552,,0.04894151423887119,392.932,0.7549999952316284,-0.02821166507423168
393.36206899999996,,0.03185685164651066,393.394,0.7820000052452087,0.030440270864510722
393.827586,,0.012856939049598106,393.857,0.7590000033378601,-0.01981291088919557
394.293103,,0.0028271303777425796,394.327,0.7739999890327454,0.012754544272979127
394.75862099999995,,0.012310925426149104,394.787,0.7770000100135803,0.019214196335720843
395.224138,,0.01602712178309377,395.25,0.902999997138977,0.2936889131865483
395.68965499999996,,0.01682628721088743,395.715,0.7480000257492065,-0.04399229590617376
396.155172,,0.01654679129235931,396.186,0.7570000290870667,-0.024334172901994407
396.62069,,0.013370719082432252,396.645,0.7390000224113464,-0.06346313452421613
397.086207,,0.003457158785961122,397.11,0.7739999890327454,0.012910229165612118
397.551724,,0.014351270349622365,397.576,0.7739999890327454,0.013062229228090288
398.017241,,0.0356627618209365,398.043,0.7749999761581421,0.0154201888331113
398.48275900000004,,0.052570884818404745,398.508,0.7480000257492065,-0.04320250590391761
398.94827599999996,,0.058602630899464304,398.976,0.7699999809265137,0.004943064274663385
399.413793,,0.05207567947723915,399.441,0.7590000033378601,-0.018798470834191013
399.87931,,0.03563408619176022,399.902,0.7580000162124634,-0.020752226124344346
400.344828,,0.01367134057226012,400.371,0.7850000262260437,0.03829087511424176
400.810345,,0.009431634700557934,400.831,0.753000020980835,-0.031218015744355825
401.27586199999996,,0.029535831972410068,401.301,0.7739999890327454,0.014723100919988946
401.741379,,0.04308444193497808,401.765,0.7699999809265137,0.006173967045438114
402.206897,,0.04861831218040415,402.227,0.7770000100135803,0.021561242693457498
402.672414,,0.04795816839869126,402.693,0.7549999952316284,-0.026265696259678253
403.137931,,0.044979203308060316,403.157,0.8069999814033508,0.08709115069763179
403.60344799999996,,0.04275962364654649,403.623,0.6919999718666077,-0.16342544797172595
404.068966,,0.042107560570395094,404.09,0.7580000162124634,-0.01964849711110044
404.534483,,0.04248065776554635,404.556,0.7760000228881836,0.0195121796317367
405.0,,0.04322851620399235,405.021,0.7739999890327454,0.015062324621624707
405.465517,,0.04362583310343221,405.486,0.753000020980835,-0.030816466206305095
405.931034,,0.042667789249954846,405.95,0.7559999823570251,-0.02443943123805404
406.39655200000004,,0.0396658252693873,406.413,0.7509999871253967,-0.03551857732804568
406.862069,,0.0349134266947906,406.876,0.7760000228881836,0.018740828153211906
407.327586,,0.029433066735775136,407.346,0.7749999761581421,0.016341415298822586
407.793103,,0.02400018194093904,407.809,0.7570000290870667,-0.023101655952759707
408.258621,,0.018284634897474266,408.272,0.7739999890327454,0.013707604618151181
408.72413800000004,,0.010989406301455125,408.738,0.7760000228881836,0.017844458724184355
409.18965499999996,,0.0014092754917647168,409.2,0.843999981880188,0.16578761897373057
409.655172,,0.008961190457552792,409.666,0.7599999904632568,-0.01740092696146291
410.12069,,0.01731752066136566,410.131,0.7480000257492065,-0.043700441564464225
410.586207,,0.022667213390540324,410.597,0.7570000290870667,-0.024219395199826674
411.05172400000004,,0.02711206915016791,411.061,0.753000020980835,-0.03302802089720747
411.51724099999996,,0.033172104466321115,411.526,0.7739999890327454,0.012665526149824212
411.982759,,0.04064613823226139,411.991,0.7450000047683716,-0.05053540883206254
412.448276,,0.04683905099168563,412.457,0.7789999842643738,0.023556876589959967
412.913793,,0.048937058395814304,412.924,0.7739999890327454,0.01272035530467315
413.37931,,0.04539826437882035,413.387,0.7570000290870667,-0.024223034753270145
413.844828,,0.03619269020185838,413.85,0.7739999890327454,0.01294104050957865
414.31034500000004,,0.023185200994677052,414.319,0.7599999904632568,-0.017403180257741725
414.775862,,0.009971786247815943,414.783,0.7480000257492065,-0.04336549682922479
415.241379,,0.0001873300984675051,415.245,0.7570000290870667,-0.023557762606114592
415.706897,,0.007023728123977651,415.711,0.7739999890327454,0.013691955542686162
416.172414,,0.013290174752266811,416.176,0.7760000228881836,0.018269418666714558
416.63793100000004,,0.021365227282661273,416.641,0.7649999856948853,-0.005474834652132343
417.103448,,0.02987141263676607,417.106,0.7739999890327454,0.014347986386965413
417.568966,,0.03434439102269481,417.572,0.7739999890327454,0.014550588933691329
418.034483,,0.031600449400473796,418.038,0.7519999742507935,-0.03319587381716659
418.5,,0.0230080918466817,418.504,0.7879999876022339,0.04539490317017837
418.96551700000003,,0.013078995184577794,418.969,0.7739999890327454,0.015024547072378266
419.43103399999995,,0.005528468295026445,419.435,0.7630000114440918,-0.008842510942378954
419.896552,,0.0015931344909681198,419.898,0.7749999761581421,0.017363071054135787
420.362069,,0.0013226549446528682,420.36,0.7730000019073486,0.013029801817942686
420.827586,,0.004308512379584457,420.832,0.46700000762939453,-0.6536571239837174
421.293103,,0.00849592989448223,421.294,0.8119999766349792,0.09790797571514223
421.758621,,0.010095837208890799,421.765,0.7549999952316284,-0.02638376172432662
422.22413800000004,,0.0064171278869398826,422.22,0.7590000033378601,-0.01780966255742386
422.689655,,0.0014136732325782944,422.686,0.7739999890327454,0.014701903398623449
423.15517200000005,,0.009448067642604807,423.15,0.7760000228881836,0.018869735821429378
423.62069,,0.01457747196719145,423.616,0.7590000033378601,-0.01837210724519799
424.086207,,0.01672472481300796,424.083,0.7760000228881836,0.0184512238004367
424.55172400000004,,0.01773409635532478,424.548,0.75,-0.038409898847403645
425.017241,,0.018975518261885663,425.013,0.753000020980835,-0.032086438837560294
425.482759,,0.020205295444748635,425.479,0.7739999890327454,0.013462789830769338
425.948276,,0.020114497760467136,425.942,0.7559999823570251,-0.025938406644990503
426.413793,,0.017668311159846354,426.412,0.7799999713897705,0.0261862046103437
426.87931000000003,,0.01334203720476775,426.872,0.8330000042915344,0.14152060369281444
427.344828,,0.0093475865010041,427.342,0.5989999771118164,-0.3683867729488996
427.810345,,0.008283741904181238,427.802,0.7710000276565552,0.006266534625022855
428.275862,,0.011094439826674778,428.272,0.7549999952316284,-0.028633737181990256
428.741379,,0.01622613061057776,428.73,0.7599999904632568,-0.01774591825859416
429.20689699999997,,0.02075394489650091,429.2,0.7480000257492065,-0.043859088688781495
429.672414,,0.02235175045486678,429.666,0.7789999842643738,0.02374447038629375
430.137931,,0.020584013398507017,430.132,0.777999997138977,0.021664988073219676
430.603448,,0.016890244991220937,430.59,0.7559999823570251,-0.026135770158115242
431.068966,,0.0134588325069727,431.057,0.7739999890327454,0.013235126952984325
431.534483,,0.011802627150562815,431.523,0.7879999876022339,0.043912517873467644
432.0,,0.012213337361750358,431.987,0.9629999995231628,0.4253719957102895
432.46551700000003,,0.01447822104966889,432.453,0.7580000162124634,-0.021039143834126525
432.931034,,0.018516301619408097,432.921,0.7590000033378601,-0.018643984315310405
433.396552,,0.023327108663176627,433.383,0.7760000228881836,0.018603503346455812
433.862069,,0.025293552168783564,433.846,0.7570000290870667,-0.022593254048671876
434.327586,,0.019284700455020114,434.316,0.7739999890327454,0.014621816738668948
434.79310300000003,,0.0033921405248407157,434.777,0.7739999890327454,0.014774952796576622
435.258621,,0.017513268606328885,435.246,0.7599999904632568,-0.015602870564612913
435.724138,,0.034518575670328074,435.705,0.7570000290870667,-0.02204983410577524
436.189655,,0.041689373439332496,436.171,0.7649999856948853,-0.00456914113593154
436.655172,,0.039987198265221874,436.637,0.7609999775886536,-0.013270731991134306
437.12068999999997,,0.03441386992709715,437.102,0.777999997138977,0.02374100481961936
437.586207,,0.02847080081719503,437.568,0.7519999742507935,-0.032966380880726794
438.051724,,0.022178580319264708,438.035,0.7760000228881836,0.019223952113606467
438.517241,,0.014791213705227292,438.501,0.7599999904632568,-0.015763066544333557
438.982759,,0.007811701063069782,438.961,0.7739999890327454,0.014582975148906142
439.448276,,0.004205533001469899,439.427,0.7559999823570251,-0.024808897742689996
439.913793,,0.004747638660153696,439.895,0.7570000290870667,-0.02282169264070485
440.37931000000003,,0.00626535725547414,440.357,0.8500000238418579,0.17959382528668677
440.844828,,0.004915041866438267,440.824,0.9169999957084656,0.32536865375436697
441.310345,,0.0014378674428826778,441.287,0.7739999890327454,0.013639458390281013
441.775862,,0.000917040546643816,441.752,0.7839999794960022,0.03525777017157866
442.241379,,0.004612797635244836,442.216,0.7739999890327454,0.013320045158103635
442.70689699999997,,0.003466712398167193,442.682,0.7580000162124634,-0.021668519295242918
443.172414,,0.014767667185321411,443.147,0.7570000290870667,-0.023953284137279596
443.637931,,0.04921939588289112,443.612,0.777999997138977,0.021719375529869127
444.103448,,0.08062568520873893,444.077,0.7839999794960022,0.03474265517480979
444.568966,,0.086915932802579,444.542,0.7839999794960022,0.034726238951626576
445.03448299999997,,0.063124107619755,445.009,0.7739999890327454,0.012955595783313005
445.5,,0.02315694962247755,445.474,0.7739999890327454,0.01300240402784252
445.965517,,0.01586952190508014,445.935,0.7739999890327454,0.013078126300267216
446.431034,,0.04618841661290079,446.405,0.7549999952316284,-0.02821469765226854
446.896552,,0.06695303107858253,446.865,0.7720000147819519,0.008945696855212267
447.36206899999996,,0.07611662375528572,447.335,0.7870000004768372,0.041766891612870866
447.827586,,0.07032134503513017,447.798,0.7599999904632568,-0.016901359221468532
448.29310300000003,,0.05197867921660937,448.261,0.7760000228881836,0.018120657079497827
448.758621,,0.03165346789649653,448.726,0.765999972820282,-0.0034995489993615934
449.224138,,0.02035826070831732,449.19,0.7730000019073486,0.011914999648677014
449.689655,,0.02010785034676082,449.656,0.753000020980835,-0.03150195767506636
450.155172,,0.023711020651408912,450.124,0.7519999742507935,-0.033538183618318534
450.62068999999997,,0.023609124101206795,450.59,0.7739999890327454,0.01451684434566435
451.086207,,0.019234732969749525,451.05,0.7620000243186951,-0.011523090433487366
451.551724,,0.015276010299406468,451.515,0.7459999918937683,-0.04630201016579014
452.017241,,0.014710030278146057,451.98,0.7760000228881836,0.01911043233960407
452.482759,,0.015776459382523172,452.446,0.7760000228881836,0.019136274732203643
452.94827599999996,,0.015463667138648548,452.916,0.7789999842643738,0.025671185632711216
453.413793,,0.013485243819615383,453.379,0.7710000276565552,0.00821478618115366
453.87931,,0.01148929841253922,453.846,0.753000020980835,-0.03105384202961234
454.344828,,0.00984462266357522,454.309,0.7580000162124634,-0.020237795302134685
454.810345,,0.00723791032461355,454.777,0.8980000019073486,0.2846769301083892
455.27586199999996,,0.003132611032285209,455.239,0.7739999890327454,0.01441567426797002
455.741379,,0.0012926162933518403,455.705,0.7480000257492065,-0.042349364027523734
456.206897,,0.005183012893003646,456.172,0.7739999890327454,0.014164698107521474
456.672414,,0.009557978143939501,456.63,0.8679999709129333,0.21882279336704827
457.137931,,0.01579540351937737,457.095,0.7590000033378601,-0.018782858143812767
457.603448,,0.02328689961692885,457.561,0.7749999761581421,0.015946358844945316
458.06896600000005,,0.029738045411500356,458.028,0.7590000033378601,-0.01903526201869456
458.53448299999997,,0.033786419080955234,458.493,0.7739999890327454,0.013530454299925677
459.0,,0.03639479466535992,458.962,0.7739999890327454,0.013429219688586857
459.465517,,0.03905601036173535,459.42,0.7829999923706055,0.032951822791039274
459.931034,,0.041025373402086576,459.89,0.7760000228881836,0.017634559410890618
460.39655200000004,,0.0392445285846015,460.353,0.7080000042915344,-0.1305616286750874
460.86206899999996,,0.03140923750124451,460.816,0.7730000019073486,0.011021041346250848
461.327586,,0.01873418684364482,461.286,0.7590000033378601,-0.01948953621684701
461.793103,,0.005306023954127188,461.745,0.7820000052452087,0.03063118075290103
462.258621,,0.005095739941434476,462.215,0.7570000290870667,-0.02380230892879448
462.724138,,0.011300614223432972,462.681,0.781000018119812,0.028537696559156552
463.18965499999996,,0.014347179404941693,463.147,0.7570000290870667,-0.02367933012028008
463.655172,,0.015587296324134007,463.605,0.800000011920929,0.07008935390332122
464.12069,,0.015437645959966021,464.076,0.7559999823570251,-0.025670492321941563
464.58620699999994,,0.013608952980797088,464.535,0.7599999904632568,-0.016844909979765583
465.051724,,0.010083552598503616,465.002,0.7710000276565552,0.007237697710604473
465.517241,,0.0056260152433598234,465.468,0.7760000228881836,0.018251873816338086
465.98275900000004,,0.0013456367576357116,465.931,0.7599999904632568,-0.01648551104251071
466.448276,,0.0019804328855567077,466.401,0.7820000052452087,0.031562423595800984
466.913793,,0.003934376825572474,466.861,0.7820000052452087,0.03167374275043671
467.37931,,0.004164543475804343,467.331,0.7580000162124634,-0.02051201035504024
467.844828,,0.002788464061911433,467.794,0.7739999890327454,0.014435117682339887
468.31034500000004,,0.0011569529829934906,468.257,0.753000020980835,-0.03124338795460427
468.77586199999996,,0.0013110934102634746,468.723,0.7799999713897705,0.027635362293021156
469.241379,,0.00394148509704321,469.188,0.7829999923706055,0.03420815653047845
469.706897,,0.007238646362856202,469.654,0.753000020980835,-0.031133863573330114
470.172414,,0.008509621492159117,470.12,0.7730000019073486,0.01243599894341832
470.63793100000004,,0.0070134502741144664,470.586,0.7490000128746033,-0.039875151654582726
471.10344799999996,,0.004716170414160549,471.051,0.7549999952316284,-0.026846976554015658
471.568966,,0.003974048918245804,471.516,0.7620000243186951,-0.011658794380153076
472.034483,,0.004842870865494446,471.976,0.7519999742507935,-0.03352437710334502
472.5,,0.005283223214018756,472.442,0.7609999775886536,-0.014009647455707444
472.965517,,0.003839397258950014,472.909,0.7580000162124634,-0.020649773063078816
473.43103399999995,,0.0010608023374970561,473.371,0.7760000228881836,0.018454139203758053
473.89655200000004,,0.002011315767979424,473.835,0.75,-0.03830655739615065
474.362069,,0.005400450817344086,474.304,0.7739999890327454,0.013864569740695788
474.827586,,0.009069162529867215,474.765,0.7770000100135803,0.020287422813856378
475.293103,,0.011133628650149153,475.235,0.7620000243186951,-0.012498511481467639
475.758621,,0.008988945448224614,475.701,0.7820000052452087,0.030978070685405614
476.22413800000004,,0.0025663778761064655,476.165,0.7739999890327454,0.013465404488232913
476.689655,,0.004594160385251908,476.631,0.7609999775886536,-0.014925438450549364
477.155172,,0.008260669644706432,477.09,0.7559999823570251,-0.025870908205307304
477.62069,,0.007310276548839447,477.556,0.7739999890327454,0.013309928411734643
478.086207,,0.004284883802562711,478.021,0.7739999890327454,0.013293811951065144
478.55172400000004,,0.0023303384962214077,478.486,0.7570000290870667,-0.023740258427093267
479.01724099999996,,0.0021580874517949326,478.954,0.753000020980835,-0.03243404734472801
479.482759,,0.002277233242473609,479.416,0.7580000162124634,-0.021503262469662287
479.948276,,0.0015424286222982843,479.886,0.7590000033378601,-0.01927154187392264
480.413793,,0.0004718453484188408,480.349,0.7749999761581421,0.015654144798757298
480.87931000000003,,2.5191477708059243e-06,480.813,0.7570000290870667,-0.02348163783938754
481.344828,,3.890510164012827e-05,481.275,0.7760000228881836,0.01800243705925819
481.810345,,0.00042412803980109755,481.741,0.722000002861023,-0.0995482916223153
482.275862,,0.0007607544253629075,482.211,0.7739999890327454,0.013840891423074875
482.74137900000005,,0.0009162175895941216,482.677,0.7609999775886536,-0.014381219746946686
483.206897,,0.006215954051326401,483.136,0.777999997138977,0.022755072793056004
483.672414,,0.014036470477016961,483.601,0.7760000228881836,0.018493467902671937
484.13793100000004,,0.020612473624433775,484.068,0.7490000128746033,-0.040240960181884756
484.603448,,0.022455020107052037,484.534,0.7739999890327454,0.014304772735038992
485.068966,,0.019173078098588398,484.999,0.7760000228881836,0.018730423162909408
485.534483,,0.012956054831931109,485.465,0.7590000033378601,-0.01825126871061819
486.0,,0.005725430948644426,485.928,0.7749999761581421,0.016647789374049694
486.46551700000003,,0.0020532058966689854,486.39,0.753000020980835,-0.03125749985789547
486.931034,,0.00999310906576672,486.858,0.7519999742507935,-0.03342831389569364
487.396552,,0.017142184957532437,487.32,0.7570000290870667,-0.02254440580659571
487.862069,,0.023328856661056805,487.79,0.7519999742507935,-0.03346410634261198
488.327586,,0.029154355060064994,488.253,0.7850000262260437,0.03838968510924754
488.79310300000003,,0.033286914913502955,488.718,0.7670000195503235,-0.0008809931125409213
489.258621,,0.03174498771004784,489.182,0.7799999713897705,0.027375040872720115
489.724138,,0.022333110684252325,489.647,0.7739999890327454,0.014227592815354354
490.189655,,0.008709230408098805,490.116,0.7580000162124634,-0.020713686075965656
490.655172,,0.0028196040023798913,490.581,0.7710000276565552,0.007520380111379924
491.12069,,0.010379130482244123,491.046,0.7950000166893005,0.059717228554082846
491.586207,,0.017520976836282495,491.512,0.7739999890327454,0.01387578241907438
492.05172400000004,,0.02645781807133627,491.977,0.7749999761581421,0.015967717685739458
492.517241,,0.03307032213449307,492.435,0.7739999890327454,0.013707387439696815
492.982759,,0.030643860775694455,492.905,0.7820000052452087,0.031062121468789044
493.448276,,0.017365411209856414,493.368,0.7570000290870667,-0.023469656224639784
493.913793,,0.0014340217241780773,493.835,0.746999979019165,-0.0453123306955682
494.37931000000003,,0.017835468645734816,494.297,0.7580000162124634,-0.021392937845452098
494.844828,,0.02709100188839145,494.769,0.9179999828338623,0.3271596002440049
495.310345,,0.029631242015428147,495.231,0.7760000228881836,0.01777896715425432
495.775862,,0.028894081074509605,495.696,0.7480000257492065,-0.04321986349853519
496.241379,,0.027686314726047167,496.162,0.7580000162124634,-0.021418218321101933
496.70689699999997,,0.026243674204580018,496.62,0.7549999952316284,-0.027928199803296642
497.172414,,0.023161371069044184,497.087,0.7570000290870667,-0.023534861577840033
497.637931,,0.017550784843173885,497.552,0.7689999938011169,0.0026538406156651597
498.103448,,0.010178785205207158,498.016,0.7480000257492065,-0.043044949006718125
498.568966,,0.0031766021911291777,498.482,0.7839999794960022,0.03544554572068967
499.03448299999997,,0.0010621927203031659,498.95,0.7480000257492065,-0.042921314435879744
499.5,,0.001519406123898844,499.413,0.75,-0.038496712199920444
499.96551700000003,,0.0003241689159646725,499.876,0.7789999842643738,0.02475273625941704
500.431034,,0.001616087963538446,500.345,0.7580000162124634,-0.020929701311070765
500.89655200000004,,0.0007714724028020226,500.806,0.7739999890327454,0.013996764898265318
501.362069,,0.0016157821452243693,501.275,0.7519999742507935,-0.03386806675131997
501.827586,,0.00447154331014815,501.741,0.7739999890327454,0.014123602549039299
502.293103,,0.007613728242622515,502.203,0.7519999742507935,-0.03375072890640965
502.758621,,0.01092738883983092,502.669,0.7739999890327454,0.014229103068675607
503.224138,,0.013300877252151707,503.131,0.777999997138977,0.022986310967271537
503.68965499999996,,0.013395783853973444,503.597,0.7570000290870667,-0.022730217855514778
504.15517200000005,,0.011166654771608915,504.061,0.7710000276565552,0.007797233567599864
504.62068999999997,,0.008023899658866358,504.527,0.7879999876022339,0.044851832675375174
505.08620699999994,,0.0055251083668823794,504.994,0.7559999823570251,-0.024856065372460576
505.55172400000004,,0.004095590354599214,505.461,0.777999997138977,0.02307370615957469
506.017241,,0.003031778395110503,505.924,0.8479999899864197,0.17557065174191633
506.48275899999993,,0.0016984322122917742,506.386,0.7480000257492065,-0.04230942452668466
506.948276,,0.0004610170590929432,506.857,0.777999997138977,0.023026204108219414
507.413793,,0.00011054594117830462,507.32,0.7609999775886536,-0.014044088348795171
507.87931,,0.0005867497052134,507.783,0.7739999890327454,0.014236310726021478
508.344828,,0.0008431108613730207,508.246,0.7710000276565552,0.007650256001928209
508.810345,,4.6197826061152416e-05,508.711,0.7710000276565552,0.00759289145628718
509.27586199999996,,0.0021671705615153207,509.175,0.7639999985694885,-0.007721425384974161
509.74137900000005,,0.005016659765116611,509.641,0.777999997138977,0.022710820726265905
510.20689699999997,,0.007641702633506898,510.107,0.753000020980835,-0.03182800816282354
510.67241399999995,,0.008391403018708221,510.573,0.7760000228881836,0.018205789382529113
511.13793100000004,,0.0055790779350974986,511.039,0.7739999890327454,0.013772860434462849
511.603448,,0.0006605635391188918,511.504,0.7609999775886536,-0.01462365166184928
512.0689659999999,,0.007421529820085071,511.969,1.062999963760376,0.6432628247835519
512.534483,,0.010834457597045733,512.435,0.777999997138977,0.022298049066090835
513.0,,0.009327672998981656,512.898,0.7559999823570251,-0.025670873277088363
513.465517,,0.005092648304713886,513.361,0.7739999890327454,0.013512133644556768
513.931034,,0.0023478341935025586,513.831,0.777999997138977,0.022200800531596055
514.396552,,0.00426118933923476,514.294,0.734000027179718,-0.073678764391996
514.862069,,0.011324326718423204,514.765,0.8840000033378601,0.25310808430157883
515.327586,,0.02202483387772882,515.22,0.7570000290870667,-0.023579443740535253
515.793103,,0.034333749936540044,515.685,0.7620000243186951,-0.012675715185710708
516.258621,,0.04619861087061354,516.15,0.7950000166893005,0.05923820929547274
516.724138,,0.05496718982629383,516.616,0.7739999890327454,0.013513891371096026
517.189655,,0.057326474338502305,517.083,0.7760000228881836,0.017907143867740172
517.655172,,0.05090063799966773,517.549,0.75,-0.03869456320831653
518.1206900000001,,0.036479438322381964,518.013,0.746999979019165,-0.045181435223668374
518.5862070000001,,0.018414834209598194,518.479,0.9829999804496765,0.46903810573835525
519.051724,,0.002102266134283916,518.942,0.7739999890327454,0.013771992279279905
519.517241,,0.009356327841145528,519.412,0.777999997138977,0.022566684225631562
519.982759,,0.016158300153210944,519.872,0.7559999823570251,-0.025280974288173278
520.448276,,0.020189881135305305,520.342,0.7739999890327454,0.014017681283545002
520.9137929999999,,0.02340664231234142,520.802,0.7870000004768372,0.042422003267931746
521.37931,,0.027672979114799726,521.272,0.7549999952316284,-0.027215719756405514
521.844828,,0.03461791237445526,521.73,0.7509999871253967,-0.03585700057832903
522.310345,,0.044118192445969734,522.2,0.7739999890327454,0.01431742341520321
522.7758620000001,,0.05288109310382842,522.666,0.7599999904632568,-0.01612712574314403
523.241379,,0.055876200314883745,523.131,0.7820000052452087,0.03184964682418824
523.7068969999999,,0.050570874410088625,523.59,0.777999997138977,0.02317064302088303
524.172414,,0.03991518015890502,524.062,0.7689999938011169,0.003586597797845884
524.637931,,0.030270442266715793,524.52,0.9380000233650208,0.3717922946357565
525.103448,,0.025921432468892735,524.987,0.7799999713897705,0.027572062438617272
525.568966,,0.02601425579643472,525.452,0.753000020980835,-0.03125641648149564
526.034483,,0.026900947188568572,525.921,0.7519999742507935,-0.033456373039834585
526.5,,0.026474956721493956,526.383,0.7609999775886536,-0.013886454460374668
526.9655170000001,,0.02542458612495828,526.85,0.7570000290870667,-0.02265505134431749
527.4310340000001,,0.024873592144336827,527.312,0.777999997138977,0.02302744586735785
527.8965519999999,,0.024088062677706513,527.78,0.777999997138977,0.022945434481201638
528.362069,,0.020977947395258052,528.242,0.7730000019073486,0.011959272795077469
528.827586,,0.014366837504020685,528.708,0.7400000095367432,-0.060038664184929445
529.293103,,0.005285930412892776,529.176,0.75,-0.03836295922246692
529.7586210000001,,0.0038635259704422045,529.641,0.8029999732971191,0.0769900373857717
530.224138,,0.011082179593758542,530.105,0.7580000162124634,-0.021164517871168232
530.689655,,0.01576512801795241,530.571,0.7760000228881836,0.017938617988546995
531.155172,,0.01839290650533108,531.036,0.7739999890327454,0.013474686653390326
531.62069,,0.01957955659871704,531.502,0.7599999904632568,-0.01712365419700352
532.086207,,0.019543807978720275,531.961,0.7789999842643738,0.024185664972521007
532.5517239999999,,0.018634189601465075,532.427,0.7559999823570251,-0.0259930870304155
533.017241,,0.018167936715369253,532.894,0.7739999890327454,0.013170399633629865
533.482759,,0.019930052043569173,533.357,0.7580000162124634,-0.021720434031505483
533.9482760000001,,0.024171461320435565,533.82,0.7739999890327454,0.013126801646739168
534.413793,,0.028439661109433488,534.29,0.7749999761581421,0.015317152965823923
534.87931,,0.029296908351502192,534.756,0.7630000114440918,-0.01079145007264267
535.344828,,0.025670975150894334,535.222,0.7519999742507935,-0.03469906223939793
535.810345,,0.020406622703815228,535.68,0.7950000166893005,0.059062305389161365
536.275862,,0.018259991764349646,536.147,0.7580000162124634,-0.021447504027991216
536.7413789999999,,0.022009747515499244,536.612,0.7649999856948853,-0.006078705522067811
537.206897,,0.03000729665244742,537.08,0.7620000243186951,-0.012481554155197088
537.672414,,0.03722587492348659,537.545,0.7739999890327454,0.013806655418641971
538.137931,,0.03893004974426054,538.01,0.7789999842643738,0.02485243907629357
538.6034480000001,,0.03380747451704226,538.475,0.7450000047683716,-0.04906550966527103
539.0689659999999,,0.024000319998360733,538.938,0.777999997138977,0.022984407902405156
539.5344829999999,,0.01265588176321925,539.401,0.777999997138977,0.023133314641964674
540.0,,0.001929000186510884,539.869,0.7749999761581421,0.016736575508264212
540.465517,,0.006928403568746235,540.331,0.7559999823570251,-0.0245330928852599
540.931034,,0.012781071263529984,540.802,0.753000020980835,-0.030963906582160784
541.396552,,0.015019575119449279,541.264,0.7739999890327454,0.014869335455476189
541.862069,,0.01451796404993075,541.73,0.7730000019073486,0.012746655398034667
542.327586,,0.013071474489441872,542.194,0.7749999761581421,0.017132110472778656
542.7931030000001,,0.011405499916737286,542.659,0.7820000052452087,0.032381764639427754
543.258621,,0.008271290392367098,543.124,0.7820000052452087,0.03235113845234854
543.7241379999999,,0.0018482664092501068,543.59,0.7870000004768372,0.043184347905791044
544.189655,,0.008343793841160513,544.05,0.7760000228881836,0.019130723118915137
544.655172,,0.020747177881399296,544.516,0.7609999775886536,-0.013664968771792827
545.12069,,0.03175030823580272,544.98,0.7590000033378601,-0.018163533132388946
545.5862070000001,,0.03617254178438625,545.446,0.7739999890327454,0.014352839996147788
546.051724,,0.029840439421618868,545.916,0.7820000052452087,0.03160171736019064
546.517241,,0.013831481626322549,546.379,0.7739999890327454,0.013980512446262163
546.982759,,0.003871577111053488,546.843,0.7739999890327454,0.013782209173539662
547.448276,,0.012544651170414298,547.305,0.7409999966621399,-0.05831281246414134
547.9137929999999,,0.0063698283569341395,547.776,0.871999979019165,0.22689648447970318
548.3793099999999,,0.010591277445842703,548.238,0.7549999952316284,-0.02818521090847304
548.844828,,0.026824880789900942,548.704,0.7739999890327454,0.013047328133618382
549.310345,,0.03208457280071863,549.169,0.777999997138977,0.021621927942674764
549.775862,,0.02521286971965221,549.634,0.7540000081062317,-0.030779149480036804
550.241379,,0.013794518645320643,550.095,0.7789999842643738,0.02360365561666777
550.706897,,0.005810929065820443,550.561,0.7480000257492065,-0.043984480426121464
551.172414,,0.001231956508335859,551.028,0.75,-0.03964239222367157
551.637931,,0.008292061237089919,551.493,0.7599999904632568,-0.01783507351762984
552.103448,,0.030830458938366813,551.965,0.7739999890327454,0.012723901764998224
552.568966,,0.06452819163458906,552.423,0.7770000100135803,0.019354873809952978
553.034483,,0.09692282807700793,552.887,0.7559999823570251,-0.02626663150699077
553.5,,0.11481837965788659,553.356,0.7720000147819519,0.0087538186729373
553.965517,,0.11464596369340582,553.817,0.7739999890327454,0.01330108746393012
554.4310340000001,,0.10258423974322639,554.287,0.7580000162124634,-0.02134406918989639
554.896552,,0.08595912890210104,554.745,0.7580000162124634,-0.021114107083654538
555.3620689999999,,0.06686318719830024,555.215,0.7739999890327454,0.013984534408132103
555.827586,,0.04400544145827504,555.681,0.7580000162124634,-0.020629736468030842
556.293103,,0.018085692547144382,556.146,0.7720000147819519,0.010111924662812407
556.758621,,0.006347728593250524,556.611,0.781000018119812,0.029949995837007092
557.224138,,0.023592811750775006,557.076,0.7770000100135803,0.02144862931248644
557.689655,,0.030517131970818817,557.542,0.75,-0.037185960169498905
558.155172,,0.0283728175919599,558.005,0.7739999890327454,0.01525936962013505
558.6206900000001,,0.021926673544359537,558.471,0.8050000071525574,0.08291962241035541
559.0862070000001,,0.016592692736035794,558.931,0.753000020980835,-0.030287604602098745
559.5517239999999,,0.015294125985072645,559.401,0.7720000147819519,0.01114515399313223
560.017241,,0.016970032822258934,559.861,0.765999972820282,-0.0019350582154818337
560.482759,,0.01766374275874778,560.331,0.7739999890327454,0.015438717653775275
560.948276,,0.013744497958177651,560.794,0.7720000147819519,0.010979516778500006
561.413793,,0.0053224114616529285,561.257,0.7739999890327454,0.015190408386854315
561.87931,,0.0030853110918892526,561.723,0.7580000162124634,-0.01985552938629069
562.344828,,0.006004013270137194,562.188,0.7730000019073486,0.012599765101221756
562.8103450000001,,0.0017622968187060264,562.654,0.7590000033378601,-0.018156560401653685
563.275862,,0.006325117695003066,563.12,0.7889999747276306,0.04692417070625665
563.7413789999999,,0.013551988151457748,563.586,0.7739999890327454,0.013950853548659934
564.206897,,0.017899810124295288,564.051,0.7950000166893005,0.059402959106098344
564.672414,,0.020246331579801935,564.517,0.753000020980835,-0.032397248134803186
565.137931,,0.021621707354818838,564.976,0.7739999890327454,0.013068219768232267
565.603448,,0.021558117635136282,565.442,0.7599999904632568,-0.017699504367720935
566.068966,,0.019086139878852576,565.905,0.7870000004768372,0.040885721608021425
566.534483,,0.014581157837605958,566.376,0.7910000085830688,0.04939894698605395
567.0,,0.010446366735649706,566.839,0.7490000128746033,-0.04226207503696307
567.465517,,0.00984222381845786,567.301,0.7770000100135803,0.01863060720315446
567.931034,,0.013937935967300464,567.765,0.7609999775886536,-0.016284828761497786
568.396552,,0.020131856731504055,568.235,0.7630000114440918,-0.011929179013436729
568.862069,,0.02396501789235303,568.7,0.847000002861023,0.17113338096896324
569.327586,,0.023363766521790338,569.164,0.7490000128746033,-0.042259668568523354
569.793103,,0.020134427645612105,569.63,0.8360000252723694,0.14745298199297607
570.2586210000001,,0.016960687568904682,570.094,0.7599999904632568,-0.01790296062093785
570.724138,,0.014496727966045658,570.56,0.7739999890327454,0.012864043938056575
571.189655,,0.012448668778508238,571.024,0.777999997138977,0.021880781409861254
571.655172,,0.011929765592242564,571.489,0.7789999842643738,0.02438951857629827
572.12069,,0.014923666154997387,571.95,0.7590000033378601,-0.018835219373052884
572.586207,,0.02209519418586244,572.42,0.7730000019073486,0.01202134634389077
573.051724,,0.03240085924069562,572.883,0.7730000019073486,0.012373529689588441
573.517241,,0.04387904960418279,573.346,0.8080000281333923,0.08896533421841547
573.982759,,0.053166353216654916,573.816,0.7580000162124634,-0.019651476223523156
574.4482760000001,,0.055016593385841375,574.279,0.7749999761581421,0.01766687115307477
574.913793,,0.044890950742896105,574.745,0.7599999904632568,-0.014775439271280263
575.37931,,0.023534362179085673,575.208,0.7730000019073486,0.01373250589808592
575.844828,,0.0015568558916492152,575.673,0.7739999890327454,0.016038486743964128
576.310345,,0.020730299635448705,576.139,0.7490000128746033,-0.038363372144159316
576.775862,,0.02949517054177666,576.604,0.7879999876022339,0.04660213115433986
577.241379,,0.03167708663667845,577.069,0.7889999747276306,0.04871306177618237
577.706897,,0.03519335928626601,577.535,0.7720000147819519,0.011544081853252812
578.172414,,0.04476768264604186,578.001,0.7760000228881836,0.020064889091040056
578.6379310000001,,0.05853050724712837,578.46,0.7739999890327454,0.015456758727978977
579.1034480000001,,0.06993811051590292,578.931,0.7739999890327454,0.015155896456676523
579.5689659999999,,0.07084236104110726,579.394,0.7559999823570251,-0.02440266567480013
580.034483,,0.05380348694175387,579.857,0.7699999809265137,0.005723045552946771
580.5,,0.016308032958089008,580.32,0.7559999823570251,-0.02517494970796996
580.965517,,0.033722026777651855,580.791,0.7580000162124634,-0.02122435142712832
581.431034,,0.07826895860768125,581.253,0.8009999990463257,0.07205389430621567
581.896552,,0.09903477736676683,581.719,0.7739999890327454,0.012843457644908234
582.362069,,0.08910277407148758,582.182,0.7749999761581421,0.014663854534898307
582.827586,,0.055919696853550485,582.648,0.7739999890327454,0.012166545296458872
583.2931030000001,,0.014434889588988843,583.113,0.7789999842643738,0.022790994811952906
583.758621,,0.022169833369471124,583.578,0.7519999742507935,-0.03624289013304329
584.2241379999999,,0.04762124732066706,584.043,0.7609999775886536,-0.016780456209999312
584.689655,,0.06243991311882131,584.508,0.7789999842643738,0.022360248968953854
585.155172,,0.07054576229316575,584.973,0.7770000100135803,0.018002494009733267
585.6206900000001,,0.07514361899918702,585.439,0.7559999823570251,-0.0276743535373083
586.0862070000001,,0.07632431732106114,585.902,0.7850000262260437,0.03565519574544449
586.551724,,0.07170355000559936,586.371,0.753000020980835,-0.03384267449400617
587.017241,,0.059328137327333344,586.835,0.8019999861717224,0.07319474275096667
587.482759,,0.04057001759137836,587.297,0.7480000257492065,-0.04411142445151368
587.948276,,0.0207326130361552,587.768,0.7519999742507935,-0.035009769830103704
588.4137929999999,,0.006406282883343962,588.231,0.8389999866485596,0.15495577066265775
588.87931,,0.0009755393902777573,588.696,0.7739999890327454,0.013792048887229656
589.344828,,0.0018838512047131967,589.162,0.7570000290870667,-0.022785638701737592
589.810345,,0.002674089680810877,589.62,0.7630000114440918,-0.009259537847950184
590.2758620000001,,0.001299571243665454,590.087,0.7689999938011169,0.0042474902826989454
590.741379,,0.008651894105607353,590.552,0.7639999985694885,-0.006243043140992142
591.2068969999999,,0.013595992971026701,591.017,0.7549999952316284,-0.025493694091194983
591.672414,,0.01189286175100753,591.483,0.777999997138977,0.024915414187607378
592.137931,,0.004851070305266263,591.946,0.75,-0.03585333394099611
592.603448,,0.0024813646203821625,592.415,0.847000002861023,0.17563558205320395
593.068966,,0.006124730212713758,592.876,0.7549999952316284,-0.024718133142505424
593.534483,,0.00567318154045122,593.346,0.5830000042915344,-0.399450008134606
594.0,,0.002934226005540096,593.806,0.7739999890327454,0.016576086736002384
594.4655170000001,,0.0006979747834441035,594.276,0.7739999890327454,0.01639468462550361
594.9310340000001,,0.005274210403775201,594.735,0.7770000100135803,0.022672326400134578
595.3965519999999,,0.01125162864569842,595.205,0.7599999904632568,-0.014692904991219361
595.862069,,0.01799024570971686,595.67,0.7739999890327454,0.015419466350080555
596.327586,,0.02362105518446513,596.135,0.7789999842643738,0.0258752182752988
596.793103,,0.026576805428935535,596.601,0.7919999957084656,0.05372520051539186
597.2586210000001,,0.027170088883917295,597.066,0.7620000243186951,-0.012127445143728434
597.724138,,0.027267845802595107,597.531,0.7710000276565552,0.006980672731259405
598.189655,,0.028137686692899923,597.991,0.7570000290870667,-0.024011864273452286
598.655172,,0.029030050470167025,598.457,0.765999972820282,-0.004872354002451059
599.12069,,0.028444061987395228,598.92,0.7120000123977661,-0.12295066091268496
599.586207,,0.02626192980238479,599.39,0.7760000228881836,0.01610139678320587
600.0517239999999,,0.023543796136721272,599.85,0.7580000162124634,-0.0234327248080406
600.517241,,0.020562862436232825,600.319,0.7789999842643738,0.02207484547950255
600.982759,,0.016630854203226783,600.78,0.7739999890327454,0.011020602748846841
601.448276,,0.012149259247407436,601.25,0.7620000243186951,-0.01519545010601141
601.913793,,0.009287121606246472,601.716,0.7739999890327454,0.010967271989638233
602.37931,,0.009664786211639345,602.179,0.7590000033378601,-0.021601940258236463
602.844828,,0.012143490259866975,602.645,0.7739999890327454,0.011277062884940096
603.310345,,0.013754292900920723,603.11,0.7739999890327454,0.011560042580632653
603.775862,,0.012517266020691347,603.575,0.7570000290870667,-0.025118316770869967
604.2413789999999,,0.008844336803716294,604.035,0.7760000228881836,0.01669947983900344
604.706897,,0.004402101327959446,604.501,0.8220000267028809,0.1173944232146943
605.172414,,0.00022430289366554717,604.969,0.722000002861023,-0.09995401655497288
605.637931,,0.003622329910737973,605.435,0.7739999890327454,0.013874099347680299
606.1034480000001,,0.006629095643441216,605.898,0.7590000033378601,-0.018262077706492266
606.5689659999999,,0.007033466588771279,606.361,0.7789999842643738,0.025843555640071396
607.0344829999999,,0.003481578224197075,606.831,0.7910000085830688,0.05249337223251393
607.5,,0.0026569553046190634,607.294,0.7720000147819519,0.011562877798500456
607.965517,,0.007807793479958392,607.765,0.7770000100135803,0.022862653633060708
608.431034,,0.009302227012879073,608.22,0.7760000228881836,0.021019982734333923
608.896552,,0.007123227132469011,608.686,0.7570000290870667,-0.02012032452313622
609.362069,,0.0025861772489625466,609.153,0.7580000162124634,-0.01777893210507276
609.827586,,0.0033740731098565106,609.619,0.7599999904632568,-0.013356261448555371
610.293103,,0.009994455671470268,610.083,0.7570000290870667,-0.019926821471929645
610.758621,,0.01576850485367617,610.548,0.7710000276565552,0.010439920696302193
611.2241379999999,,0.018900094963403027,611.013,0.7860000133514404,0.04288978613883508
611.689655,,0.018933959491238335,611.479,0.7749999761581421,0.0186062280299905
612.155172,,0.017605831538581296,611.946,0.7739999890327454,0.01602978998052748
612.62069,,0.017548299832144905,612.408,0.7559999823570251,-0.023652106686795217
613.0862070000001,,0.019762171176655793,612.872,0.7699999809265137,0.006327868957787119
613.551724,,0.022493127984558547,613.335,0.7599999904632568,-0.01601890897856108
614.017241,,0.022957154013309448,613.805,0.7549999952316284,-0.02749478055566938
614.4827590000001,,0.02015027878928608,614.268,0.7649999856948853,-0.006295543664806817
614.948276,,0.015793813285729104,614.734,0.6840000152587891,-0.18334090792853017
615.4137929999999,,0.012728847252130457,615.197,0.7699999809265137,0.003477216051431052
615.8793099999999,,0.012602605058137484,615.662,0.7789999842643738,0.022587868202793716
616.344828,,0.01482591660465845,616.13,0.7739999890327454,0.011263746947597568
616.810345,,0.017346420149723735,616.596,0.7559999823570251,-0.02830281782974295
617.275862,,0.01830836873950412,617.061,0.7490000128746033,-0.04381337254659218
617.741379,,0.017043030359947663,617.527,0.7749999761581421,0.01267095523592866
618.206897,,0.01383228972744399,617.991,0.7739999890327454,0.010438186485393536
618.672414,,0.009427811461271187,618.45,0.7580000162124634,-0.0243652046061228
619.137931,,0.005062382911458942,618.92,0.781000018119812,0.025906771447548473
619.603448,,0.002292605234659496,619.382,0.746999979019165,-0.047900516960208736
620.068966,,0.0020998615526964027,619.85,0.7889999747276306,0.04396590115002091
620.534483,,0.0039444932018436385,620.312,0.7590000033378601,-0.02094425912793189
621.0,,0.0057134376345178975,620.776,0.7739999890327454,0.012257379089057609
621.465517,,0.00486308773392605,621.246,0.777999997138977,0.021550916252490726
621.9310340000001,,0.0005033084206271857,621.711,0.7850000262260437,0.037420312906267954
622.396552,,0.005039342866185818,622.176,0.7749999761581421,0.016273409858998007
622.862069,,0.007589674507111258,622.641,0.7620000243186951,-0.011408747639587075
623.327586,,0.0052868767781083185,623.105,0.7699999809265137,0.006640351265854233
623.793103,,0.0010086023906288473,623.57,0.7450000047683716,-0.04724607705006539
624.258621,,0.0005738475941837241,624.036,0.7599999904632568,-0.014045909637353006
624.724138,,0.0019592793977364705,624.502,0.7419999837875366,-0.05281747759109985
625.189655,,0.006042213563697921,624.962,0.7760000228881836,0.021610234884411987
625.655172,,0.009107312192110034,625.428,0.7860000133514404,0.04364905907398639
626.1206900000001,,0.011354090147637007,625.891,0.7820000052452087,0.03507786294387053
626.5862070000001,,0.014113011369544468,626.361,0.7730000019073486,0.015499011473285931
627.0517239999999,,0.017321359749970518,626.824,0.7699999809265137,0.008875288603195013
627.5172409999999,,0.019781835328402855,627.286,0.7590000033378601,-0.015292962945591088
627.982759,,0.0207561919774011,627.752,0.7099999785423279,-0.12236138381887453
628.448276,,0.02016710271934354,628.216,0.7570000290870667,-0.020382878015763176
628.913793,,0.01811576199939261,628.682,0.7739999890327454,0.016145921390902828
629.37931,,0.015368731293834583,629.147,0.7739999890327454,0.015564578923261449
629.844828,,0.01349083268406912,629.613,0.753000020980835,-0.030823866082861542
630.3103450000001,,0.013008970931385037,630.079,0.7480000257492065,-0.04239080503674711
630.7758620000001,,0.01207209023886157,630.545,0.7630000114440918,-0.010401014756424586
631.2413789999999,,0.008731315422469979,631.01,0.7990000247955322,0.0673469851366139
631.706897,,0.004169695042307753,631.475,0.7730000019073486,0.010047838767563669
632.172414,,0.0015650788025538256,631.938,0.7590000033378601,-0.021058111146906193
632.637931,,0.0016919470082668942,632.401,0.7760000228881836,0.015442066681752187
633.103448,,0.0018093708391268483,632.869,0.7760000228881836,0.01499079930527597
633.568966,,0.0005168063868657969,633.331,0.7570000290870667,-0.02675447111141169
634.034483,,0.004366199907352425,633.802,0.7749999761581421,0.012221765677193429
634.5,,0.007142592804625166,634.264,0.7570000290870667,-0.02711329188092106
634.9655170000001,,0.007741638959588571,634.73,0.7739999890327454,0.009928556363732202
635.431034,,0.006786976010482697,635.193,0.7580000162124634,-0.02479979426427915
635.8965519999999,,0.004906286132254452,635.659,0.777999997138977,0.01902508500439674
636.362069,,0.002473220487481141,636.124,0.7749999761581421,0.01285632268153198
636.827586,,0.0005419137620745499,636.59,0.7549999952316284,-0.030244929406660386
637.293103,,0.00024923144051571954,637.054,0.753000020980835,-0.03404093254342748
637.7586210000001,,0.001107977044708764,637.52,0.777999997138977,0.021059100171266915
638.224138,,0.0012879424236979125,637.987,0.7570000290870667,-0.024004814098556777
638.689655,,2.1274907091829357e-05,638.445,0.7630000114440918,-0.010212848837759785
639.155172,,0.0016821730472809365,638.913,0.7580000162124634,-0.02037606277018284
639.62069,,0.0024933019736454037,639.375,0.75,-0.03708830943112009
640.086207,,0.0028441596886337643,639.843,0.7839999794960022,0.03766745127044063
640.551724,,0.003635757326173376,640.305,0.7739999890327454,0.016506899718266473
641.017241,,0.004401512329578171,640.776,0.7609999775886536,-0.011265348577615183
641.482759,,0.003826459343556722,641.238,0.7549999952316284,-0.023881173650974048
641.9482760000001,,0.002083247019362501,641.704,0.7739999890327454,0.01786001287958941
642.413793,,0.0012511102285687676,642.169,0.7789999842643738,0.028980082296415972
642.87931,,0.0025246954252709877,642.634,0.7739999890327454,0.018186200569528653
643.344828,,0.004003965957332615,643.102,0.7699999809265137,0.009439297215023774
643.810345,,0.002883092127105173,643.56,0.7739999890327454,0.01798987943867413
644.275862,,0.00034815082641705456,644.028,0.7770000100135803,0.024234393386004097
644.7413789999999,,0.0017341038177850375,644.493,0.7549999952316284,-0.024106916156026902
645.206897,,0.0012935675952321553,644.965,0.7559999823570251,-0.0224476151666469
645.672414,,0.006156590058634999,645.423,0.7599999904632568,-0.014345531989326227
646.1379310000001,,0.007597462824034491,645.886,0.7720000147819519,0.011111414624620893
646.6034480000001,,0.003560903148810932,646.356,0.7739999890327454,0.014728868912228028
647.0689659999999,,0.002599549499136882,646.82,0.7580000162124634,-0.02089943173628725
647.534483,,0.005950276725253461,647.282,0.7749999761581421,0.015360921596089684
648.0,,0.005070456463762242,647.748,0.7559999823570251,-0.026792462948521206
648.465517,,0.0028837577779504196,648.211,0.7739999890327454,0.011705454633093127
648.931034,,0.0030486545225347655,648.677,0.7730000019073486,0.008873311729026591
649.396552,,0.006224026646069251,649.146,0.7590000033378601,-0.022196164677123417
649.862069,,0.00996022940031551,649.611,0.7820000052452087,0.02744771807249971
650.327586,,0.011795941795162468,650.07,0.7739999890327454,0.009672437834638021
650.7931030000001,,0.01171416107799404,650.536,0.7570000290870667,-0.027580148091989696
651.258621,,0.01121815849399429,651.003,0.7739999890327454,0.009378717886543327
651.7241379999999,,0.010810278783031015,651.468,0.7599999904632568,-0.021059469974076407
652.189655,,0.009467360922909075,651.931,0.7760000228881836,0.014001969413676013
652.655172,,0.006335979011092704,652.401,0.7570000290870667,-0.027054671179971176
653.12069,,0.0018942446799593313,652.861,0.7789999842643738,0.02133830097422341
653.5862070000001,,0.00254676142492497,653.331,0.7739999890327454,0.011019773180690792
654.051724,,0.005677519492919654,653.794,0.7590000033378601,-0.020990505760333882
654.517241,,0.006592395596354904,654.257,0.7739999890327454,0.012432758070164966
654.982759,,0.005214414400733236,654.723,0.7559999823570251,-0.025987975739323193
655.448276,,0.0025850833298583283,655.188,0.7229999899864197,-0.09706242306314267
655.9137929999999,,0.000283043927147603,655.654,0.7730000019073486,0.012691037653938935
656.37931,,0.0007157056508737556,656.116,0.7609999775886536,-0.012656261464039777
656.844828,,0.0005344338262687856,656.581,0.7570000290870667,-0.02062307632347947
657.310345,,0.00014910970332773516,657.046,0.7570000290870667,-0.019948152749948794
657.7758620000001,,0.0008441441915430047,657.512,0.777999997138977,0.026384525510195957
658.241379,,0.0013115836539753316,657.977,0.7739999890327454,0.01813931804257007
658.7068969999999,,0.0011064823569807254,658.442,0.7519999742507935,-0.029448744728327963
659.172414,,0.0004282722918565984,658.905,0.781000018119812,0.033935473791315764
659.637931,,0.0032050466570644072,659.375,0.7580000162124634,-0.016116099096463856
660.103448,,0.005531880263020794,659.836,0.8820000290870667,0.2539471146244992
660.568966,,0.005062226808009249,660.305,0.7910000085830688,0.05545819849171216
661.034483,,0.0013173472841012314,660.769,0.7580000162124634,-0.01680716670733148
661.5,,0.0030095895754031926,661.231,0.7649999856948853,-0.0020573652518559174
661.965517,,0.004080121814376777,661.696,0.7760000228881836,0.021290687675353498
662.4310340000001,,0.0005635483839756214,662.161,0.6439999938011169,-0.26700854984729666
662.8965519999999,,0.004996660202664559,662.627,0.7620000243186951,-0.010726741312549273
663.362069,,0.008589621077479837,663.094,0.7480000257492065,-0.04208214600495396
663.827586,,0.008320965322290916,663.56,0.7749999761581421,0.015859949573736237
664.293103,,0.005619791532814375,664.025,0.7739999890327454,0.012801041292887214
664.7586210000001,,0.003238460967356635,664.491,0.765999972820282,-0.005479634056260106
665.224138,,0.002424194285643419,664.953,0.7739999890327454,0.011153597469371217
