Trial: ,17
Threshold: ,0.0
Maximum EMG: ,0.0826207174767468
Success: ,True

EMG Time,Raw EMG,Filtered EMG,Force Time,Raw Force (V),Filtered Force (N)
0.0,samples,3.035554941715728e-08,0.471,0.7739999890327454,0.016613477896555026
0.46551699999999996,time,3.009469451927226e-08,0.929,0.7739999890327454,0.01700077280622534
0.9310339999999999,value,2.971531081664287e-08,1.394,0.7739999890327454,0.01735102586250303
1.396552,,2.9213631530988468e-08,1.86,0.7490000128746033,-0.03681315718910558
1.862069,,2.85861630902761e-08,2.327,0.7839999794960022,0.03968364959471117
2.327586,,2.7829709379581396e-08,2.793,0.7559999823570251,-0.021139442837894276
2.793103,,2.6941395979092864e-08,3.256,0.7480000257492065,-0.038460668812688045
3.258621,,2.5918694302315595e-08,3.722,0.7749999761581421,0.020395683702142075
3.724138,,2.4759445544131083e-08,4.19,0.7620000243186951,-0.007969167497431566
4.189654999999999,,2.3461884345145986e-08,4.653,0.7490000128746033,-0.03640864099543241
4.655172,,2.202466207573288e-08,5.116,0.7749999761581421,0.020047874418644144
5.12069,,2.044686964034977e-08,5.579,0.42500001192092896,-0.7427389879180062
5.586207,,1.872805970014147e-08,6.049,0.7739999890327454,0.01728038922600318
6.051723999999999,,1.686826820949439e-08,6.512,0.7580000162124634,-0.01795982204716936
6.517241,,1.4868035160155712e-08,6.978,0.7739999890327454,0.01648242791393712
6.982759,,1.2728424424757601e-08,7.441,0.7519999742507935,-0.03188494189618861
7.448276,,1.0451042590126025e-08,7.906,0.7599999904632568,-0.014900192944421655
7.913793000000001,,8.038056669619892e-09,8.372,0.7739999890327454,0.01516323003022339
8.379309999999998,,5.492210582958504e-09,8.837,0.7490000128746033,-0.03971978036667978
8.844828000000001,,2.8168402915709184e-09,9.305,0.753000020980835,-0.03138868374797707
9.310345,,1.5887477457235745e-11,9.771,0.777999997138977,0.022739413219890935
9.775862,,2.9060883460943705e-09,10.231,0.7739999890327454,0.013743570892508912
10.241379,,5.943899402824125e-09,10.696,0.7879999876022339,0.04402947857453555
10.706897,,9.091721010544482e-09,11.164,0.8510000109672546,0.18114337242440834
11.172414,,1.2343084834967245e-08,11.626,0.75,-0.03896244944437534
11.637931,,1.569087414627607e-08,12.094,0.7760000228881836,0.01769835322116406
12.103447999999998,,1.9127321181844553e-08,12.557,0.7480000257492065,-0.04321242768579888
12.568966000000001,,2.2644006715459014e-08,13.02,0.7860000133514404,0.0397397624917674
13.034483,,2.623186192987495e-08,13.49,0.7509999871253967,-0.03628283785514373
13.5,,2.988117268550844e-08,13.955,0.7739999890327454,0.014114916940678492
13.965517,,3.3581586273531314e-08,14.419,0.7590000033378601,-0.018227028103693685
14.431034,,3.732212073659626e-08,14.884,0.7680000066757202,0.0017564782355324515
14.896552,,4.1091176834860757e-08,15.35,0.7720000147819519,0.010872576250348648
15.362069,,4.487655272890474e-08,15.815,0.7580000162124634,-0.019214062043580706
15.827586000000002,,4.8665461444545454e-08,16.275,0.7739999890327454,0.016058299628121105
16.293103,,5.244455117744495e-08,16.741,0.7179999947547913,-0.1055462463887853
16.758621,,5.619992848778476e-08,17.205,0.777999997138977,0.025545072454121114
17.224138,,5.99171844271526e-08,17.67,0.7549999952316284,-0.0242297033085915
17.689655,,6.358142363115504e-08,18.138,0.7559999823570251,-0.02176504375446036
18.155172,,6.717729640214706e-08,18.601,0.7739999890327454,0.017679927352809217
18.62069,,7.068903379686581e-08,19.064,0.7549999952316284,-0.02354827170036369
19.086207,,7.41004857236842e-08,19.534,0.7739999890327454,0.01794434268346626
19.551724,,7.73951620436767e-08,20.005,0.7839999794960022,0.039759333099753116
20.017241000000002,,8.055627665873295e-08,20.46,0.7739999890327454,0.01793187133293412
20.482758999999998,,8.356679455858428e-08,20.925,0.753000020980835,-0.02792888175399083
20.948276,,8.640948178684702e-08,21.39,0.7490000128746033,-0.03681791659468119
21.413793000000002,,8.90669582740595e-08,21.855,0.7620000243186951,-0.008729347207991095
21.87931,,9.152175347322474e-08,22.32,0.777999997138977,0.025844227702404528
22.344828,,9.375636472059657e-08,22.786,0.7739999890327454,0.016804220813908317
22.810344999999998,,9.575331823139703e-08,23.253,0.7480000257492065,-0.0401963033395403
23.275862,,9.749523262686129e-08,23.719,0.765999972820282,-0.0013559924658182636
23.741379,,9.896488487550989e-08,24.179,0.7739999890327454,0.0156908143528946
24.206897,,1.0014527851788587e-07,24.649,0.7570000290870667,-0.021723236379251467
24.672414,,1.0101971403020851e-07,25.112,0.7739999890327454,0.014953655864858955
25.137931,,1.0157186116852913e-07,25.574,0.7599999904632568,-0.01587913976724831
25.603448,,1.0178583312107375e-07,26.045,0.7599999904632568,-0.016172452793050785
26.068966,,1.016462622825711e-07,26.508,0.777999997138977,0.022797359936392498
26.534483,,1.0113837745054168e-07,26.973,0.7739999890327454,0.013892255695263986
27.0,,1.0024808222981718e-07,27.436,0.8399999737739563,0.1575549401474368
27.465517,,9.896203441802247e-08,27.902,0.781000018119812,0.028953703992588762
27.931034,,9.72677261314406e-08,28.371,0.7699999809265137,0.004994590986562454
28.396552,,9.515356441765278e-08,28.829,0.75,-0.0385079775040778
28.862069,,9.260895208865746e-08,29.3,0.7599999904632568,-0.016590646448521568
29.327586,,8.962436849588602e-08,29.759,0.7599999904632568,-0.016404178993075325
29.793103000000002,,8.61914499567088e-08,30.231,0.7689999938011169,0.0034395395279774852
30.258620999999998,,8.230306953072476e-08,30.689,0.7739999890327454,0.014610431743704608
30.724138,,7.795341583341607e-08,31.16,0.777999997138977,0.02363564400272401
31.189655000000002,,7.313807056468708e-08,31.622,0.7310000061988831,-0.0784281746739794
31.655172000000004,,6.78540844204606e-08,32.09,0.746999979019165,-0.04322728057578562
32.12069,,6.21000510469363e-08,32.552,0.7570000290870667,-0.02109927092254138
32.586207,,5.5876178689391984e-08,33.02,0.7609999775886536,-0.012054533446360958
33.051724,,4.918435918059068e-08,33.482,0.7770000100135803,0.023113414032774126
33.517241000000006,,4.202823390801018e-08,33.948,0.7570000290870667,-0.020179967441059116
33.982759,,3.44132563942981e-08,34.412,0.777999997138977,0.025812764285962735
34.448276,,2.634675112163727e-08,34.877,0.7599999904632568,-0.013207193278147997
34.913793,,1.7837968228144315e-08,35.341,0.7649999856948853,-0.00216941808026426
35.37931,,8.89813370307602e-09,35.807,0.7639999985694885,-0.004258783734906979
35.844828,,4.595052924570452e-10,36.271,0.7509999871253967,-0.03254958049532947
36.310345,,1.02196403513187e-08,36.737,0.7760000228881836,0.021890507516624108
36.775862,,2.0364867362134416e-08,37.201,0.7799999713897705,0.03052322319065187
37.241378999999995,,3.0875658032392944e-08,37.667,0.7760000228881836,0.021675260360394476
37.706897000000005,,4.173033775267779e-08,38.13,0.7870000004768372,0.04546015868087049
38.172414,,5.2905070154782525e-08,38.6,0.7580000162124634,-0.017941505848998875
38.637931,,6.437384870784036e-08,39.061,0.7620000243186951,-0.009481813202360728
39.103448,,7.610849568637576e-08,39.524,0.7549999952316284,-0.02501350556256494
39.568965999999996,,8.807866883233173e-08,39.989,0.7739999890327454,0.016082887958624868
40.034483,,1.0025187601961227e-07,40.46,0.7739999890327454,0.015778276491593295
40.5,,1.1259349821448216e-07,40.926,0.8130000233650208,0.10044513165476127
40.965517,,1.2506682100826678e-07,41.389,0.7730000019073486,0.013012745911386923
41.431034,,1.376330749801803e-07,41.855,0.753000020980835,-0.03082476247539793
41.896552,,1.5025148512777386e-07,42.32,0.753000020980835,-0.031061061557981436
42.362069000000005,,1.628793295804329e-07,42.785,0.7820000052452087,0.031918854974515784
42.827586000000004,,1.7547200778757007e-07,43.245,0.8569999933242798,0.19516035279314348
43.293103,,1.8798311834766737e-07,43.711,0.7620000243186951,-0.011918846295507653
43.758621,,2.0036454661713532e-07,44.18,0.7739999890327454,0.014167531570529662
44.224138,,2.1256656220910152e-07,44.642,0.7540000081062317,-0.0294132508165496
44.689655,,2.24537926461747e-07,45.105,0.8140000104904175,0.10134735108798351
45.155172,,2.3622600992371338e-07,45.574,0.7400000095367432,-0.059783241377503904
45.620689999999996,,2.4757691987045435e-07,46.035,0.7739999890327454,0.014423409160377421
46.086206999999995,,2.585356378302516e-07,46.504,0.7609999775886536,-0.013728536908721608
46.551724,,2.690461670620195e-07,46.97,0.7760000228881836,0.01915414858239771
47.017241,,2.790516898890539e-07,47.433,0.7570000290870667,-0.022011930794390067
47.482759,,2.884947347536134e-07,47.899,0.7820000052452087,0.03270035898833645
47.948276,,2.9731735281673696e-07,48.364,0.7739999890327454,0.015527554812616043
48.413793,,3.0546130388610054e-07,48.83,0.75,-0.036501713522942646
48.879310000000004,,3.128682514120858e-07,49.293,0.7739999890327454,0.01603732077427489
49.344828,,3.1947996624869267e-07,49.759,0.7590000033378601,-0.016405257768261693
49.810345,,3.25238538831586e-07,50.219,0.777999997138977,0.02520498914541383
50.275862,,3.3008659938054957e-07,50.685,0.7559999823570251,-0.022536884316739784
50.741379,,3.3396754568805975e-07,51.153,0.7490000128746033,-0.0376323148238389
51.206897,,3.3682577800972385e-07,51.615,0.7590000033378601,-0.015728821398131376
51.672414,,3.3860694052610275e-07,52.079,0.7870000004768372,0.04535027050529508
52.137931,,3.3925816879910407e-07,52.549,0.7419999837875366,-0.05265329061911369
52.603448,,3.387283425998564e-07,53.012,0.7739999890327454,0.017057201481480835
53.068966,,3.3696834343892004e-07,53.475,0.843999981880188,0.16951714530687795
53.534483,,3.339313160840306e-07,53.94,0.7599999904632568,-0.013570109666209411
54.0,,3.2957293330548884e-07,54.405,1.059999942779541,0.6399156041000135
54.465517,,3.2385166304499066e-07,54.871,0.7689999938011169,0.005799693006646277
54.931034,,3.167290371603186e-07,55.338,0.824999988079071,0.12765468986531575
55.396552,,3.0816992085609653e-07,55.803,0.7509999871253967,-0.033735226548859396
55.862069,,2.981427818699349e-07,56.268,0.765999972820282,-0.0012423956076458935
56.327586,,2.866199584439738e-07,56.734,0.7549999952316284,-0.025406993841356612
56.793102999999995,,2.7357792507426635e-07,57.198,0.7549999952316284,-0.025613499685170155
57.258621000000005,,2.589975549948519e-07,57.664,0.7990000247955322,0.07004019894655754
57.724138,,2.428643783199567e-07,58.126,0.7739999890327454,0.015373655695169984
58.189655,,2.2516883473673928e-07,58.589,0.7590000033378601,-0.017494281209979708
58.655172,,2.059065196125883e-07,59.06,0.7580000162124634,-0.01984486056643966
59.120689999999996,,1.850784223553897e-07,59.523,0.7950000166893005,0.060614686153152894
59.586207,,1.6269115584262784e-07,59.988,0.7570000290870667,-0.022298091741163754
60.051724,,1.3875717571587646e-07,60.452,0.7749999761581421,0.016822717170202183
60.517241,,1.1329498832138364e-07,60.917,0.7369999885559082,-0.06602949715261634
60.982758999999994,,8.632934606526359e-08,61.382,0.7580000162124634,-0.02030918346484184
61.448276,,5.7891428943480026e-08,61.847,0.7279999852180481,-0.08566759494071396
61.913793,,2.801901100253693e-08,62.312,0.7739999890327454,0.01458399496281081
62.379310000000004,,3.2433895132268047e-09,62.778,0.7739999890327454,0.014650515453246814
62.84482800000001,,3.584437756742822e-08,63.242,0.7739999890327454,0.014748841735027527
63.310345000000005,,6.972556752118271e-08,63.707,0.7749999761581421,0.017054836499665334
63.775862000000004,,1.048214893232647e-07,64.175,0.7739999890327454,0.015029032688296466
64.241379,,1.4105951589902095e-07,64.637,0.7559999823570251,-0.02401312720862619
64.706897,,1.783598129123592e-07,65.101,0.7739999890327454,0.015391519527973373
65.172414,,2.1663531204610885e-07,65.564,0.7609999775886536,-0.012731901201646568
65.637931,,2.5579170891168956e-07,66.034,0.7540000081062317,-0.027779204104460338
66.103448,,2.957274866592183e-07,66.497,0.7749999761581421,0.018173757576504863
66.56896599999999,,3.363339663138445e-07,66.963,0.7689999938011169,0.0052963251739129545
67.03448300000001,,3.7749538481314615e-07,67.429,0.7749999761581421,0.018550368988289455
67.5,,4.1908900166379003e-07,67.895,0.7739999890327454,0.016536575906049355
67.965517,,4.609852350733073e-07,68.36,0.746999979019165,-0.04214467585137174
68.431034,,5.030478283447462e-07,68.826,0.765999972820282,-0.0006353603354188748
68.896552,,5.451340472481206e-07,69.29,0.7649999856948853,-0.0027294197850715194
69.362069,,5.870949090029995e-07,69.749,0.7770000100135803,0.023466659816180666
69.827586,,6.287754434213069e-07,70.216,0.7580000162124634,-0.017909198704098284
70.293103,,6.700149866684966e-07,70.681,0.7739999890327454,0.016933067225570843
70.75862099999999,,7.106475080047887e-07,71.149,0.7710000276565552,0.010347216148636042
71.22413800000001,,7.505019697662303e-07,71.611,0.5830000042915344,-0.3993247465740669
71.689655,,7.894027207380904e-07,72.079,0.7139999866485596,-0.11404557841188982
72.15517200000001,,8.271699229606651e-07,72.542,0.7570000290870667,-0.020519378719457106
72.62069,,8.63620011890145e-07,73.005,0.7760000228881836,0.0206964924759836
73.086207,,8.985661897149676e-07,73.475,0.7720000147819519,0.011787807590685422
73.551724,,9.318189515012909e-07,73.94,0.7739999890327454,0.015941585532433286
74.017241,,9.631866437101167e-07,74.404,0.777999997138977,0.024449596951940832
74.482759,,9.92476054493461e-07,74.87,0.6200000047683716,-0.3199832802540495
74.94827599999999,,1.0194930350381012e-06,75.335,0.7519999742507935,-0.032604851420329574
75.41379300000001,,1.0440431510831878e-06,75.801,0.7789999842643738,0.02602727407317116
75.87931,,1.0659323635927261e-06,76.261,0.753000020980835,-0.03078833096511957
76.344828,,1.084967737416014e-06,76.726,0.7739999890327454,0.014818143683933265
76.810345,,1.1009581766189668e-06,77.189,0.7739999890327454,0.014703393413091076
77.275862,,1.1137151850173258e-06,77.66,0.7739999890327454,0.014622710380467049
77.741379,,1.1230536502894757e-06,78.123,0.7739999890327454,0.01457832049430503
78.206897,,1.128792649892493e-06,78.586,0.7720000147819519,0.010213999071260806
78.67241399999999,,1.1307562768506153e-06,79.053,0.7749999761581421,0.016779939233138256
79.137931,,1.1287744833311132e-06,79.516,0.7519999742507935,-0.03326343120681851
79.603448,,1.1226839397690967e-06,79.981,0.7789999842643738,0.025658464252448845
80.068966,,1.1123289071506949e-06,80.451,0.7559999823570251,-0.024322610958597383
80.53448300000001,,1.0975621199139062e-06,80.909,0.75,-0.03724185474201963
81.0,,1.0782456767788504e-06,81.376,0.7739999890327454,0.015217846311348747
81.465517,,1.0542519366747847e-06,81.842,0.7519999742507935,-0.03252598041886033
81.931034,,1.0254644167907521e-06,82.308,0.7739999890327454,0.015599264195564884
82.396552,,9.917786896407525e-07,82.774,0.7490000128746033,-0.03866974151032181
82.86206899999999,,9.53103275903571e-07,83.238,0.7519999742507935,-0.03194106872932042
83.327586,,9.09360529672531e-07,83.704,0.7820000052452087,0.033601202027531356
83.79310299999999,,8.604875126321798e-07,84.165,0.7549999952316284,-0.025054571937805224
84.258621,,8.064368535679562e-07,84.634,0.7760000228881836,0.020844871560696428
84.72413800000001,,7.471775895119542e-07,85.097,0.7609999775886536,-0.01171160052241355
85.189655,,6.826959847336885e-07,85.56,0.7699999809265137,0.007991670096536237
85.65517200000001,,6.129963237000036e-07,86.031,0.7839999794960022,0.038557885031737404
86.12069,,5.381016740536558e-07,86.493,0.7480000257492065,-0.03984024280950189
86.586207,,4.5805461559634975e-07,86.959,0.8330000042915344,0.14534584014714563
87.051724,,3.729179312098094e-07,87.422,0.7480000257492065,-0.03986938181279881
87.517241,,2.82775255608507e-07,87.888,0.7770000100135803,0.02325041728039619
87.98275899999999,,1.877316777906201e-07,88.355,0.7590000033378601,-0.0160559426568218
88.448276,,8.79142930403067e-08,88.82,0.7820000052452087,0.03393595905339822
88.913793,,1.6527299664901665e-08,89.279,0.765999972820282,-0.0010619069351324377
89.37931,,1.254205589722646e-07,89.745,0.753000020980835,-0.029541999426304946
89.844828,,2.385696252973181e-07,90.212,0.7739999890327454,0.01603803740454732
90.310345,,3.557550118455811e-07,90.678,0.7590000033378601,-0.01682133002276633
90.775862,,4.767333665020531e-07,91.141,0.7739999890327454,0.015676294881981415
91.241379,,6.012373084977861e-07,91.604,0.753000020980835,-0.030254247810042257
91.706897,,7.289753436651265e-07,92.072,0.7570000290870667,-0.02171042479965313
92.17241399999999,,8.596318619777345e-07,92.534,0.7749999761581421,0.017347875362222945
92.63793100000001,,9.928672209378365e-07,93.0,0.7599999904632568,-0.015470311873744577
93.103448,,1.1283179182210433e-06,93.471,0.7490000128746033,-0.03955133014970519
93.568966,,1.2655968568182203e-06,93.929,0.75,-0.03746327142744493
94.03448300000001,,1.4042937057241282e-06,94.394,0.7570000290870667,-0.022275195782195643
94.5,,1.5439753590137122e-06,94.859,0.6840000152587891,-0.18135035317647863
94.965517,,1.6841864959189428e-06,95.324,0.7789999842643738,0.025616511775544474
95.431034,,1.8244502442719683e-06,95.789,0.7739999890327454,0.014749793545262267
95.896552,,1.9642689494140957e-06,96.256,0.46299999952316284,-0.6627572992347392
96.36206899999999,,2.1031250503848887e-06,96.722,0.7739999890327454,0.014874330962242216
96.827586,,2.240482064901662e-06,97.19,0.7490000128746033,-0.03949755442915559
97.293103,,2.375785684317129e-06,97.653,0.7559999823570251,-0.02412751900927106
97.758621,,2.508464979402277e-06,98.116,0.7739999890327454,0.015230027362562631
98.224138,,2.6379337174431223e-06,98.586,0.7739999890327454,0.015391106763784683
98.689655,,2.7635917907643597e-06,99.049,0.7580000162124634,-0.01929142387746112
99.155172,,2.8848267564006567e-06,99.512,0.7820000052452087,0.033181377402793824
99.62069,,3.001015486228132e-06,99.977,0.7739999890327454,0.015941747311293546
100.086207,,3.111525926445172e-06,100.44,0.7559999823570251,-0.023085998088694732
100.551724,,3.215718964854023e-06,100.905,0.7739999890327454,0.01630963060419339
101.017241,,3.312950403943496e-06,101.371,0.7649999856948853,-0.003131922416831681
101.482759,,3.4025730373096703e-06,101.837,0.7559999823570251,-0.022592741729297424
101.948276,,3.4839388264767777e-06,102.304,0.753000020980835,-0.02900637594282143
102.413793,,3.556401174695753e-06,102.77,0.777999997138977,0.02555313385763568
102.87931,,3.619317293804467e-06,103.234,0.7739999890327454,0.01690029909353723
103.344828,,3.672050659732851e-06,103.7,0.7599999904632568,-0.013573052307187373
103.810345,,3.7139735517294176e-06,104.163,0.777999997138977,0.02563452615077775
104.275862,,3.744469669874669e-06,104.626,0.7730000019073486,0.014697160554131932
104.741379,,3.762936824933144e-06,105.094,0.8199999928474426,0.11701517671893527
105.206897,,3.7687896940811406e-06,105.556,0.7549999952316284,-0.02470772351969618
105.672414,,3.7614626355332403e-06,106.02,0.7379999756813049,-0.0618869403188576
106.13793100000001,,3.74041255457953e-06,106.49,0.7739999890327454,0.016373416405051546
106.603448,,3.705121813038767e-06,106.955,0.7480000257492065,-0.040466077716986286
107.068966,,3.655101173632741e-06,107.419,0.7749999761581421,0.018144781611002615
107.534483,,3.5898927702957466e-06,107.885,0.7490000128746033,-0.0387241490555877
108.0,,3.509073094952568e-06,108.345,0.7710000276565552,0.008977174174196113
108.46551699999999,,3.4122559908308357e-06,108.81,0.8529999852180481,0.1874013920520278
108.931034,,3.299095641921291e-06,109.276,0.7519999742507935,-0.03285445185991121
109.396552,,3.1692895477646765e-06,109.741,0.7760000228881836,0.019238560899920907
109.862069,,3.022581472328915e-06,110.208,0.7440000176429749,-0.050650680770329526
110.32758600000001,,2.858764355347329e-06,110.674,0.7739999890327454,0.014563995239955461
110.793103,,2.677683174120212e-06,111.134,0.6959999799728394,-0.1554836633760288
111.258621,,2.4792377434404704e-06,111.604,0.753000020980835,-0.03137899095363323
111.724138,,2.263385440991694e-06,112.068,0.7720000147819519,0.009975725222439774
112.189655,,2.0301438452862577e-06,112.53,0.75,-0.037951889986205974
112.655172,,1.779593272964259e-06,112.996,0.5249999761581421,-0.5281068136228979
113.12069,,1.5118792020636207e-06,113.462,0.7720000147819519,0.010094976040120888
113.586207,,1.22721456769986e-06,113.927,0.753000020980835,-0.0311861860468031
114.051724,,9.258819164630793e-07,114.394,0.7749999761581421,0.016897196729993354
114.51724100000001,,6.08235405751965e-07,114.86,0.7540000081062317,-0.028664490352657553
114.982759,,2.7470263422212197e-07,115.324,0.7490000128746033,-0.03933635174351304
115.448276,,7.42137104689515e-08,115.789,0.8479999899864197,0.17659814898258494
115.913793,,4.3793440038350087e-07,116.249,0.7739999890327454,0.015648563510845277
116.37931,,8.158024261491671e-07,116.715,0.7609999775886536,-0.012390366456188183
116.84482799999999,,1.2070819794269595e-06,117.183,0.75,-0.03606958535600879
117.310345,,1.6109576722857782e-06,117.644,0.5659999847412109,-0.436665936594337
117.77586199999999,,2.0265340064970435e-06,118.112,0.7760000228881836,0.021102968175118773
118.241379,,2.4528351054342427e-06,118.574,0.7739999890327454,0.016971686710275085
118.70689700000001,,2.8888047208740532e-06,119.045,0.777999997138977,0.02588249738059015
119.172414,,3.3333065265469568e-06,119.508,0.753000020980835,-0.028424476311533824
119.63793100000001,,3.7851247097749082e-06,119.973,0.7559999823570251,-0.021773014477090152
120.103448,,4.242964871960815e-06,120.436,0.7739999890327454,0.017510027477647648
120.568966,,4.705455248058675e-06,120.902,0.753000020980835,-0.028225389127434677
121.034483,,5.171148254453757e-06,121.367,0.5929999947547913,-0.37684959523750067
121.5,,5.638522373918906e-06,121.833,0.7829999923706055,0.03699423684653133
121.96551699999999,,6.105984385485933e-06,122.297,0.7739999890327454,0.01723353572043155
122.431034,,6.571871946180201e-06,122.763,0.753000020980835,-0.028717692210561314
122.896552,,7.034456530612552e-06,123.23,0.7570000290870667,-0.020245256566263525
123.362069,,7.491946733406034e-06,123.689,0.7570000290870667,-0.020523626751040122
123.827586,,7.94249193835671e-06,124.157,0.753000020980835,-0.02954500303889018
124.293103,,8.384186357089058e-06,124.619,0.777999997138977,0.02459515636299924
124.758621,,8.815073438768768e-06,125.09,0.7609999775886536,-0.012777097909791616
125.22413800000001,,9.233150651180703e-06,125.552,0.7739999890327454,0.015211107119610164
125.68965500000002,,9.63637463216949e-06,126.02,0.7739999890327454,0.014888055544883415
126.15517200000001,,1.002266670907682e-05,126.482,0.7739999890327454,0.014586394915804615
126.62069000000001,,1.0389918782395781e-05,126.948,0.753000020980835,-0.031436396638844816
127.086207,,1.0735999568401121e-05,127.416,0.75,-0.038205365444565056
127.55172400000001,,1.1058761194008599e-05,127.88,0.7749999761581421,0.016073708965945777
128.017241,,1.1356046135569753e-05,128.345,0.8510000109672546,0.18151859338554863
128.48275900000002,,1.1625694491724391e-05,128.81,0.7749999761581421,0.015869896750753083
128.948276,,1.1865551578815854e-05,129.276,0.7739999890327454,0.013682724941904954
129.413793,,1.2073475835728024e-05,129.734,0.7749999761581421,0.015915081883791336
129.87931,,1.2247347023332657e-05,130.206,0.746999979019165,-0.04497245804365952
130.344828,,1.2385074702045926e-05,130.664,0.7590000033378601,-0.018656618242955204
130.81034499999998,,1.248460696928921e-05,131.134,0.7590000033378601,-0.01843180158877967
131.275862,,1.2543939436936547e-05,131.597,0.7070000171661377,-0.13145072830026316
131.741379,,1.2561124427115693e-05,132.06,0.7570000290870667,-0.022209957360708764
132.206897,,1.2534280363017123e-05,132.53,0.7749999761581421,0.017343960383754145
132.67241399999997,,1.246160132966216e-05,132.996,0.7549999952316284,-0.025868969425976173
133.13793099999998,,1.2341366777893775e-05,133.454,0.7570000290870667,-0.021140702353668682
133.60344800000001,,1.2171951343188542e-05,133.92,0.7739999890327454,0.016267167676495102
134.06896600000002,,1.1951834749252344e-05,134.387,0.7590000033378601,-0.016052223004216316
134.53448300000002,,1.1679611764763094e-05,134.853,0.7760000228881836,0.021323780803632154
135.0,,1.1354002180067997e-05,135.32,0.7749999761581421,0.01945251272652151
135.465517,,1.0973860769138304e-05,135.779,0.7689999938011169,0.006647257591730397
135.931034,,1.053818720063862e-05,136.246,0.777999997138977,0.026472212517236686
136.396552,,1.0046135860588311e-05,136.711,0.7739999890327454,0.01791815609142598
136.862069,,9.49702554778719e-06,137.179,0.7770000100135803,0.024552609296563204
137.327586,,8.890349001954365e-06,137.642,0.746999979019165,-0.04077496167024913
137.793103,,8.225782223395717e-06,138.105,0.777999997138977,0.026726278767496718
138.258621,,7.503193541979921e-06,138.574,0.753000020980835,-0.027845467079411625
138.724138,,6.722652392273154e-06,139.038,0.7480000257492065,-0.03891115696880693
139.189655,,5.884437750866434e-06,139.501,0.7739999890327454,0.017498402116507633
139.655172,,4.989046191234922e-06,139.966,0.7739999890327454,0.017207495549271506
140.12069,,4.037199510902982e-06,140.43,0.7739999890327454,0.016869415641626407
140.586207,,3.0298518852601266e-06,140.896,0.7559999823570251,-0.02272235138897538
141.05172399999998,,1.968196502088429e-06,141.361,0.753000020980835,-0.02966220184706866
141.51724099999998,,8.53671630729019e-07,141.826,0.7480000257492065,-0.04097608629557007
141.982759,,3.1203392015931033e-07,142.293,0.7570000290870667,-0.02179312454818216
142.44827600000002,,1.5269760021056664e-06,142.759,0.7789999842643738,0.025721412102762346
142.913793,,2.7889510290906952e-06,143.224,0.7820000052452087,0.031864771793180015
143.37931,,4.095492627522017e-06,143.69,0.593999981880188,-0.37808175487976264
143.844828,,5.443869078151412e-06,144.153,0.777999997138977,0.02246944858496114
144.310345,,6.831081593251044e-06,144.614,0.7739999890327454,0.013488503760462265
144.77586200000002,,8.253863471259497e-06,145.083,0.7710000276565552,0.006752606295205171
145.241379,,9.708680169803681e-06,145.545,0.753000020980835,-0.03259018492671226
145.706897,,1.1191730336495704e-05,146.016,0.7490000128746033,-0.04135474118673251
146.172414,,1.269894783519135e-05,146.479,0.7540000081062317,-0.03043198350565346
146.637931,,1.4226004803476072e-05,146.944,0.7739999890327454,0.01325074042803107
147.103448,,1.57683157750132e-05,147.404,0.8069999814033508,0.08533548060484998
147.568966,,1.7321042898045893e-05,147.87,0.765999972820282,-0.003724128948859284
148.034483,,1.8879102278788483e-05,148.335,0.7739999890327454,0.014037891139924066
148.5,,2.0437171475674017e-05,148.801,0.7570000290870667,-0.022608693786759376
148.965517,,2.1989698167444026e-05,149.268,0.7490000128746033,-0.03960194988402707
149.43103399999998,,2.3530910014874897e-05,149.734,0.7820000052452087,0.032762148391487216
149.89655199999999,,2.505482573253519e-05,150.198,0.7910000085830688,0.05285858415920428
150.362069,,2.655526738336291e-05,150.664,0.527999997138977,-0.5196365665238273
150.82758600000003,,2.802587390504506e-05,151.127,0.753000020980835,-0.028970259794018058
151.293103,,2.9460115873178686e-05,151.589,0.7720000147819519,0.012864247584041186
151.758621,,3.0851311501998946e-05,152.06,0.7739999890327454,0.01762310277861924
152.224138,,3.219264387908176e-05,152.523,0.7480000257492065,-0.03867126095785488
152.68965500000002,,3.3477179425874676e-05,152.988,0.777999997138977,0.02697586183984928
153.155172,,3.469788757118771e-05,153.451,0.5669999718666077,-0.4325069342528174
153.62069,,3.5847661619896115e-05,153.918,0.7699999809265137,0.009884971270133653
154.086207,,3.691934079407952e-05,154.382,0.7979999780654907,0.07092677382459604
154.551724,,3.790573341865857e-05,154.848,0.7699999809265137,0.009880231131323023
155.017241,,3.879964121830313e-05,155.313,0.6729999780654907,-0.2015788728962358
155.482759,,3.959388468698911e-05,155.779,0.7580000162124634,-0.016608877842546547
155.948276,,4.028132948608894e-05,156.245,0.7570000290870667,-0.019080766890997213
156.413793,,4.085491382130792e-05,156.704,0.7580000162124634,-0.0172636031936295
156.87931,,4.1307676743142884e-05,157.171,0.7490000128746033,-0.03729091167059045
157.34482799999998,,4.1632787309856975e-05,157.634,0.7879999876022339,0.04721145774129035
157.81034499999998,,4.182357454625399e-05,158.105,0.7599999904632568,-0.014286692171629407
158.275862,,4.1873558125816434e-05,158.567,0.7730000019073486,0.013523226938971324
158.741379,,4.177647969806315e-05,159.03,0.7570000290870667,-0.021849390636098247
159.20689700000003,,4.152633477730598e-05,159.5,0.7440000176429749,-0.05067317701963864
159.672414,,4.111740510336202e-05,159.959,0.753000020980835,-0.03153925989423845
160.137931,,4.054429137923087e-05,160.43,0.7559999823570251,-0.025435440774399992
160.60344800000001,,3.980194628529851e-05,160.896,0.7720000147819519,0.009046664404187383
161.06896600000002,,3.888570766430338e-05,161.36,0.765999972820282,-0.004333786461653807
161.534483,,3.779133176612195e-05,161.826,0.7760000228881836,0.017222197783841476
162.0,,3.651502643642379e-05,162.291,0.5929999947547913,-0.3816191794418091
162.465517,,3.505348412843592e-05,162.749,0.7310000061988831,-0.08103092745160276
162.931034,,3.340391461246885e-05,163.216,0.7789999842643738,0.023567428311215388
163.396552,,3.156407725351726e-05,163.682,0.7609999775886536,-0.01553207878005488
163.862069,,2.9532312723184053e-05,164.15,0.7570000290870667,-0.024039759330853342
164.327586,,2.7307574008413004e-05,164.612,0.7990000247955322,0.06775594287459666
164.793103,,2.4889456576079416e-05,165.075,0.7459999918937683,-0.04734188852192517
165.258621,,2.2278227549405936e-05,165.545,0.7760000228881836,0.018455455445023902
165.72413799999998,,1.947485374946875e-05,166.008,0.7739999890327454,0.0145905447089075
166.189655,,1.6481028452763447e-05,166.471,0.7739999890327454,0.015123768777187603
166.655172,,1.3299196713935843e-05,166.937,0.753000020980835,-0.030070037074923412
167.12069,,9.93257910137615e-06,167.402,0.7570000290870667,-0.02079055896808658
167.58620699999997,,6.385193692449993e-06,167.867,0.7739999890327454,0.016801334862391243
168.051724,,2.661876174720767e-06,168.334,0.7990000247955322,0.07179687825819962
168.517241,,1.231702100371751e-06,168.8,0.7739999890327454,0.017818493244751384
168.98275900000002,,5.289018264249422e-06,169.264,0.7739999890327454,0.01824929510049441
169.44827600000002,,9.50268442998774e-06,169.73,0.7490000128746033,-0.03585793197511277
169.913793,,1.3864436692969981e-05,170.193,0.7580000162124634,-0.015975492560716797
170.37931,,1.836512678076974e-05,170.656,0.47200000286102295,-0.6388937113106606
170.844828,,2.2994716496555595e-05,171.119,0.7760000228881836,0.023481118501885948
171.310345,,2.7742275096592434e-05,171.589,0.7870000004768372,0.047405244379094574
171.775862,,3.259597973803312e-05,172.053,0.7570000290870667,-0.0180951799038648
172.241379,,3.754311912813907e-05,172.515,0.6359999775886536,-0.28195225475863367
172.706897,,4.2570100500327374e-05,172.981,0.7720000147819519,0.014008688391885932
173.172414,,4.7662460036006656e-05,173.451,0.7590000033378601,-0.014731722056454876
173.637931,,5.280487684402658e-05,173.909,0.7710000276565552,0.010926476691489979
174.103448,,5.798119060172191e-05,174.376,0.75,-0.035364134646157605
174.568966,,6.317442295297896e-05,174.84,0.765999972820282,-0.001081992979838222
175.034483,,6.836680274948932e-05,175.305,0.7490000128746033,-0.038715073089545735
175.5,,7.353979521138647e-05,175.771,0.781000018119812,0.03040399431179876
175.96551699999998,,7.867413507278888e-05,176.238,0.7739999890327454,0.01457300659583038
176.43103399999998,,8.37498637664072e-05,176.704,0.7739999890327454,0.014027978089647244
176.896552,,8.874637068932318e-05,177.168,0.7870000004768372,0.04185748715316713
177.36206900000002,,9.364243857932749e-05,177.63,0.7699999809265137,0.004394722812543602
177.827586,,9.841629301782939e-05,178.101,0.7739999890327454,0.012763591288420655
178.293103,,0.00010304565606134186,178.563,0.7580000162124634,-0.0223504494612789
178.758621,,0.00010750780398892346,179.027,0.7739999890327454,0.012349822233055443
179.224138,,0.00011177962913775085,179.489,0.7580000162124634,-0.022564006063602447
179.68965500000002,,0.00011583770578323014,179.955,0.7739999890327454,0.01234318694205876
180.155172,,0.00011965836000376337,180.419,0.828000009059906,0.13014347629365683
180.62069,,0.00012321774345350385,180.884,0.7739999890327454,0.012750644451307767
181.086207,,0.00012649191094920082,181.349,0.7739999890327454,0.013097305661043123
181.551724,,0.0001294569017595898,181.815,0.7509999871253967,-0.03658454996891721
182.01724099999998,,0.00013208882446777632,182.279,0.7570000290870667,-0.023018784433782555
182.482759,,0.00013436394525873484,182.745,0.8640000224113464,0.2106439575987963
182.948276,,0.0001362587794654553,183.212,0.7580000162124634,-0.01970658769988133
183.413793,,0.00013775018618846833,183.677,0.7730000019073486,0.01357881004645523
183.87931,,0.00013881546578452784,184.146,0.7739999890327454,0.016362574916711826
184.34482799999998,,0.0001394324600011852,184.608,0.765999972820282,-0.00048042061581660654
184.81034499999998,,0.0001395796545149165,185.071,0.7739999890327454,0.017498047654931174
185.27586200000002,,0.00013923628361143172,185.534,0.7580000162124634,-0.01686500559057542
185.74137900000002,,0.0001383824367278688,186.001,0.7720000147819519,0.014062043782025439
186.206897,,0.0001369991665578316,186.471,0.8270000219345093,0.1342326383398493
186.672414,,0.00013506859840174072,186.929,0.7680000066757202,0.0059467157360345935
187.137931,,0.00013257404042680738,187.394,0.7739999890327454,0.019173599635651267
187.60344800000001,,0.00012950009448319243,187.86,0.7580000162124634,-0.015635123794947928
188.06896600000002,,0.00012583276710565516,188.327,0.7749999761581421,0.021344219478859672
188.534483,,0.00012155958031331324,188.793,0.75,-0.033285230702199214
189.0,,0.00011666968180410893,189.256,0.7730000019073486,0.016559520028496574
189.465517,,0.00011115395412529395,189.722,0.765999972820282,0.0009521301536252827
189.931034,,0.00010500512238679143,190.19,0.7889999747276306,0.05062320311577874
190.39655199999999,,9.821786007075531e-05,190.653,0.7789999842643738,0.028331733776547907
190.862069,,9.078889247811336e-05,191.116,0.7580000162124634,-0.017976844615625154
191.327586,,8.27170973414379e-05,191.586,0.6169999837875366,-0.3257620379867716
191.793103,,7.400360212322433e-05,192.049,0.7739999890327454,0.015667377716427344
192.25862099999998,,6.465187750966015e-05,192.512,0.746999979019165,-0.04377568426557513
192.72413799999998,,5.466782660232217e-05,192.977,0.8339999914169312,0.14516924448085586
193.189655,,4.4059869304031834e-05,193.44,0.7699999809265137,0.005180246158685651
193.655172,,3.283902139041312e-05,193.906,0.7570000290870667,-0.023639049032034516
194.12069000000002,,2.1018967755614673e-05,194.371,0.7609999775886536,-0.015349195499863017
194.586207,,8.616129319258495e-06,194.837,0.7739999890327454,0.012634356138671948
195.051724,,4.350276917961827e-06,195.302,0.7739999890327454,0.012392310456811342
195.517241,,1.7858185180415013e-05,195.768,0.7570000290870667,-0.024782315378252776
195.98275900000002,,3.188263609167956e-05,196.234,0.7739999890327454,0.012225341164387034
196.448276,,4.639574021691368e-05,196.7,0.7609999775886536,-0.016016992438989602
196.913793,,6.136665046554916e-05,197.16,0.777999997138977,0.021207360433286814
197.37931,,7.676154383620958e-05,197.63,0.777999997138977,0.021496400376641044
197.844828,,9.254361297340622e-05,198.09,0.7590000033378601,-0.019516100185172885
198.310345,,0.00010867306799102331,198.56,0.7710000276565552,0.00709001165017964
198.775862,,0.00012510714900082612,199.02,0.7570000290870667,-0.02288288325964391
199.241379,,0.00014180014976517493,199.49,0.765999972820282,-0.002697583760157012
199.706897,,0.0001587034528717764,199.955,0.7590000033378601,-0.017339089152135702
200.172414,,0.00017576557680462697,200.419,0.75,-0.03632574468978143
200.63793099999998,,0.0001929322352592895,200.884,0.7590000033378601,-0.01610405666029411
201.103448,,0.00021014640902228387,201.349,0.7739999890327454,0.017163543181596363
201.568966,,0.0002273484307036669,201.815,0.7739999890327454,0.017707990023570982
202.034483,,0.00024447608257883703,202.275,0.753000020980835,-0.027559584732783676
202.5,,0.0002614647077602411,202.74,0.7820000052452087,0.036029457686085745
202.965517,,0.0002782473348820126,203.205,0.7739999890327454,0.018920576082726282
203.431034,,0.00029475481644067276,203.67,0.753000020980835,-0.02660869029598859
203.896552,,0.0003109159808929172,204.134,0.828000009059906,0.1369077142624538
204.36206900000002,,0.0003266577985672559,204.604,0.7689999938011169,0.008378094218426708
204.827586,,0.00034190556139993244,205.068,0.753000020980835,-0.02657814719976556
205.293103,,0.00035658307645720347,205.53,0.8429999947547913,0.16929649415735532
205.758621,,0.0003706128731557924,205.996,0.7739999890327454,0.01866799309079976
206.224138,,0.0003839164240412482,206.462,0.7599999904632568,-0.012224837096118265
206.689655,,0.0003964143789301422,206.928,0.7739999890327454,0.017804736345598822
207.155172,,0.00040802681216664587,207.393,0.6209999918937683,-0.3160681241732232
207.62069,,0.0004186734826871842,207.859,0.8339999914169312,0.14739170661682843
208.086207,,0.0004282741065286927,208.324,1.0269999504089355,0.5672526137800297
208.551724,,0.00043674864135667213,208.789,0.7739999890327454,0.015435829108854781
209.01724099999998,,0.0004440175825289014,209.249,0.7599999904632568,-0.015671449696826763
209.482759,,0.00045000227014950484,209.715,0.7739999890327454,0.014249233817502295
209.948276,,0.00045462520650626457,210.183,0.7870000004768372,0.04203521624463518
210.413793,,0.00045781038322181887,210.645,0.6340000033378601,-0.29177643976724776
210.87930999999998,,0.00045948361738689265,211.116,0.7630000114440918,-0.011139217353110388
211.344828,,0.0004595728958811873,211.578,0.7590000033378601,-0.020177945543944822
211.810345,,0.00045800872702523535,212.042,0.7440000176429749,-0.053085020006092505
212.27586200000002,,0.0004547244986446386,212.504,0.878000020980835,0.2387326843839957
212.741379,,0.0004496568415668981,212.97,0.7739999890327454,0.012144853771097482
213.206897,,0.00044274599751075686,213.441,0.777999997138977,0.020963645674427777
213.672414,,0.0004339361902688776,213.899,0.7739999890327454,0.012460916891070718
214.137931,,0.00042317599902702666,214.364,0.7699999809265137,0.004059586434153936
214.60344800000001,,0.0004104187326070092,214.829,0.753000020980835,-0.0325725111888922
215.068966,,0.00039562280336667455,215.294,0.7739999890327454,0.013663046053389203
215.534483,,0.0003787520994386678,215.759,0.7609999775886536,-0.014110611690704612
216.0,,0.000359776353940529,216.224,0.9589999914169312,0.417862620347267
216.465517,,0.00033867150974252735,216.689,0.7760000228881836,0.01980780041498003
216.93103399999998,,0.0003154200783365571,217.16,0.7749999761581421,0.01828137504661274
217.39655199999999,,0.0002900114913098054,217.622,0.7720000147819519,0.012388413380535193
217.862069,,0.0002624424428910289,218.09,0.8069999814033508,0.0892549808162877
218.327586,,0.000232717222005435,218.552,0.765999972820282,0.0004965106926784679
218.793103,,0.00020084803224665123,219.02,0.746999979019165,-0.040398466077420994
219.25862099999998,,0.00016685529815136806,219.482,0.7590000033378601,-0.01383914641959338
219.724138,,0.00013076795614424408,219.948,0.7739999890327454,0.01915936131378266
220.18965500000002,,9.262372850784979e-05,220.415,0.7749999761581421,0.02155074373832832
220.65517200000002,,5.246937872506582e-05,220.874,0.7559999823570251,-0.0197437707890621
221.12069,,1.0360946539715167e-05,221.346,0.7599999904632568,-0.011046283354147804
221.586207,,3.363603891444945e-05,221.804,0.7369999885559082,-0.06128961942406532
222.051724,,7.944636955571537e-05,222.271,0.7599999904632568,-0.011428713713565767
222.517241,,0.0001269849939896235,222.737,0.7590000033378601,-0.013960990040774661
222.98275900000002,,0.00017615687993600133,223.201,0.7620000243186951,-0.007872887016417422
223.448276,,0.00022685690501578836,223.667,0.7730000019073486,0.015564298813952257
223.913793,,0.00027896977742794445,224.13,0.7519999742507935,-0.03077879551330368
224.37931,,0.00033236998800179903,224.6,0.7990000247955322,0.07098169465780849
224.844828,,0.00038692179505785503,225.061,0.7739999890327454,0.015855291485566064
225.31034499999998,,0.0004424792434501595,225.524,0.7580000162124634,-0.01966682395924474
225.775862,,0.0004988862190957801,225.989,0.7739999890327454,0.014544004019101067
226.241379,,0.000555976540221615,226.46,0.7620000243186951,-0.012210585786673125
226.706897,,0.0006135740864756663,226.925,0.7730000019073486,0.011199458818230822
227.172414,,0.0006714929669589458,227.39,0.7739999890327454,0.012896491802200032
227.63793099999998,,0.0007295377281352806,227.856,0.7409999966621399,-0.059392268817110926
228.103448,,0.0007875036024694752,228.315,0.7990000247955322,0.0666766183591703
228.56896600000002,,0.0008451767985297591,228.781,0.777999997138977,0.02074307501502838
229.03448300000002,,0.0009023348331683711,229.246,0.7749999761581421,0.014142277523082395
229.5,,0.0009587469062643531,229.712,0.7580000162124634,-0.022841110966219647
229.965517,,0.0010141743183749352,230.175,0.7789999842643738,0.02308052107443143
230.431034,,0.0010683709314966536,230.644,0.6269999742507935,-0.3077951766697332
230.896552,,0.001121083672985718,231.105,0.753000020980835,-0.03290878091994697
231.362069,,0.0011720530825296623,231.574,0.7739999890327454,0.013307585865318456
231.827586,,0.0012210139018975913,232.038,0.8169999718666077,0.10753240328488228
232.293103,,0.0012676957070227688,232.501,0.7739999890327454,0.014456179590910468
232.758621,,0.001311823581791081,232.966,0.7549999952316284,-0.02628959823369882
233.224138,,0.0013531188327279599,233.43,0.7480000257492065,-0.04087037804706997
233.689655,,0.0013912997435956366,233.896,0.7599999904632568,-0.014056992615227287
234.155172,,0.0014260823687217514,234.36,0.7609999775886536,-0.01122920847901745
234.62069,,0.0014571813636700909,234.826,0.7730000019073486,0.015523555484884722
235.086207,,0.0014843108516496223,235.291,0.7739999890327454,0.018252317028405185
235.55172399999998,,0.0015071853238713803,235.756,0.7480000257492065,-0.037918606945677155
236.01724099999998,,0.0015255205719002082,236.224,0.7699999809265137,0.0103937048545911
236.482759,,0.0015390346498417068,236.689,0.7710000276565552,0.012851060290721049
236.94827600000002,,0.0015474488639091474,237.153,0.7739999890327454,0.01955356509825838
237.413793,,0.0015504887866365424,237.615,0.7570000290870667,-0.017434400790497954
237.87931,,0.0015478852929209444,238.083,0.7580000162124634,-0.015326890881139896
238.344828,,0.0015393756151155541,238.545,0.7919999957084656,0.05855814043433368
238.810345,,0.0015247044141314268,239.012,0.7910000085830688,0.056079420364552574
239.27586200000002,,0.001503624862755045,239.475,0.7730000019073486,0.016461725106244867
239.741379,,0.001475899736878347,239.941,0.753000020980835,-0.027604082586646206
240.206897,,0.0014413025110279099,240.405,0.7519999742507935,-0.030352733801891716
240.672414,,0.0013996184557455123,240.87,0.7570000290870667,-0.020089224858134625
241.137931,,0.0013506457334609878,241.337,0.753000020980835,-0.029474212618964303
241.603448,,0.0012941964859679792,241.803,0.7689999938011169,0.004694167141527775
242.068966,,0.0012300979052820536,242.268,0.781000018119812,0.030150628840650277
242.534483,,0.0011581932854890682,242.734,0.8109999895095825,0.0948479195198265
243.0,,0.0010783430602319237,243.201,0.7739999890327454,0.013622314478323105
243.465517,,0.0009904258237939771,243.66,0.7519999742507935,-0.03485907729845076
243.93103399999998,,0.0008943393136311607,244.13,0.7739999890327454,0.012600802864305363
244.39655199999999,,0.00079000132965951,244.593,0.7570000290870667,-0.024811042795164377
244.862069,,0.0006773506046881085,245.056,0.7689999938011169,0.001065218888371704
245.327586,,0.0005563476766037068,245.519,0.75,-0.04048070936846166
245.793103,,0.0004269757612820135,245.984,0.7770000100135803,0.018312184801820598
246.258621,,0.00028924150943101205,246.455,0.7559999823570251,-0.027347583738472236
246.724138,,0.00014317554432019465,246.92,0.7749999761581421,0.014258910561826444
247.18965500000002,,1.1167073655061378e-05,247.386,0.7599999904632568,-0.018094478010708702
247.655172,,0.00017370613924800094,247.844,0.7369999885559082,-0.067773272704266
248.12069,,0.0003443354111588699,248.316,0.7590000033378601,-0.019322635187861575
248.586207,,0.0005229222471862242,248.774,0.7630000114440918,-0.010012762664860557
249.051724,,0.0007093082208086254,249.239,0.7770000100135803,0.02114127771593838
249.517241,,0.000903309633949422,249.705,0.7739999890327454,0.0152965629667455
249.982759,,0.0011047161354950886,250.175,0.7760000228881836,0.020362533185911903
250.44827600000002,,0.0013132882595371538,250.638,0.7490000128746033,-0.037757418798137286
250.913793,,0.001528758224394267,251.101,0.7739999890327454,0.017385083987267513
251.37931000000003,,0.0017508357911691086,251.564,0.7549999952316284,-0.02338112458461013
251.844828,,0.0019792116994546962,252.035,0.7540000081062317,-0.024999701961068207
252.31034499999998,,0.0022135490212824194,252.497,0.7730000019073486,0.01686899657680966
252.77586200000002,,0.002453470121836823,252.963,0.7739999890327454,0.019422065014275788
253.241379,,0.0026985652279831063,253.429,0.7580000162124634,-0.015173604695792278
253.706897,,0.0029484275417540257,253.895,0.7739999890327454,0.019826755395520843
254.172414,,0.0032026653773338824,254.356,0.7900000214576721,0.054702342973186456
254.63793099999998,,0.0034608416706295737,254.821,0.7699999809265137,0.011020963417994021
255.10344800000001,,0.003722403086743508,255.286,0.777999997138977,0.028218929882106492
255.56896600000002,,0.00398675045809037,255.751,0.7590000033378601,-0.013523479390140796
256.03448299999997,,0.004253443637944583,256.216,0.7580000162124634,-0.016157405156912066
256.5,,0.00452222325108513,256.682,0.7739999890327454,0.01815185656171983
256.965517,,0.004792610277041732,257.15,0.7739999890327454,0.017526120145085762
257.431034,,0.005063545660055426,257.612,0.7739999890327454,0.016842962466646096
257.896552,,0.0053339302039615705,258.075,0.878000020980835,0.2427047063185582
258.362069,,0.005603800575274546,258.545,0.7739999890327454,0.015396405805987537
258.827586,,0.005874161765542456,259.009,0.7739999890327454,0.014677086318917449
259.29310300000003,,0.006144440069739006,259.471,0.7490000128746033,-0.040479482076537
259.758621,,0.006410800863471201,259.937,0.7770000100135803,0.01988199497934013
260.224138,,0.0066700492542515494,260.402,0.7739999890327454,0.012775302717698646
260.689655,,0.006926206083654654,260.867,0.7509999871253967,-0.037816609970891535
261.155172,,0.0071877384049051,261.334,0.7720000147819519,0.007554468345696283
261.62068999999997,,0.007451834086660121,261.8,0.7620000243186951,-0.014497960480056245
262.086207,,0.0076975585321800094,262.264,0.7730000019073486,0.009324763658186276
262.551724,,0.007912737208470563,262.73,0.753000020980835,-0.034262124507959825
263.017241,,0.00812947709360296,263.193,0.7599999904632568,-0.018896478022228186
263.482759,,0.008397230594977748,263.656,0.9399999976158142,0.3735051115740719
263.94827599999996,,0.008688274193689548,264.119,0.7599999904632568,-0.01828088930938298
264.413793,,0.008877703985191034,264.589,0.7739999890327454,0.012703210812699177
264.87931,,0.008921844046745021,265.053,0.7699999809265137,0.0045663424043683575
265.34482799999995,,0.009041689287400493,265.515,0.7699999809265137,0.005221488686204749
265.810345,,0.009502334140356597,265.981,0.7490000128746033,-0.03981786834273883
266.27586199999996,,0.010059732089629387,266.444,0.7739999890327454,0.015395590962412185
266.741379,,0.00997325874602302,266.909,0.8019999861717224,0.07715838785253153
267.206897,,0.009156136128150597,267.376,0.7749999761581421,0.019086529427183238
267.672414,,0.009075854228906203,267.841,0.7789999842643738,0.028520371500178637
268.137931,,0.011108063140968584,268.308,0.7990000247955322,0.07275799642468052
268.603448,,0.013258878871275455,268.774,0.7739999890327454,0.018881268908775485
269.06896600000005,,0.01039153560935696,269.239,0.7599999904632568,-0.011124477036330543
269.53448299999997,,0.00018116208401266053,269.704,0.5170000195503235,-0.5401562216422527
270.0,,0.012132922666488941,270.168,0.765999972820282,0.0025752629272529234
270.465517,,0.01805833484599575,270.63,0.7570000290870667,-0.016919623571826567
270.931034,,0.0149454400705697,271.097,0.7580000162124634,-0.014762308893554468
271.396552,,0.008410125112414792,271.56,0.7739999890327454,0.01994147652824247
271.86206899999996,,0.005914361832816824,272.031,0.796999990940094,0.06976848736653825
272.327586,,0.009979510203368134,272.493,0.7739999890327454,0.01925963981516807
272.793103,,0.01742000351518541,272.959,0.7509999871253967,-0.031355830647080495
273.258621,,0.023261545448750066,273.422,0.7739999890327454,0.01815454048320185
273.724138,,0.024844447478111535,273.888,0.753000020980835,-0.02826932389372718
274.18965499999996,,0.022992132189089423,274.352,0.7559999823570251,-0.022459280854462447
274.655172,,0.0201560137597289,274.818,0.7749999761581421,0.018177932496925554
275.12069,,0.01823076154781729,275.283,0.7789999842643738,0.026128112394310985
275.586207,,0.018274084075368898,275.748,0.7739999890327454,0.014486857577384903
276.051724,,0.020618336986905107,276.213,0.7739999890327454,0.013777946000021387
276.517241,,0.023165964957270368,276.679,0.7609999775886536,-0.01519307063969288
276.98275900000004,,0.021091499935971328,277.142,0.7730000019073486,0.010382057068631436
277.448276,,0.013035538074972309,277.604,0.7580000162124634,-0.022769304403542395
277.913793,,0.00874544364627472,278.075,0.7599999904632568,-0.018772607715738812
278.37931,,0.024441587582009178,278.537,0.6779999732971191,-0.19766208288675077
278.844828,,0.06470380286193633,279.005,0.7519999742507935,-0.036556162802261524
279.31034500000004,,0.11151302302265567,279.467,0.7860000133514404,0.03753545361559992
279.77586199999996,,0.13741806645044408,279.933,0.7450000047683716,-0.051638573832765225
280.241379,,0.12951284457073842,280.398,0.7580000162124634,-0.023037380587628237
280.706897,,0.09668733540404782,280.864,0.777999997138977,0.020934217735935862
281.172414,,0.05551667665895021,281.324,0.7369999885559082,-0.06788356096634042
281.637931,,0.015698559110512832,281.789,0.7770000100135803,0.019861841709662306
282.10344799999996,,0.019995446735942363,282.256,0.75,-0.03828767201952131
282.568966,,0.04833223918535386,282.721,0.7580000162124634,-0.0201302688593284
283.034483,,0.06384625805597952,283.19,0.75,-0.036799623508843915
283.5,,0.06419457246283089,283.652,0.7739999890327454,0.016256737817249685
283.965517,,0.05484940782539772,284.116,0.777999997138977,0.025726528053968054
284.431034,,0.04707254569752119,284.586,0.7570000290870667,-0.0193063081576047
284.89655200000004,,0.0502072634391511,285.049,0.7400000095367432,-0.05568411594121768
285.362069,,0.06470509412014001,285.512,0.7519999742507935,-0.028961595964080142
285.827586,,0.08186154746609496,285.977,0.7739999890327454,0.019449835909535192
286.293103,,0.09009415161673599,286.44,0.7279999852180481,-0.08039923333492772
286.758621,,0.08224351260272872,286.906,0.7710000276565552,0.013527354138737069
287.22413800000004,,0.0595737121013562,287.372,0.7390000224113464,-0.05607656010701106
287.689655,,0.032014661430305215,287.838,0.781000018119812,0.035404640649198404
288.155172,,0.014204403360682358,288.305,0.7519999742507935,-0.027932357252977196
288.62069,,0.016491215820695557,288.771,0.7839999794960022,0.041499189450347335
289.086207,,0.03570373877066512,289.235,0.7739999890327454,0.019307246645460446
289.55172400000004,,0.0555954131821568,289.701,0.7739999890327454,0.018793874267779755
290.01724099999996,,0.05960520504477694,290.164,0.7609999775886536,-0.010134924456483134
290.482759,,0.044376530367350696,290.626,0.7480000257492065,-0.039139083394673854
290.948276,,0.020232858254842587,291.094,0.7739999890327454,0.016768687933985896
291.413793,,0.0005660256103956659,291.556,0.7120000123977661,-0.11907792234986245
291.87931,,0.013209342403180366,292.024,0.7490000128746033,-0.0392494882891419
292.344828,,0.017565209173104588,292.487,0.7760000228881836,0.018805803470281407
292.81034500000004,,0.010811652764399588,292.953,0.7770000100135803,0.02025467076626692
293.275862,,0.010623101169447084,293.419,0.777999997138977,0.021764921842459997
293.74137900000005,,0.0405045068211362,293.885,0.777999997138977,0.021178451915970533
294.206897,,0.05973359151829971,294.35,0.75,-0.04031082063649694
294.672414,,0.04962887336490966,294.815,0.7549999952316284,-0.029791299802751997
295.13793100000004,,0.008879928299835891,295.279,0.7509999871253967,-0.0387550959768393
295.603448,,0.044647479230626085,295.745,0.7689999938011169,0.0003440550079186343
296.068966,,0.08857067937116139,296.205,0.9419999718666077,0.3772740456675118
296.534483,,0.11076134178419408,296.67,0.7590000033378601,-0.0212518754618105
297.0,,0.11131988263861099,297.138,0.7609999775886536,-0.01659337349564505
297.46551700000003,,0.09533341434574347,297.601,0.7699999809265137,0.003437722627537643
297.931034,,0.06723771499730048,298.064,0.8420000076293945,0.1608344869441194
298.396552,,0.03048602513783161,298.534,0.7559999823570251,-0.02589987255892989
298.862069,,0.01088097384625493,299.001,0.777999997138977,0.022734708958528135
299.327586,,0.050977722311699745,299.463,0.7480000257492065,-0.041868722832751455
299.79310300000003,,0.08144074827798935,299.929,0.7739999890327454,0.015560327248134954
300.258621,,0.09370915947557455,300.394,0.8009999990463257,0.07517325961789025
300.724138,,0.08496842730638128,300.86,0.7739999890327454,0.017121017457353328
301.189655,,0.061965236841959884,301.319,0.7799999713897705,0.030922066267855743
301.65517200000005,,0.03679930314772152,301.785,0.7739999890327454,0.018514524945982543
302.12069,,0.018377926212085727,302.25,0.7739999890327454,0.01909348080442903
302.586207,,0.008594326895239727,302.716,0.7570000290870667,-0.017468046938390883
303.05172400000004,,0.005170350040781367,303.179,0.7739999890327454,0.019925925023988933
303.517241,,0.004923511849047024,303.648,0.8379999995231628,0.15958874265779593
303.982759,,0.003933622939785203,304.116,0.75,-0.032036851065600724
304.448276,,0.0018549233529688608,304.578,0.7789999842643738,0.031101285484909414
304.913793,,0.013299647431946598,305.039,0.7590000033378601,-0.012652152047681692
305.37931000000003,,0.0263328287131123,305.508,0.7950000166893005,0.06546692476029571
305.844828,,0.03556928149783903,305.974,0.7599999904632568,-0.011220101110965455
306.310345,,0.039292131011320994,306.436,0.7870000004768372,0.047060485055039354
306.775862,,0.039692398000143854,306.902,0.7689999938011169,0.007209787267080224
307.241379,,0.03895562588133117,307.367,0.7549999952316284,-0.023999262162599278
307.70689699999997,,0.03688865439929691,307.833,0.796999990940094,0.06674474067328551
308.172414,,0.03261325273626057,308.298,0.7749999761581421,0.01802811100362644
308.637931,,0.027193473618626625,308.764,0.7559999823570251,-0.02415581639941508
309.103448,,0.023513580690605884,309.224,0.7739999890327454,0.014290465753910662
309.568966,,0.023807043417583072,309.689,0.7369999885559082,-0.06704549544997516
310.034483,,0.02794655771639501,310.16,0.7689999938011169,0.002010753778278053
310.5,,0.03392338522863205,310.623,0.7570000290870667,-0.024707409743943115
310.96551700000003,,0.03933090009684507,311.09,0.7570000290870667,-0.025177820501880766
311.431034,,0.042808828652166425,311.552,0.777999997138977,0.020222174300236997
311.896552,,0.04511808794170602,312.016,0.7549999952316284,-0.030108133737141878
312.362069,,0.04845165118424258,312.486,0.7739999890327454,0.01120190852678261
312.827586,,0.05336781286937807,312.944,0.781000018119812,0.026508532158772392
313.29310300000003,,0.0567150497865689,313.409,0.7490000128746033,-0.0430134607482799
313.758621,,0.054163106154730904,313.875,0.7739999890327454,0.011779870153087724
314.224138,,0.044731084517357474,314.342,0.7540000081062317,-0.03134350311941119
314.689655,,0.03130642579521939,314.807,0.8029999732971191,0.07596917627608257
315.155172,,0.01672239488633151,315.271,0.7609999775886536,-0.014882175016068665
315.62068999999997,,0.0011499007372061042,315.737,0.7739999890327454,0.01416475309381384
316.086207,,0.01587721970437935,316.202,0.7739999890327454,0.014939193011964889
316.551724,,0.03230684114021107,316.667,0.7599999904632568,-0.014761354762170484
317.017241,,0.04405567734010592,317.131,0.7739999890327454,0.01654140415439265
317.482759,,0.04859499738105752,317.601,0.8019999861717224,0.07832239713402374
317.94827599999996,,0.04706358172269433,318.064,0.7720000147819519,0.013695577298352695
318.413793,,0.04279828596991109,318.526,0.7599999904632568,-0.011785486024050166
318.87931000000003,,0.03892423926661626,318.992,0.7559999823570251,-0.01992887673505766
319.344828,,0.03768163929114908,319.456,0.7950000166893005,0.06550069615763006
319.810345,,0.04030306355034463,319.922,0.7440000176429749,-0.045271343817421414
320.275862,,0.04564192569485571,320.386,0.7680000066757202,0.007220735327325455
320.741379,,0.049610489098980574,320.852,0.7739999890327454,0.020356071930315557
321.20689699999997,,0.04822586038159851,321.319,0.765999972820282,0.0028476203928853253
321.672414,,0.04161038370042294,321.785,0.7490000128746033,-0.03440952933711237
322.137931,,0.033396322852230036,322.244,0.7730000019073486,0.017523121616744606
322.603448,,0.026013282970742287,322.709,0.7699999809265137,0.010508844138422006
323.068966,,0.01860576037405462,323.179,0.7720000147819519,0.01427957631383105
323.53448299999997,,0.010332918979853072,323.641,0.7820000052452087,0.035389274893307086
324.0,,0.003440642099276391,324.104,0.8320000171661377,0.14357702117764676
324.465517,,0.0010369097401357202,324.575,0.7519999742507935,-0.03150425808099017
324.931034,,0.0028495890337688554,325.038,0.7739999890327454,0.015614912910861393
325.396552,,0.0051905082702170344,325.501,0.753000020980835,-0.030945807654837877
325.86206899999996,,0.005002784550489241,325.966,0.7749999761581421,0.01620219504357021
326.327586,,0.002523864425845363,326.43,0.7990000247955322,0.06775972572050674
326.793103,,2.4846113098526013e-05,326.896,0.7870000004768372,0.04096143684707008
327.258621,,0.0009378251245052252,327.361,0.7749999761581421,0.014258904064229942
327.724138,,0.00019156971397728045,327.827,0.7570000290870667,-0.02540328877401152
328.189655,,0.002871399956919071,328.293,0.7739999890327454,0.011312421384511063
328.655172,,0.0058479904827745365,328.759,0.7559999823570251,-0.028089101687141106
329.12068999999997,,0.007391195406886402,329.223,0.7599999904632568,-0.01941923296767313
329.586207,,0.006465724208828904,329.689,0.7749999761581421,0.013358530846774177
330.051724,,0.0037247682764097534,330.149,0.753000020980835,-0.03433330920463129
330.517241,,0.0008892266627692362,330.619,0.7739999890327454,0.011789695897791044
330.982759,,0.0009339297774612953,331.082,0.890999972820282,0.26718757537067733
331.44827599999996,,0.002143692931760637,331.545,0.7739999890327454,0.012893639317400894
331.913793,,0.003979707034761899,332.016,0.7739999890327454,0.01359281614310077
332.37931,,0.00723155487585452,332.478,0.7559999823570251,-0.02485661399840762
332.844828,,0.01164869931047656,332.944,0.7730000019073486,0.012989808684471579
333.310345,,0.016490945154475627,333.409,0.7739999890327454,0.015996156504643762
333.77586199999996,,0.02146073180341523,333.875,0.7609999775886536,-0.011505678331602286
334.241379,,0.026721217168328034,334.334,0.7739999890327454,0.017604702159924525
334.706897,,0.031638000477809354,334.8,0.7739999890327454,0.018335746688664348
335.17241399999995,,0.0337994513268718,335.268,0.7570000290870667,-0.018049766879271657
335.637931,,0.030312891918405388,335.733,0.7519999742507935,-0.028392252422215138
336.103448,,0.020837786458630738,336.194,0.7480000257492065,-0.036674098160760234
336.56896600000005,,0.009032505335390415,336.663,0.7620000243186951,-0.005872022786527656
337.034483,,0.00013129781575765638,337.131,0.7580000162124634,-0.01442625782279542
337.5,,0.0033621451493833876,337.593,0.7710000276565552,0.013911359737797717
337.965517,,0.0034267975721773113,338.057,0.7940000295639038,0.06389058223239791
338.431034,,0.0038473803959771704,338.519,0.7749999761581421,0.022226273434654182
338.89655200000004,,0.006156021670108629,338.985,0.7580000162124634,-0.015213005402914977
339.36206899999996,,0.008689657481360578,339.455,0.7760000228881836,0.023479581649967256
339.827586,,0.009282212802251461,339.914,0.7549999952316284,-0.022899973765026133
340.293103,,0.007904095614118733,340.379,0.7570000290870667,-0.019256302082492016
340.758621,,0.006494347063032063,340.845,0.777999997138977,0.025717790119372492
341.224138,,0.007024604235041735,341.312,0.7720000147819519,0.011829384355976427
341.68965499999996,,0.01003517988836771,341.778,0.7739999890327454,0.015356403825516245
342.155172,,0.014364699851153009,342.242,0.7789999842643738,0.02543141739738478
342.62069,,0.01781431373772083,342.707,0.8149999976158142,0.10308273955989275
343.086207,,0.01845604359077124,343.175,0.753000020980835,-0.032711076814637946
343.551724,,0.015840827219165424,343.637,0.7269999980926514,-0.08999120118551376
344.01724099999996,,0.011097593678165981,344.105,0.8029999732971191,0.07505217458467445
344.48275900000004,,0.005926980894916429,344.567,0.7749999761581421,0.01363570010088455
344.948276,,0.001605537066879525,345.031,0.7480000257492065,-0.0454697330171141
345.413793,,0.0012301467883238163,345.5,0.7710000276565552,0.004497114674839628
345.87931,,0.0023887956543682445,345.966,0.75,-0.0412523313895475
346.344828,,0.002216813827255083,346.429,0.7749999761581421,0.013360578525033622
346.81034500000004,,0.001867336271847478,346.895,0.7570000290870667,-0.025567968754037763
347.275862,,0.002869807059941048,347.36,0.7590000033378601,-0.020792282769899327
347.741379,,0.005787489894131548,347.819,0.7829999923706055,0.03203258388067497
348.206897,,0.009313985456491033,348.286,0.7559999823570251,-0.026150765617896813
348.672414,,0.011209263855243567,348.752,0.7739999890327454,0.013788218724226838
349.13793100000004,,0.010362779439095046,349.217,0.7739999890327454,0.014572590499946724
349.60344799999996,,0.0078041773355327065,349.682,0.753000020980835,-0.030357637066134154
350.068966,,0.005900821845369598,350.145,0.7749999761581421,0.018405245360215376
350.534483,,0.0070959751598821735,350.616,0.777999997138977,0.025760180496779708
351.0,,0.013009898091254305,351.079,0.7599999904632568,-0.012675358494374726
351.465517,,0.02314884206494782,351.541,0.765999972820282,0.001113318462497954
351.93103399999995,,0.03384370940822972,352.005,0.753000020980835,-0.026578026901997554
352.396552,,0.04017838448484006,352.475,0.7739999890327454,0.019699210594490476
352.862069,,0.04070976276096604,352.94,0.7490000128746033,-0.034362812476478787
353.32758600000005,,0.03946051176800854,353.401,0.7739999890327454,0.020373384413980365
353.793103,,0.04151020515523883,353.866,0.7519999742507935,-0.02742941909739389
354.258621,,0.047077131342770195,354.335,0.7580000162124634,-0.014376711118713071
354.72413800000004,,0.05168562252552749,354.8,0.746999979019165,-0.038507913153853
355.189655,,0.051676861722743404,355.265,0.7620000243186951,-0.006135755876356734
355.655172,,0.0470258765221422,355.73,0.7490000128746033,-0.03489808456102051
356.12069,,0.038483069454278054,356.193,0.7739999890327454,0.01900980553853655
356.586207,,0.025299531462190585,356.656,0.7739999890327454,0.01835094131470548
357.05172400000004,,0.007928715685475035,357.119,0.7990000247955322,0.07207899630882979
357.517241,,0.009600378884593546,357.589,0.7490000128746033,-0.03764846711497597
357.982759,,0.023366742764602173,358.05,0.7760000228881836,0.02034687897971397
358.448276,,0.03466175031120603,358.52,0.7739999890327454,0.015153523042642955
358.913793,,0.048129801278737804,358.985,0.7390000224113464,-0.061917454336389975
359.37931000000003,,0.06447460960007803,359.448,0.7739999890327454,0.013558968352980278
359.844828,,0.07779030493484797,359.915,0.7850000262260437,0.036814795127101625
360.310345,,0.0816634977482286,360.375,0.7739999890327454,0.012229699480670424
360.775862,,0.07633120433599018,360.84,0.7440000176429749,-0.053641762645489886
361.241379,,0.06812027732891858,361.305,0.7580000162124634,-0.02353019868042583
361.706897,,0.06300881622660184,361.771,0.7870000004768372,0.039396138580422846
362.172414,,0.06277597472044058,362.239,0.796999990940094,0.06107265883454512
362.63793100000004,,0.06618069443903618,362.704,0.7730000019073486,0.008823564716577212
363.103448,,0.07015206289218354,363.168,0.7620000243186951,-0.014956721637770556
363.568966,,0.06901686231138225,363.63,0.7739999890327454,0.011511836972502501
364.034483,,0.05605835426215779,364.098,0.7770000100135803,0.018503041639797668
364.5,,0.02889964885114228,364.56,0.7760000228881836,0.016896333541839285
364.96551700000003,,0.00684764725669082,365.03,0.7739999890327454,0.013209973625135365
365.431034,,0.040270811453076934,365.493,0.75,-0.03832865834408032
365.896552,,0.061448309587466936,365.958,0.7570000290870667,-0.02227505108006373
366.362069,,0.06582500083857916,366.421,0.7739999890327454,0.01559442700367594
366.827586,,0.05494549497718525,366.887,0.7609999775886536,-0.011891020378544835
367.29310300000003,,0.03498686271404503,367.354,0.7730000019073486,0.015068689626504995
367.758621,,0.013937582163834672,367.819,0.7570000290870667,-0.01902006457720189
368.224138,,0.0020235509117476347,368.286,0.7649999856948853,-0.0008915300322578097
368.689655,,0.010743860607165714,368.744,0.7739999890327454,0.019324321955006094
369.155172,,0.013131895020208714,369.216,0.781000018119812,0.035073460021506866
369.62068999999997,,0.010726983335452567,369.674,0.7559999823570251,-0.01901913782552973
370.086207,,0.00488831958130692,370.142,0.8109999895095825,0.10104420616049432
370.55172400000004,,0.002306755730123261,370.605,0.7739999890327454,0.020529266818796296
371.017241,,0.007946199980760899,371.075,0.7870000004768372,0.04880115153649094
371.482759,,0.010008359087811027,371.537,0.7739999890327454,0.02028340815135081
371.948276,,0.009186393393511814,372.005,0.7739999890327454,0.019949019140490923
372.413793,,0.008595343110742974,372.467,0.7519999742507935,-0.028445360816878484
372.87931000000003,,0.01117997738322261,372.934,0.7739999890327454,0.01890488606604673
373.344828,,0.01702128309695279,373.401,0.8240000009536743,0.1271603176320578
373.810345,,0.023091326542325957,373.859,0.7770000100135803,0.02401182357210728
374.275862,,0.025701556778647366,374.327,0.7749999761581421,0.01884955452278136
374.741379,,0.02337593976703642,374.793,0.8090000152587891,0.0920901199411071
375.20689699999997,,0.01790900720317353,375.26,0.7739999890327454,0.015001030502784854
375.672414,,0.013139439441032987,375.726,0.753000020980835,-0.031565138444673325
376.137931,,0.011995773825457589,376.186,0.7730000019073486,0.011238692084116498
376.603448,,0.013055256726442612,376.649,0.7509999871253967,-0.03739177401755693
377.068966,,0.009805769812796242,377.119,0.7620000243186951,-0.014036495778660864
377.53448299999997,,0.004083703030373976,377.582,0.7960000038146973,0.059537232737621834
378.0,,0.026390937447458875,378.045,0.7580000162124634,-0.023625802043080603
378.465517,,0.044528518811002525,378.516,0.9190000295639038,0.32690216641206177
378.931034,,0.044970978914765695,378.974,0.7620000243186951,-0.015230846020476193
379.396552,,0.02485441000075896,379.444,0.7739999890327454,0.01097732983059896
379.862069,,0.00651784143797883,379.91,0.75,-0.04110113977695721
380.327586,,0.03568676734604196,380.375,0.7570000290870667,-0.025503720368555433
380.79310300000003,,0.05226122330333244,380.84,0.7760000228881836,0.016364785010758786
381.258621,,0.05118716925185777,381.305,0.777999997138977,0.021310091866632176
381.724138,,0.03429343866068302,381.764,0.7739999890327454,0.01327994281086062
382.189655,,0.011682417264543256,382.231,0.7680000066757202,0.0009679457650230169
382.655172,,0.002632612853410179,382.697,0.7620000243186951,-0.011292154770693417
383.12068999999997,,0.0008245554824705348,383.16,0.7799999713897705,0.028762402438127384
383.586207,,0.012796829904625332,383.63,0.7590000033378601,-0.01614827517992027
384.051724,,0.02714935587114597,384.093,0.7519999742507935,-0.03058223761490909
384.517241,,0.03504381375488684,384.556,0.8399999737739563,0.1619074678492654
384.982759,,0.03749889203592798,385.024,0.7739999890327454,0.018815691913529504
385.44827599999996,,0.03884122613463217,385.487,0.7739999890327454,0.019423027982621424
385.913793,,0.040224390606208305,385.952,0.7609999775886536,-0.008403897274385577
386.37931,,0.03885479360519606,386.419,0.7739999890327454,0.020286842181246545
386.84482799999995,,0.032182068081276397,386.885,0.7580000162124634,-0.014341885142991116
387.310345,,0.02127742782428612,387.35,0.7570000290870667,-0.016437075283969815
387.775862,,0.009754881935467316,387.815,0.7739999890327454,0.020534463882804947
388.241379,,6.154434203272286e-05,388.279,0.7820000052452087,0.03775210906814407
388.70689699999997,,0.009203370496371861,388.745,0.7699999809265137,0.01125725775511156
389.172414,,0.019976134715107636,389.205,0.6909999847412109,-0.16133762729312146
389.637931,,0.03208722710312674,389.67,0.7739999890327454,0.018891074507605375
390.103448,,0.04167032134875138,390.138,0.7710000276565552,0.011658304100245164
390.56896600000005,,0.04479724265197432,390.601,0.7570000290870667,-0.01961488521235626
391.03448299999997,,0.041521058600223516,391.064,0.7739999890327454,0.016598150861020983
391.5,,0.03551649650002356,391.534,0.8640000224113464,0.21182822527722991
391.965517,,0.029969784361112195,392.005,0.7609999775886536,-0.013417994281387347
392.431034,,0.025130107469973222,392.46,0.6909999847412109,-0.1667432221271998
392.896552,,0.020080186025813587,392.925,0.7739999890327454,0.013312318655677183
393.36206899999996,,0.015227379375107207,393.389,0.7850000262260437,0.03657824505428558
393.827586,,0.011766429530424734,393.855,0.7739999890327454,0.012009968450980058
394.293103,,0.009647387915557842,394.319,0.7730000019073486,0.009342787245594883
394.75862099999995,,0.007824371833345698,394.785,0.7570000290870667,-0.025875179886092232
395.224138,,0.006478761693996853,395.25,0.7599999904632568,-0.01955955660549913
395.68965499999996,,0.007328236292349364,395.715,0.7760000228881836,0.015224971679190086
396.155172,,0.011058454498786426,396.186,0.7829999923706055,0.030550960172208468
396.62069,,0.015715557417873168,396.648,0.7580000162124634,-0.023692402497027646
397.086207,,0.01856865601617578,397.109,0.7739999890327454,0.01152880214864873
397.551724,,0.018614494414663996,397.578,0.75,-0.04026716028868372
398.017241,,0.016359942995787163,398.046,0.7730000019073486,0.010446973051509413
398.48275900000004,,0.012148296503712536,398.508,0.7519999742507935,-0.034604316898008185
398.94827599999996,,0.006030410446626996,398.973,0.777999997138977,0.022815039167145244
399.413793,,0.0011120091742703115,399.436,0.746999979019165,-0.04389825918366872
399.87931,,0.007541996818332202,399.902,0.8109999895095825,0.09638601869586151
400.344828,,0.01201984332345455,400.371,0.7760000228881836,0.020985122600454705
400.810345,,0.014733897060195494,400.829,0.7739999890327454,0.017454369736411263
401.27586199999996,,0.016774868594833108,401.301,0.7419999837875366,-0.05148758432791222
401.741379,,0.01878155606740816,401.76,0.7599999904632568,-0.011573494074283574
402.206897,,0.019999838367224354,402.227,0.7390000224113464,-0.056724843492948346
402.672414,,0.018719783184469912,402.693,0.7730000019073486,0.017833022399639374
403.137931,,0.014039163218687518,403.156,0.7549999952316284,-0.0210294952051367
403.60344799999996,,0.007368854266615056,403.619,0.7739999890327454,0.02057685320063475
404.068966,,0.0017331318711537487,404.087,0.7760000228881836,0.024998991323529576
404.534483,,0.0009786795621814944,404.549,0.7490000128746033,-0.033909161562136976
405.0,,0.002001898836885136,405.02,0.7739999890327454,0.020325062037678768
405.465517,,0.004429972251993618,405.482,0.75,-0.03233480061349068
405.931034,,0.00975284822926157,405.947,0.753000020980835,-0.02630051680680768
406.39655200000004,,0.015998176743383604,406.413,0.7739999890327454,0.018835280503977942
406.862069,,0.019608907347140058,406.878,0.8140000104904175,0.10527185307979962
407.327586,,0.018899762538274453,407.345,0.7739999890327454,0.01734548453807276
407.793103,,0.015288513178855085,407.804,0.7620000243186951,-0.009626722947692595
408.258621,,0.011428745806914168,408.271,0.7749999761581421,0.017843207852823804
408.72413800000004,,0.008858067378908535,408.737,0.753000020980835,-0.030937522665241714
409.18965499999996,,0.007498828234812696,409.202,0.7559999823570251,-0.025224986910831627
409.655172,,0.006553174189471636,409.668,0.7730000019073486,0.01104108622818595
410.12069,,0.005276606801508902,410.13,0.7519999742507935,-0.035405468081424585
410.586207,,0.003353800237187647,410.6,0.7739999890327454,0.01192731051651232
411.05172400000004,,0.00110242638011086,411.061,0.7609999775886536,-0.016876887667656007
411.51724099999996,,0.0008987088095523052,411.53,0.7580000162124634,-0.023764026840396323
411.982759,,0.0024841101715549958,411.996,0.7570000290870667,-0.026153009379339603
412.448276,,0.003560209584690858,412.454,0.7599999904632568,-0.019680066102256272
412.913793,,0.003065972343724949,412.92,0.7739999890327454,0.01090799145214367
413.37931,,0.00037722460047598253,413.387,1.0829999446868896,0.6843512479289924
413.844828,,0.005904558657614208,413.852,0.7739999890327454,0.01154191612723802
414.31034500000004,,0.009603502550435338,414.32,0.7739999890327454,0.01206942258206659
414.775862,,0.007906013191689026,414.785,0.7639999985694885,-0.009077818274535864
415.241379,,0.001888343004782226,415.249,0.7680000066757202,0.00036741033167443345
415.706897,,0.0029293129086145945,415.715,0.7519999742507935,-0.03369217661074253
416.172414,,0.0017104109277658991,416.175,0.7770000100135803,0.021616398255292765
416.63793100000004,,0.0050729465197415086,416.645,0.8259999752044678,0.1292312917463887
417.103448,,0.012385327426459295,417.108,0.753000020980835,-0.028955608724470294
417.568966,,0.015543420215001342,417.571,0.7940000295639038,0.06118925938234418
418.034483,,0.013863858408607639,418.038,0.7620000243186951,-0.007767141538652487
418.5,,0.009752685410423454,418.5,0.7739999890327454,0.019053564111748
418.96551700000003,,0.0052723903947115465,418.966,0.7710000276565552,0.013090383985748093
419.43103399999995,,0.00035296796409869545,419.429,0.7760000228881836,0.02443477269567974
419.896552,,0.005901178009384453,419.895,0.7860000133514404,0.04653755473511894
420.362069,,0.01284149607577452,420.362,0.7739999890327454,0.020565982532606268
420.827586,,0.01759973440252789,420.828,0.7490000128746033,-0.03387767299017818
421.293103,,0.017145307578188565,421.293,0.7609999775886536,-0.007862453725854583
421.758621,,0.011474578832720546,421.759,0.7739999890327454,0.020185085280533963
422.22413800000004,,0.004506575562676011,422.223,0.7739999890327454,0.019773340236069904
422.689655,,0.0008437895924954639,422.689,0.753000020980835,-0.02651382356192322
423.15517200000005,,0.00127959439880138,423.153,0.7739999890327454,0.018594811719066573
423.62069,,0.0022116588994405563,423.615,0.7820000052452087,0.03529453201848339
424.086207,,2.3244104899254386e-05,424.083,0.7620000243186951,-0.009071348077221368
424.55172400000004,,0.004728017665340351,424.545,0.7649999856948853,-0.0033676626150406213
425.017241,,0.007252630876568072,425.013,0.7609999775886536,-0.012928149145860693
425.482759,,0.0037364606583345744,425.475,0.7689999938011169,0.0036678253249671023
425.948276,,0.004651463528750432,425.94,0.7739999890327454,0.01376655025285896
426.413793,,0.012201223186786651,426.405,0.7310000061988831,-0.08064701603872335
426.87931000000003,,0.013728557461538922,426.871,0.7480000257492065,-0.044257437146958865
427.344828,,0.009487748364932455,427.338,0.8019999861717224,0.07284700040394951
427.810345,,0.004743554465265779,427.803,0.7580000162124634,-0.023432897205250335
428.275862,,0.004206948935109,428.268,0.7910000085830688,0.048179014739535404
428.741379,,0.007608518302102283,428.734,0.7730000019073486,0.008824303002092674
429.20689699999997,,0.011444763895575985,429.201,0.7739999890327454,0.011012342058759396
429.672414,,0.014000966369498326,429.66,0.7990000247955322,0.06563600537454665
430.137931,,0.01682733746442638,430.127,0.7699999809265137,0.0027555037743752595
430.603448,,0.021795277539598607,430.589,0.7730000019073486,0.009724679040791639
431.068966,,0.02968653919565765,431.06,0.7739999890327454,0.012454964358127813
431.534483,,0.042841939255310664,431.523,0.753000020980835,-0.032644270930413784
432.0,,0.0656265134029847,431.988,0.7739999890327454,0.013839317636822496
432.46551700000003,,0.0977156298751202,432.451,0.7490000128746033,-0.03983821961416341
432.931034,,0.12759690893621672,432.917,0.7739999890327454,0.015448461510338116
433.396552,,0.13818015770347059,433.382,0.7739999890327454,0.016275703814204893
433.862069,,0.12223619090799422,433.848,0.6169999837875366,-0.32496643781850776
434.327586,,0.09088492701990637,434.312,0.7599999904632568,-0.012663319421157115
434.79310300000003,,0.06522495259421308,434.778,0.7329999804496765,-0.07080137147484045
435.258621,,0.06018211329606495,435.246,0.7519999742507935,-0.028811059734827966
435.724138,,0.07535342954837886,435.704,0.7580000162124634,-0.01525016157911593
436.189655,,0.09696132301144156,436.172,0.7919999957084656,0.0591924160511909
436.655172,,0.1059264366103895,436.634,0.7730000019073486,0.018036551976537987
437.12068999999997,,0.08729705594139262,437.105,0.7739999890327454,0.02031672573192947
437.586207,,0.037896436305538794,437.567,0.7730000019073486,0.01809984385479981
438.051724,,0.03169760821448136,438.03,0.7749999761581421,0.02228072811344897
438.517241,,0.10283547987087169,438.5,0.7599999904632568,-0.010707761076843979
438.982759,,0.1587099371789932,438.959,0.8080000281333923,0.09343656750374077
439.448276,,0.19181154885258545,439.43,0.765999972820282,0.0013944477237045486
439.913793,,0.2044182236931679,439.889,0.7739999890327454,0.01819340811585651
440.37931000000003,,0.20316769185107014,440.36,0.7689999938011169,0.006597301016154022
440.844828,,0.19340294511892106,440.819,0.7730000019073486,0.014558138264312567
441.310345,,0.17822700394429444,441.286,0.7900000214576721,0.050814043628885905
441.775862,,0.16092001628102712,441.752,0.7519999742507935,-0.032759420143773615
442.241379,,0.14523129337035362,442.219,0.7570000290870667,-0.02263136970791971
442.70689699999997,,0.13225870525971442,442.685,0.8019999861717224,0.07468537644898372
443.172414,,0.1189103140676254,443.146,0.753000020980835,-0.03272506620725216
443.637931,,0.10133083438820506,443.609,0.7749999761581421,0.01463329102598682
444.103448,,0.07953522077856624,444.079,0.7910000085830688,0.04902214101468835
444.568966,,0.05754228235146893,444.541,0.7739999890327454,0.01163232665908546
445.03448299999997,,0.039059148917727445,445.009,0.7739999890327454,0.011406464348816302
445.5,,0.024007095546678243,445.471,0.734000027179718,-0.07583305122928956
445.965517,,0.009494426157981593,445.937,0.7739999890327454,0.011353089739397144
446.431034,,0.006546405203338617,446.402,0.7870000004768372,0.039849037461663184
446.896552,,0.023049188465527524,446.867,0.7739999890327454,0.011828589930766862
447.36206899999996,,0.0365201760057869,447.334,0.7739999890327454,0.01224930529983889
447.827586,,0.04364168985729839,447.8,0.7710000276565552,0.006239367965113219
448.29310300000003,,0.04380096664047416,448.264,0.7739999890327454,0.013389960906791535
448.758621,,0.03981631562089149,448.73,0.7609999775886536,-0.014248161624060627
449.224138,,0.03613632135976436,449.193,0.7480000257492065,-0.04183826947579404
449.689655,,0.03583296607722895,449.656,0.7519999742507935,-0.032366747384122325
450.155172,,0.038915164057138046,450.119,0.7739999890327454,0.016322670758795475
450.62068999999997,,0.043083849319625,450.589,0.7739999890327454,0.017061715085836655
451.086207,,0.045893013607249705,451.053,0.753000020980835,-0.027993178133240152
451.551724,,0.04669436950251151,451.515,0.7739999890327454,0.018391317310016676
452.017241,,0.047008756616565756,451.981,0.722000002861023,-0.09434876276544725
452.482759,,0.04865379766054548,452.444,0.7739999890327454,0.019390411043741694
452.94827599999996,,0.05117448897190464,452.91,0.7680000066757202,0.006655436636710914
453.413793,,0.05179264528593793,453.374,0.49000000953674316,-0.598798901992137
453.87931,,0.04856373800131425,453.84,0.7580000162124634,-0.01484868740984887
454.344828,,0.04307372236637751,454.304,0.7519999742507935,-0.0279829171610155
454.810345,,0.03911284006899729,454.77,0.7680000066757202,0.0066869452233502685
455.27586199999996,,0.03869144646929187,455.234,0.7760000228881836,0.02380867419025688
455.741379,,0.04001989758315641,455.7,0.7889999747276306,0.05171577098991244
456.206897,,0.03959908544795118,456.168,0.7739999890327454,0.018526885115298035
456.672414,,0.035899175561456824,456.63,0.7649999856948853,-0.0016684636009722718
457.137931,,0.030709783298501936,457.094,0.7730000019073486,0.015112768924224236
457.603448,,0.02681286388488486,457.564,0.7770000100135803,0.023139023590919638
458.06896600000005,,0.024320653493733135,458.027,0.7480000257492065,-0.04074978775779586
458.53448299999997,,0.0199323633344517,458.49,0.7730000019073486,0.013009518759563245
459.0,,0.010965292069031731,458.955,0.7730000019073486,0.012325313333838957
459.465517,,8.22117159511148e-05,459.419,0.7710000276565552,0.007327223803576994
459.931034,,0.0057754442652353695,459.884,0.781000018119812,0.02853508812156954
460.39655200000004,,0.002330626549370824,460.349,0.7990000247955322,0.06725181501701455
460.86206899999996,,0.007246241165532281,460.815,0.7599999904632568,-0.01812063712503444
461.327586,,0.015766743982574112,461.279,0.753000020980835,-0.033672327122919815
461.793103,,0.019409654362851886,461.745,0.7749999761581421,0.014067888440049518
462.258621,,0.020267660873502354,462.212,0.7590000033378601,-0.020864175302049107
462.724138,,0.022190788720464802,462.677,0.7739999890327454,0.011859226356985561
463.18965499999996,,0.0261594201665673,463.145,0.7760000228881836,0.016375617941980065
463.655172,,0.030325739053202103,463.608,0.75,-0.040000916719796956
464.12069,,0.03284358283396014,464.075,0.796999990940094,0.0627642738892837
464.58620699999994,,0.03295512474010042,464.538,0.7580000162124634,-0.021745369735591415
465.051724,,0.030077195220283553,465.008,0.753000020980835,-0.03210719184955131
465.517241,,0.024024989794433408,465.471,0.7730000019073486,0.012053905606226519
465.98275900000004,,0.016458356947221604,465.929,0.7739999890327454,0.014860078634406856
466.448276,,0.010080680245472857,466.394,0.7739999890327454,0.015508430808194749
466.913793,,0.0053674906407766895,466.86,0.753000020980835,-0.02959380478162361
467.37931,,0.00040285223210664877,467.327,0.6299999952316284,-0.29693977651846726
467.844828,,0.009558452839225523,467.792,0.7630000114440918,-0.006593704730612886
468.31034500000004,,0.020434360989703713,468.256,0.7580000162124634,-0.01695768816292569
468.77586199999996,,0.028791976708353074,468.722,0.8240000009536743,0.12729464227273934
469.241379,,0.03261194119941969,469.19,0.7739999890327454,0.018744663176904066
469.706897,,0.03414236598835846,469.653,0.7630000114440918,-0.004928087188114577
470.172414,,0.0366123318623113,470.116,0.7549999952316284,-0.022164249367888102
470.63793100000004,,0.03995364774923634,470.586,0.7490000128746033,-0.03514755964420847
471.10344799999996,,0.04119122299147225,471.046,0.777999997138977,0.02801592614537169
471.568966,,0.038745446333683,471.515,0.7580000162124634,-0.01567795866677995
472.034483,,0.03442084548194018,471.981,0.7730000019073486,0.016781878179514664
472.5,,0.030376919959895464,472.444,0.7570000290870667,-0.01838790010237169
472.965517,,0.0258054042077334,472.909,0.753000020980835,-0.02749588589499735
473.43103399999995,,0.018361329617743907,473.375,0.7730000019073486,0.015614027586767264
473.89655200000004,,0.008446994030969681,473.841,0.7490000128746033,-0.03719175064947627
474.362069,,0.00039236150676838955,474.301,0.7839999794960022,0.03850331854970245
474.827586,,0.0014012499495614924,474.766,0.7559999823570251,-0.02307878924305235
475.293103,,0.003075287807299936,475.231,0.7570000290870667,-0.021485574930853322
475.758621,,0.00951207628214649,475.696,0.7620000243186951,-0.011166770610556494
476.22413800000004,,0.013466220419814295,476.16,0.753000020980835,-0.031321312543214394
476.689655,,0.013606504055063372,476.63,0.7739999890327454,0.013927066789772177
477.155172,,0.011195298380205932,477.09,0.5130000114440918,-0.5551500791144647
477.62069,,0.008191989502258513,477.559,0.7770000100135803,0.01962521365894374
478.086207,,0.006630418107180519,478.023,0.7749999761581421,0.014957290897548074
478.55172400000004,,0.008186477001269597,478.486,0.7590000033378601,-0.02012077334619624
479.01724099999996,,0.01258190517610846,478.952,0.7879999876022339,0.042936941663732214
479.482759,,0.01685554190212114,479.419,0.765999972820282,-0.005016417048974152
479.948276,,0.01760979464075158,479.885,0.7739999890327454,0.012489657838077036
480.413793,,0.014142806926189482,480.35,0.7739999890327454,0.012663274194193571
480.87931000000003,,0.008649826136134586,480.816,0.753000020980835,-0.03282402346865509
481.344828,,0.0033953896707250844,481.276,0.7739999890327454,0.013273528951156098
481.810345,,0.0013239712562960458,481.741,0.753000020980835,-0.03206122433089483
482.275862,,0.00590466896518708,482.208,0.640999972820282,-0.2755978052525668
482.74137900000005,,0.009025220491061874,482.674,0.7549999952316284,-0.026720901459988046
483.206897,,0.007970180793725834,483.134,0.7279999852180481,-0.08500860899329607
483.672414,,0.0018321107819676656,483.604,0.7739999890327454,0.015756299801178843
484.13793100000004,,0.00642737999882624,484.064,0.7580000162124634,-0.01855885691212183
484.603448,,0.011992821430851563,484.534,0.7649999856948853,-0.002784422879578279
485.068966,,0.012330685077675646,485.005,0.7699999809265137,0.008598520194504891
485.534483,,0.009054110301429904,485.46,0.7749999761581421,0.019933620232944316
486.0,,0.005788988371575777,485.926,0.753000020980835,-0.027615222648408995
486.46551700000003,,0.004627585657870545,486.391,0.46700000762939453,-0.6504049009947187
486.931034,,0.004951613591268833,486.856,0.7710000276565552,0.012117586590618555
487.396552,,0.00531022854102241,487.323,0.7609999775886536,-0.00954628031373334
487.862069,,0.0053527805084562395,487.788,0.7649999856948853,-0.0007963027552122109
488.327586,,0.0053522698783048175,488.253,0.7720000147819519,0.014402493727605015
488.79310300000003,,0.004829740951814039,488.719,0.7580000162124634,-0.01623494246412528
489.258621,,0.0030140678544455877,489.182,0.7739999890327454,0.018407310607499807
489.724138,,0.00039888507836280125,489.645,0.7509999871253967,-0.031990436402737236
490.189655,,0.0014822815264919037,490.113,0.7620000243186951,-0.008378076976257982
490.655172,,0.0019993139802435608,490.575,0.7749999761581421,0.019538293908923414
491.12069,,0.0021881510695728325,491.045,0.7559999823570251,-0.022302677508722186
491.586207,,0.0034011739843977846,491.508,0.7739999890327454,0.01643861166781041
492.05172400000004,,0.005851718223486155,491.974,0.753000020980835,-0.029801546768210146
492.517241,,0.008455192785957504,492.437,0.7870000004768372,0.0437837618026903
492.982759,,0.009518787189273781,492.903,0.753000020980835,-0.030765190826025617
493.448276,,0.007766928641335031,493.368,0.7580000162124634,-0.020320520197532735
493.913793,,0.00347468538390562,493.834,0.7710000276565552,0.007591729642688484
494.37931000000003,,0.0011105279914264865,494.301,0.8370000123977661,0.15102346901138336
494.844828,,0.0028532293413564376,494.759,0.7609999775886536,-0.01485123690437299
495.310345,,0.00010995503093930604,495.224,0.781000018119812,0.028492541025695116
495.775862,,0.006686509883789504,495.689,0.777999997138977,0.02179992181070841
496.241379,,0.01315444320829142,496.157,0.7749999761581421,0.015183478895550984
496.70689699999997,,0.01567923324387805,496.62,0.7509999871253967,-0.03710783442826236
497.172414,,0.01321671350957324,497.09,0.8109999895095825,0.0936832391847302
497.637931,,0.008238082213102998,497.553,0.9279999732971191,0.34873405637665295
498.103448,,0.004545536345052172,498.016,0.7540000081062317,-0.03012818619795778
498.568966,,0.004318838562676957,498.486,0.7749999761581421,0.015908462517071405
499.03448299999997,,0.0070278698278789424,498.944,0.7749999761581421,0.016244450078403083
499.5,,0.010444396977534175,499.409,0.7699999809265137,0.005728106488333952
499.96551700000003,,0.012249065915927955,499.875,0.753000020980835,-0.030902775062908304
500.431034,,0.011421604641028524,500.342,0.6000000238418579,-0.36381622636942745
500.89655200000004,,0.009048512610748538,500.807,0.7590000033378601,-0.01699220879851559
501.362069,,0.007517933347698027,501.272,0.843999981880188,0.168604100814676
501.827586,,0.008222871951535156,501.738,0.7739999890327454,0.016496249854062825
502.293103,,0.0103242156743645,502.204,0.8450000286102295,0.17155446161888518
502.758621,,0.012284580027819143,502.67,0.7720000147819519,0.012853975971557572
503.224138,,0.014111068447938083,503.131,0.781000018119812,0.0327598907554203
503.68965499999996,,0.017237909305363997,503.601,0.7590000033378601,-0.014923975765688977
504.15517200000005,,0.022183503379789988,504.064,0.7710000276565552,0.011408470200834606
504.62068999999997,,0.026760002122598638,504.526,0.7570000290870667,-0.018966233773158068
505.08620699999994,,0.026811798832825775,504.992,0.765999972820282,0.0007031128477097076
505.55172400000004,,0.01916510302247675,505.456,0.7590000033378601,-0.014551177003197214
506.017241,,0.004637324369109353,505.922,0.7760000228881836,0.022418015056925696
506.48275899999993,,0.01167313069839385,506.387,0.7689999938011169,0.007038638307761789
506.948276,,0.023567340229194208,506.853,0.765999972820282,0.0003173685812312691
507.413793,,0.02747291813523206,507.319,0.7459999918937683,-0.04349219552243498
507.87931,,0.023288173330929855,507.785,0.7630000114440918,-0.006736525513606361
508.344828,,0.012758791879016108,508.249,0.7549999952316284,-0.024483717491159428
508.810345,,0.0015863976349695132,508.715,0.7739999890327454,0.016565428197786346
509.27586199999996,,0.01605151205079622,509.175,0.7480000257492065,-0.04044215097757081
509.74137900000005,,0.025974875600756234,509.645,0.7250000238418579,-0.09092267170725365
510.20689699999997,,0.027879339736834242,510.108,0.781000018119812,0.030710934443175505
510.67241399999995,,0.022154543835991507,510.571,0.7760000228881836,0.019459185519654084
511.13793100000004,,0.013680229370933807,511.034,0.7739999890327454,0.014765676652460445
511.603448,,0.009277941293142508,511.505,0.7910000085830688,0.05149770746521759
512.0689659999999,,0.013468232251719312,511.97,0.7749999761581421,0.016373162271975793
512.534483,,0.025310039563591114,512.434,0.7580000162124634,-0.020885114574469316
513.0,,0.03812523507354744,512.899,0.7739999890327454,0.013801120223971897
513.465517,,0.042477374723779965,513.365,0.7739999890327454,0.013682294242168254
513.931034,,0.031965178814828465,513.83,0.75,-0.03866865384238815
514.396552,,0.009136848445290537,514.294,0.7570000290870667,-0.023425906491987752
514.862069,,0.0142222608268995,514.76,0.8949999809265137,0.2772770918444106
515.327586,,0.025577593184269255,515.219,0.7739999890327454,0.013768392509732223
515.793103,,0.022422803363365655,515.685,0.7609999775886536,-0.014393753666681344
516.258621,,0.013942790310092011,516.153,0.753000020980835,-0.031617977074998124
516.724138,,0.011545833461102294,516.615,0.7609999775886536,-0.013945890994904038
517.189655,,0.019030530239867435,517.083,0.7699999809265137,0.005936498084624615
517.655172,,0.031822883596711427,517.545,0.7739999890327454,0.01495023944501608
518.1206900000001,,0.042758013816015315,518.013,0.7739999890327454,0.01526626917627442
518.5862070000001,,0.04702986022420897,518.475,0.9850000143051147,0.4752899627308248
519.051724,,0.044047470645319775,518.941,0.7950000166893005,0.06168359089187974
519.517241,,0.03714288790145022,519.409,1.0820000171661377,0.6872944425086545
519.982759,,0.030765371097750564,519.874,0.7739999890327454,0.01660263401104773
520.448276,,0.026510957518465286,520.334,0.7549999952316284,-0.024481628836866564
520.9137929999999,,0.022635665719340944,520.8,0.7739999890327454,0.017185677593323928
521.37931,,0.017998477887108413,521.267,0.781000018119812,0.03266503308991651
521.844828,,0.014236938266149092,521.733,0.7549999952316284,-0.02380154746316501
522.310345,,0.012090430397872177,522.205,0.7570000290870667,-0.019321798979565163
522.7758620000001,,0.007727111462896063,522.663,0.7490000128746033,-0.036688266221007626
523.241379,,0.0034554006329513345,523.131,0.7490000128746033,-0.036686661301410385
523.7068969999999,,0.019163198390925368,523.593,0.7950000166893005,0.06347292184946804
524.172414,,0.029802844938308978,524.056,0.75,-0.0346813289953736
524.637931,,0.028192777237442644,524.519,0.7730000019073486,0.01525943456130099
525.103448,,0.01854365169014199,524.985,0.7739999890327454,0.01722217892456247
525.568966,,0.012939357469784498,525.455,0.7739999890327454,0.016965827662437413
526.034483,,0.017375222352551383,525.921,0.753000020980835,-0.029075082098478533
526.5,,0.022354978013340306,526.386,0.7490000128746033,-0.03810416810482969
526.9655170000001,,0.010024513692764699,526.844,0.7620000243186951,-0.010112210773400854
527.4310340000001,,0.027595300792492075,527.316,0.7749999761581421,0.01787402184924427
527.8965519999999,,0.0780579216429499,527.774,0.7739999890327454,0.015364272364214542
528.362069,,0.11728445370372007,528.241,0.7480000257492065,-0.041597360878341066
528.827586,,0.12889578879389033,528.707,0.7820000052452087,0.0321828571681484
529.293103,,0.11527863015149623,529.175,0.7739999890327454,0.01449179596064568
529.7586210000001,,0.09190320075190202,529.637,0.7540000081062317,-0.029303742872000254
530.224138,,0.07273470728900781,530.105,0.7570000290870667,-0.022945881457232694
530.689655,,0.06038162678069093,530.567,0.7609999775886536,-0.01436052435564886
531.155172,,0.04803631424177444,531.035,0.7609999775886536,-0.014437165177956852
531.62069,,0.0290701410718508,531.497,0.7870000004768372,0.04218590582662447
532.086207,,0.0038298231471918355,531.962,0.7739999890327454,0.01389721598983751
532.5517239999999,,0.02231020117592934,532.429,0.7739999890327454,0.013985108775369662
533.017241,,0.04519017241882508,532.895,0.7749999761581421,0.016302419274006687
533.482759,,0.06421698175045548,533.36,0.765999972820282,-0.00312063293767049
533.9482760000001,,0.07932478621714464,533.825,0.7590000033378601,-0.01814651137242306
534.413793,,0.0882085183973827,534.29,0.7749999761581421,0.016969138177438538
534.87931,,0.08813417574380764,534.749,0.7739999890327454,0.015073189686976109
535.344828,,0.07988432827216363,535.216,0.7829999923706055,0.03498101901538624
535.810345,,0.06849249875180798,535.682,0.7689999938011169,0.004788369500945262
536.275862,,0.05952600842308259,536.145,0.7599999904632568,-0.014512182632691972
536.7413789999999,,0.054937703856977535,536.615,0.7620000243186951,-0.00985815568200204
537.206897,,0.05256687410810609,537.079,0.7739999890327454,0.01656317605482265
537.672414,,0.049239880769782314,537.541,0.7599999904632568,-0.013686972086439837
538.137931,,0.0442400817238189,538.009,0.7559999823570251,-0.022184702846581188
538.6034480000001,,0.03994674130142337,538.472,0.7720000147819519,0.012850552471381942
539.0689659999999,,0.03898596082568585,538.937,0.7739999890327454,0.017340389634180654
539.5344829999999,,0.040770455418611386,539.404,0.7739999890327454,0.017425813176824376
540.0,,0.04145663695410253,539.87,0.7519999742507935,-0.03046857521351321
540.465517,,0.037603774704629535,540.335,0.7450000047683716,-0.04573407427717539
540.931034,,0.02926150455569791,540.8,0.765999972820282,-4.775208094571267e-05
541.396552,,0.019253349861642528,541.261,0.753000020980835,-0.028482657852832743
541.862069,,0.010429851466639661,541.726,0.7739999890327454,0.01711314895269285
542.327586,,0.004313710183298356,542.19,0.7749999761581421,0.01909844037931438
542.7931030000001,,0.0015487023786904123,542.66,0.7099999785423279,-0.1227393696737834
543.258621,,0.002230900955780705,543.123,0.7739999890327454,0.016442035236697274
543.7241379999999,,0.005248138978200238,543.586,0.7570000290870667,-0.02086510469626774
544.189655,,0.007803365328661603,544.049,0.7710000276565552,0.00935671370635308
544.655172,,0.0066300050999546275,544.519,0.7559999823570251,-0.023603267284791195
545.12069,,0.0005230594168353208,544.985,0.7820000052452087,0.03276901884249646
545.5862070000001,,0.008366099157346134,545.448,0.753000020980835,-0.030668917256135044
546.051724,,0.016328438961746322,545.914,0.7739999890327454,0.014848082526429614
546.517241,,0.021216312756542344,546.379,0.777999997138977,0.02335754608380755
546.982759,,0.023312368720981785,546.845,0.7570000290870667,-0.022564049096691262
547.448276,,0.02350964278382296,547.304,0.7739999890327454,0.014342038246940952
547.9137929999999,,0.022027816662951245,547.77,0.7590000033378601,-0.01842616700317968
548.3793099999999,,0.019380089339180485,548.238,0.7490000128746033,-0.04025724600442476
548.844828,,0.01716795417181917,548.704,0.7739999890327454,0.014208695223780134
549.310345,,0.016498669438341284,549.168,0.7570000290870667,-0.022784304662941856
549.775862,,0.016172648744982067,549.63,0.7789999842643738,0.025232385094640944
550.241379,,0.013952480198904531,550.097,0.5630000233650208,-0.44523331161948
550.706897,,0.009714514080021748,550.56,0.7739999890327454,0.01461233164607555
551.172414,,0.00597176116448873,551.027,0.7739999890327454,0.014790685940680361
551.637931,,0.00474146080561475,551.49,0.7120000123977661,-0.12008187785270667
552.103448,,0.005102975539549238,551.955,0.7609999775886536,-0.01310638999596669
552.568966,,0.004873571059682695,552.419,0.7570000290870667,-0.02158659190661477
553.034483,,0.0038223813443815473,552.885,0.8059999942779541,0.08540918772604741
553.5,,0.003724347969017432,553.349,0.8510000109672546,0.1836941843796097
553.965517,,0.005469407173855697,553.815,0.7789999842643738,0.02707524795474257
554.4310340000001,,0.007780002462129339,554.279,0.7760000228881836,0.020772575082053
554.896552,,0.009296585032354471,554.744,0.7739999890327454,0.016629570816769274
555.3620689999999,,0.010539856318222279,555.209,0.753000020980835,-0.028933103613310113
555.827586,,0.01271415371704567,555.675,0.7580000162124634,-0.017882587947486706
556.293103,,0.015361690811001914,556.145,0.753000020980835,-0.02865493070762769
556.758621,,0.016574553108141946,556.608,0.7860000133514404,0.043322098669935784
557.224138,,0.015536518515483466,557.076,0.7739999890327454,0.017219245077801985
557.689655,,0.01375915500537001,557.538,0.746999979019165,-0.041605413931077036
558.155172,,0.01334630153519299,558.009,0.7739999890327454,0.017174265273163188
558.6206900000001,,0.01473035632630557,558.471,0.753000020980835,-0.028662528411188864
559.0862070000001,,0.01670339185990216,558.929,0.753000020980835,-0.02878691018207318
559.5517239999999,,0.018233393005720227,559.394,0.7620000243186951,-0.009339198917021342
560.017241,,0.019506587003865903,559.86,0.7760000228881836,0.020971249372518437
560.482759,,0.021154950234908113,560.327,0.7940000295639038,0.0599723723393662
560.948276,,0.022967218517658268,560.793,0.765999972820282,-0.0012618554202646717
561.413793,,0.023718873417730185,561.26,0.7760000228881836,0.020281579458171547
561.87931,,0.02234908404585547,561.726,0.7490000128746033,-0.038790113153379296
562.344828,,0.019219589190934472,562.186,0.7739999890327454,0.015429649132941977
562.8103450000001,,0.016005935088345285,562.649,0.7490000128746033,-0.03927424777316108
563.275862,,0.014270159389356734,563.119,0.5759999752044678,-0.4164065846621711
563.7413789999999,,0.014273930605579912,563.582,0.7820000052452087,0.03218456282652117
564.206897,,0.015064007082523359,564.045,0.7480000257492065,-0.04207466371953699
564.672414,,0.015255878310131678,564.515,0.7739999890327454,0.014419195582181762
565.137931,,0.013721154237992606,564.974,0.7739999890327454,0.014307585597005887
565.603448,,0.010167554652571402,565.444,0.7839999794960022,0.03602602290613875
566.068966,,0.005463109765769787,565.909,0.7549999952316284,-0.02717714407782854
566.534483,,0.0010912193798304852,566.371,0.7739999890327454,0.014240793281956089
567.0,,0.002099779309087042,566.837,0.7239999771118164,-0.09462336992223629
567.465517,,0.0045754335304584335,567.301,0.7540000081062317,-0.029153584488484718
567.931034,,0.007341956753776675,567.767,0.7480000257492065,-0.04207627264335234
568.396552,,0.010469812162502663,568.231,0.7749999761581421,0.016931881026484737
568.862069,,0.012618926701862399,568.697,0.7490000128746033,-0.039497491701040444
569.327586,,0.012334300518381226,569.16,0.777999997138977,0.023923270280580333
569.793103,,0.00980013343127902,569.63,0.7509999871253967,-0.03464268300786985
570.2586210000001,,0.006891991463725141,570.09,0.7739999890327454,0.015733861420613626
570.724138,,0.005275129144852247,570.561,0.7739999890327454,0.016003897843992355
571.189655,,0.004888583083534155,571.024,0.7559999823570251,-0.02294732024322816
571.655172,,0.004684481851648469,571.486,0.7749999761581421,0.01869763364100799
572.12069,,0.004285174064290506,571.952,0.7620000243186951,-0.009395415099308224
572.586207,,0.004081141276090693,572.419,0.7799999713897705,0.03002125563857148
573.051724,,0.004040767035927383,572.884,0.7329999804496765,-0.07220903674925569
573.517241,,0.003539118059017559,573.349,0.7919999957084656,0.05645703007063875
573.982759,,0.002483721733187318,573.815,0.7580000162124634,-0.01753512289643919
574.4482760000001,,0.0016710856402327612,574.278,0.765999972820282,-7.080704040480883e-05
574.913793,,0.0017178261766142354,574.744,0.7820000052452087,0.03477475587546618
575.37931,,0.002389373586962932,575.208,0.7649999856948853,-0.0023228870172548907
575.844828,,0.0033996244438191893,575.674,0.777999997138977,0.025892684523684505
576.310345,,0.0052047679103339834,576.134,0.796999990940094,0.06713712576040126
576.775862,,0.008300462371765243,576.604,0.746999979019165,-0.04198410471402305
577.241379,,0.012088930014743935,577.068,0.7749999761581421,0.018794755950048092
577.706897,,0.015274581393189659,577.53,0.7369999885559082,-0.0642459962390664
578.172414,,0.017332715628114004,577.996,0.777999997138977,0.024804920100463868
578.6379310000001,,0.018642227900463257,578.462,0.7739999890327454,0.015803772708185216
579.1034480000001,,0.018837693991798014,578.927,0.7490000128746033,-0.038953086612702144
579.5689659999999,,0.01648921148011665,579.394,0.7549999952316284,-0.026168239476352745
580.034483,,0.012592284399165071,579.86,0.8019999861717224,0.07595425428077884
580.5,,0.014136280241321693,580.319,0.7739999890327454,0.014700826945232169
580.965517,,0.030205499107118245,580.785,0.753000020980835,-0.03127206134384452
581.431034,,0.060689853856443425,581.253,0.7509999871253967,-0.03581527809829346
581.896552,,0.09001605926958176,581.719,0.7739999890327454,0.014149160899837913
582.362069,,0.09656704788648933,582.182,0.7549999952316284,-0.027343111672733674
582.827586,,0.07061387309718972,582.645,0.7730000019073486,0.011824622019165005
583.2931030000001,,0.022546626660381586,583.113,0.7889999747276306,0.046687490319855224
583.758621,,0.025918959086392888,583.575,0.75,-0.038222196960980115
584.2241379999999,,0.05705563061982377,584.045,0.7739999890327454,0.014173976047713454
584.689655,,0.06509900381456978,584.508,0.7310000061988831,-0.07935172794536514
585.155172,,0.05356811279132219,584.973,0.7559999823570251,-0.024686784430654737
585.6206900000001,,0.028440268465391674,585.436,0.7730000019073486,0.012586532247254825
586.0862070000001,,0.005051752075648534,585.902,0.7590000033378601,-0.01764672391009757
586.551724,,0.04010809660346514,586.367,0.7799999713897705,0.028396714806138888
587.017241,,0.06609293050650741,586.833,0.7749999761581421,0.017811285279279526
587.482759,,0.07255597697017652,587.298,0.6629999876022339,-0.22588467335397233
587.948276,,0.057314022679972994,587.764,0.7609999775886536,-0.012071178369696692
588.4137929999999,,0.02961800132093511,588.23,0.7580000162124634,-0.018315572686611405
588.87931,,0.004239768485526773,588.689,0.7369999885559082,-0.06379758276426324
589.344828,,0.008177296244972506,589.158,0.7749999761581421,0.01923072690433967
589.810345,,0.006586291990282668,589.62,0.7739999890327454,0.017255491088039112
590.2758620000001,,0.0026911671970855345,590.091,0.7739999890327454,0.01741699168502435
590.741379,,0.013419133453250486,590.553,0.7570000290870667,-0.01950580836890088
591.2068969999999,,0.024864329460055606,591.016,0.7739999890327454,0.017593821065234872
591.672414,,0.03901727004521057,591.486,0.7549999952316284,-0.02379165738807575
592.137931,,0.05297805536948838,591.944,0.753000020980835,-0.028195090197330026
592.603448,,0.057305888135369284,592.409,0.7559999823570251,-0.021759968139207116
593.068966,,0.044302851422922306,592.875,0.7739999890327454,0.01730334477060692
593.534483,,0.016682486113156543,593.342,0.7760000228881836,0.021461497077117694
594.0,,0.014184695878495178,593.808,0.6340000033378601,-0.28814957241031347
594.4655170000001,,0.03845215129548692,594.275,0.7739999890327454,0.016579040106646473
594.9310340000001,,0.05496991251239198,594.74,0.7490000128746033,-0.03819848292433051
595.3965519999999,,0.06872095071669818,595.205,0.7450000047683716,-0.04724272137101382
595.862069,,0.08280892840727501,595.67,0.734000027179718,-0.07154669872674949
596.327586,,0.09408925393448081,596.131,0.7490000128746033,-0.03920511733152789
596.793103,,0.09669359140619244,596.601,0.7730000019073486,0.012756188625987215
597.2586210000001,,0.08901655872784695,597.064,0.753000020980835,-0.031120290522219696
597.724138,,0.07612855088120316,597.526,0.765999972820282,-0.0030694229007984233
598.189655,,0.06509435012263733,597.992,0.7739999890327454,0.01412915706060615
598.655172,,0.05895991399027147,598.456,0.7739999890327454,0.013947154910906489
599.12069,,0.055947769845756924,598.922,0.7570000290870667,-0.023217493195977944
599.586207,,0.053285794638080974,599.387,0.7580000162124634,-0.021108696559502843
600.0517239999999,,0.05022140493838433,599.852,0.7680000066757202,0.000668178158730867
600.517241,,0.04772690111775741,600.319,0.8450000286102295,0.16847730531383434
600.982759,,0.047051845323535325,600.785,0.7689999938011169,0.003015972798862942
601.448276,,0.049044683337968235,601.25,0.7839999794960022,0.035870288370154324
601.913793,,0.05362360894887987,601.715,0.753000020980835,-0.031441270645748885
602.37931,,0.05897178551807075,602.178,0.7739999890327454,0.014581317403989191
602.844828,,0.0616656042493637,602.64,0.7739999890327454,0.01488887251862744
603.310345,,0.058306394487312646,603.108,0.746999979019165,-0.04360007080205362
603.775862,,0.04741337886348419,603.571,0.7580000162124634,-0.019284210547089762
604.2413789999999,,0.030312341488117726,604.039,0.7609999775886536,-0.012392432023228492
604.706897,,0.010672344861653145,604.5,0.7910000085830688,0.05331830179675573
605.172414,,0.007349557568079174,604.966,0.7739999890327454,0.016617777909364702
605.637931,,0.021391377676665407,605.43,0.7739999890327454,0.016929251602836894
606.1034480000001,,0.03134480272897401,605.896,0.6579999923706055,-0.23551979933142397
606.5689659999999,,0.03743291789600574,606.36,0.7739999890327454,0.01742988307344219
607.0344829999999,,0.038902662652396315,606.826,0.7739999890327454,0.017603618012014214
607.5,,0.035868687598374055,607.291,0.7429999709129333,-0.04981716081436474
607.965517,,0.031777559656117366,607.756,0.7710000276565552,0.011241962112695954
608.431034,,0.031864872468061196,608.223,0.7739999890327454,0.017772870246397933
608.896552,,0.03821811109268313,608.689,0.7739999890327454,0.017706914433553003
609.362069,,0.047484383790258586,609.152,0.7760000228881836,0.021939396185608157
609.827586,,0.05438588914604832,609.615,0.7730000019073486,0.015223334773450474
610.293103,,0.056832396425337495,610.084,0.7580000162124634,-0.01768658062918006
610.758621,,0.056819620224483294,610.547,0.7739999890327454,0.016897988475928112
611.2241379999999,,0.056900099774052755,611.009,0.7739999890327454,0.016589226331775033
611.689655,,0.05696623704343577,611.478,0.7009999752044678,-0.1427877337637656
612.155172,,0.05494019998887598,611.944,0.777999997138977,0.024614847588594165
612.62069,,0.05005631418911819,612.409,0.6370000243186951,-0.2829363772520692
613.0862070000001,,0.04451981819126085,612.875,0.7570000290870667,-0.021858950807677226
613.551724,,0.041451337237159845,613.335,0.7749999761581421,0.017010792240766636
614.017241,,0.04158672228817121,613.8,0.7580000162124634,-0.020343862205235194
614.4827590000001,,0.042637682704746147,614.265,0.753000020980835,-0.03151707029988265
614.948276,,0.04179181202209652,614.73,0.7760000228881836,0.018358395303674675
615.4137929999999,,0.03820405479746103,615.204,0.7799999713897705,0.026894161277342912
615.8793099999999,,0.03307366965761373,615.663,0.7590000033378601,-0.018975488885601157
616.344828,,0.028180182866360138,616.131,0.7739999890327454,0.013650121135722284
616.810345,,0.02478714996029889,616.593,0.7570000290870667,-0.02337530736243364
617.275862,,0.023189310113796033,617.057,0.7749999761581421,0.015917110418230167
617.741379,,0.022517656262125048,617.519,0.7400000095367432,-0.060195987253515576
618.206897,,0.02146985084664647,617.985,0.6869999766349792,-0.17546844643984152
618.672414,,0.01992899923007872,618.455,0.7570000290870667,-0.02271770450186984
619.137931,,0.018941521599715256,618.921,0.7789999842643738,0.025501423196105478
619.603448,,0.017828747835741343,619.386,0.7739999890327454,0.014934149628626419
620.068966,,0.012718495456159145,619.844,0.7760000228881836,0.019644790390979973
620.534483,,0.0008156944042990361,620.316,0.7950000166893005,0.06140913498192043
621.0,,0.014282519469999951,620.774,0.6169999837875366,-0.3260177830904104
621.465517,,0.024889423993917834,621.239,0.753000020980835,-0.029361310075065393
621.9310340000001,,0.027331345914880723,621.705,0.7720000147819519,0.01237152600341439
622.396552,,0.025006314655349193,622.175,0.7599999904632568,-0.013462716462911356
622.862069,,0.023153875810486616,622.637,0.7739999890327454,0.017309720717225027
623.327586,,0.02341269801508511,623.105,0.7799999713897705,0.030606709729913726
623.793103,,0.024231689766134233,623.567,0.7749999761581421,0.01988575984271459
624.258621,,0.024242605356882434,624.035,0.7739999890327454,0.017821021112895907
624.724138,,0.023653448358485377,624.497,0.7699999809265137,0.009157949497326975
625.189655,,0.023205261490250182,624.963,0.765999972820282,0.0004304325278779693
625.655172,,0.023086621328134056,625.429,0.5839999914169312,-0.39616456784048354
626.1206900000001,,0.02301051547903118,625.895,0.765999972820282,0.00019949025041642878
626.5862070000001,,0.022769003521588425,626.354,0.777999997138977,0.02613229427170775
627.0517239999999,,0.022419188093248128,626.819,0.7749999761581421,0.019334622639534844
627.5172409999999,,0.0220957034867809,627.286,0.7739999890327454,0.016851862123541613
627.982759,,0.021838433393204196,627.752,0.7599999904632568,-0.013986820298861575
628.448276,,0.021588952216828362,628.219,0.7720000147819519,0.011796020406906733
628.913793,,0.021269413360043943,628.685,0.7609999775886536,-0.012542554103196572
629.37931,,0.02086948027947765,629.145,0.7620000243186951,-0.010738223051801742
629.844828,,0.02049245073975374,629.616,0.7879999876022339,0.04554288552423261
630.3103450000001,,0.020259073316207063,630.079,0.7620000243186951,-0.011443234756119457
630.7758620000001,,0.02008609742702727,630.541,0.7739999890327454,0.014391697885057203
631.2413789999999,,0.019665886846157495,631.005,0.7570000290870667,-0.022912434176253386
631.706897,,0.018914625674037205,631.475,0.765999972820282,-0.003522403461356619
632.172414,,0.018398507090102992,631.94,0.7689999938011169,0.0028520916150889973
632.637931,,0.01875870712348598,632.401,0.7620000243186951,-0.012498637007742099
633.103448,,0.019327266091158955,632.867,0.7730000019073486,0.011430485217943402
633.568966,,0.017993444229195413,633.334,0.781000018119812,0.028889517653730136
634.034483,,0.01353625846105833,633.8,0.7730000019073486,0.011555260092405713
634.5,,0.007805707235029544,634.26,0.8169999718666077,0.10757359716771418
634.9655170000001,,0.004167994135076901,634.725,0.7730000019073486,0.011929528868894285
635.431034,,0.003654367039551072,635.194,0.7519999742507935,-0.033555137286227485
635.8965519999999,,0.003994120778151001,635.657,0.7580000162124634,-0.020175371402941324
636.362069,,0.0026409397472269636,636.119,0.765999972820282,-0.00240732482888052
636.827586,,0.0006184137901771524,636.589,0.7739999890327454,0.015382101828058459
637.293103,,0.004403816197958713,637.053,0.746999979019165,-0.043071158769645054
637.7586210000001,,0.007748541750244201,637.515,0.7730000019073486,0.01394240243112364
638.224138,,0.01051629960896675,637.981,0.7739999890327454,0.016477193677786106
638.689655,,0.012460785586172585,638.444,0.7789999842643738,0.02770387619959583
639.155172,,0.012825034974712168,638.91,0.7580000162124634,-0.017747325676808434
639.62069,,0.011137018761585526,639.374,0.7739999890327454,0.017368739744474303
640.086207,,0.008213759016720935,639.841,0.7580000162124634,-0.017282393928237345
640.551724,,0.006119983141426672,640.306,0.7620000243186951,-0.008417603269391258
641.017241,,0.006696192701862889,640.771,0.7739999890327454,0.017814861215100602
641.482759,,0.009663161439651183,641.238,0.7820000052452087,0.03526950613557154
641.9482760000001,,0.012330750876756922,641.704,0.7739999890327454,0.017802084610717212
642.413793,,0.011957717469035034,642.164,0.777999997138977,0.026416105455821594
642.87931,,0.008796639274217961,642.633,0.7400000095367432,-0.05653307197239805
643.344828,,0.00623980649328954,643.094,0.7739999890327454,0.01732477903354106
643.810345,,0.007346844390578509,643.563,0.7590000033378601,-0.0156197484283022
644.275862,,0.011585183084109718,644.027,0.7760000228881836,0.021112479235064128
644.7413789999999,,0.015557109796522995,644.49,0.8379999995231628,0.15585474127504034
645.206897,,0.01649557438714422,644.955,0.7699999809265137,0.007355151444706981
645.672414,,0.014497755788335308,645.419,0.7749999761581421,0.017888936668613253
646.1379310000001,,0.01220079958388446,645.885,0.7739999890327454,0.015352600248339477
646.6034480000001,,0.013381214903501555,646.35,0.7490000128746033,-0.03945915939879787
647.0689659999999,,0.02093219045740566,646.816,0.7699999809265137,0.005968832765690646
647.534483,,0.0341007073365545,647.282,0.7559999823570251,-0.02482398462054466
648.0,,0.04735148260789361,647.748,0.7760000228881836,0.01849826247493538
648.465517,,0.05350986914579889,648.213,0.7739999890327454,0.01393900261703119
648.931034,,0.04911995855689832,648.679,0.7860000133514404,0.039936512133588675
649.396552,,0.03669986769268533,649.141,0.8389999866485596,0.15531986529048653
649.862069,,0.02192919109263742,649.604,0.7609999775886536,-0.014635252255769542
650.327586,,0.009077864094136424,650.075,0.7739999890327454,0.013730035956690161
650.7931030000001,,0.0011896821359301392,650.537,0.7490000128746033,-0.04063300277036995
651.258621,,0.0105127067957272,651.008,0.753000020980835,-0.031758877673565805
651.7241379999999,,0.019871892275252094,651.471,0.7739999890327454,0.014203651648681887
652.189655,,0.027896715311225367,651.929,0.781000018119812,0.029711169419381636
652.655172,,0.032117073967609204,652.394,0.777999997138977,0.02347076130406533
653.12069,,0.03176026957555468,652.86,0.7369999885559082,-0.06552939086848374
653.5862070000001,,0.028813041638658745,653.327,0.7739999890327454,0.015423249585697277
654.051724,,0.02608456301030105,653.793,0.7519999742507935,-0.032156471446835054
654.517241,,0.02468407967133238,654.257,0.7480000257492065,-0.040523138337082126
654.982759,,0.023788607024446635,654.722,0.7609999775886536,-0.01186648513035744
655.448276,,0.022475111833720193,655.19,0.7739999890327454,0.016767516296416256
655.9137929999999,,0.021202523738666428,655.653,0.7739999890327454,0.017047790362182475
656.37931,,0.021469297167964127,656.116,0.7559999823570251,-0.021927246364524856
656.844828,,0.024111500390704033,656.586,0.7670000195503235,0.0022315113277741037
657.310345,,0.02789687237459555,657.046,0.7739999890327454,0.017622983535000584
657.7758620000001,,0.03020786224535789,657.509,0.7570000290870667,-0.019329395446433435
658.241379,,0.029687531885908513,657.975,0.7720000147819519,0.013375895448815428
658.7068969999999,,0.027785285275157445,658.445,0.7590000033378601,-0.014980545074457084
659.172414,,0.026700650871418898,658.911,0.7739999890327454,0.01760691027459186
659.637931,,0.02606672688573005,659.376,0.7770000100135803,0.02399568874560964
660.103448,,0.023219785904497726,659.834,0.7990000247955322,0.07172918521067558
660.568966,,0.017381636709177018,660.301,0.7739999890327454,0.01702284714474823
661.034483,,0.012104354466409593,660.767,0.7580000162124634,-0.018112338023720816
661.5,,0.011799979908916828,661.232,0.753000020980835,-0.02931215639337386
661.965517,,0.016130549012308575,661.697,0.7760000228881836,0.020469552176212723
662.4310340000001,,0.0195537480524706,662.16,0.7670000195503235,0.0005241722114881801
662.8965519999999,,0.01691357618985809,662.629,0.7889999747276306,0.04811706210751613
663.362069,,0.00835550697804683,663.09,0.7540000081062317,-0.028462661993650707
663.827586,,0.0017714707650594438,663.56,0.7730000019073486,0.01262391754474916
664.293103,,0.009998665337060345,664.023,0.7739999890327454,0.01452326188722422
664.7586210000001,,0.01718757075858119,664.486,0.7739999890327454,0.014281042189716014
665.224138,,0.027192197061404647,664.952,0.7570000290870667,-0.022954292323175352
665.689655,,0.041911450141055566,665.415,0.7509999871253967,-0.03617581012293175
666.155172,,0.05733166763155328,665.881,0.7879999876022339,0.044338016618688234
666.62069,,0.06537494937893991,666.345,0.7580000162124634,-0.02106078563855391
667.086207,,0.060964663215243166,666.811,0.7739999890327454,0.013815909852987624
667.5517239999999,,0.04705017004465376,667.278,0.777999997138977,0.02260612381303181
668.017241,,0.031654688561286684,667.744,0.765999972820282,-0.003406993612908725
668.482759,,0.02029185187494823,668.209,0.6660000085830688,-0.2210921894389651
668.948276,,0.012467708624152377,668.675,0.7590000033378601,-0.018256812776962412
669.413793,,0.005387118071365701,669.138,0.7580000162124634,-0.020177912466638324
669.87931,,0.0008254531675030036,669.6,0.7599999904632568,-0.015532329251003344
