Trial: ,0
Threshold: ,0.0
Maximum EMG: ,0.2805478884304533
Success: ,True

EMG Time,Raw EMG,Filtered EMG,Force Time,Raw Force (V),Filtered Force (N)
0.0,samples,4.9157605013126227e-14,0.469,0.47600001096725464,-2.5611475144884084
0.46551699999999996,time,1.2179681686787058e-13,0.935,0.46399998664855957,-2.5869876243838044
0.9310339999999999,value,1.9713903414979935e-13,1.395,0.4790000021457672,-2.5540688688352806
1.396552,,2.7503245939759504e-13,1.864,0.45100000500679016,-2.614904766888787
1.862069,,3.5530964640272e-13,2.329,0.46399998664855957,-2.5864948556509186
2.327586,,4.377874211873994e-13,2.794,0.4790000021457672,-2.5538091712325177
2.793103,,5.222668556265414e-13,3.26,0.4580000042915344,-2.5996366098049797
3.258621,,6.085332960811748e-13,3.725,0.46399998664855957,-2.5867206596319985
3.724138,,6.963564493171652e-13,4.191,0.46399998664855957,-2.5869522969705976
4.189654999999999,,7.854905278769911e-13,4.653,0.4740000069141388,-2.5654658967329382
4.655172,,8.75674456954081e-13,5.116,0.46399998664855957,-2.5876117757327024
5.12069,,9.6663214468852e-13,5.584,0.46799999475479126,-2.5793048296303556
5.586207,,1.0580728176597583e-12,6.047,0.45899999141693115,-2.5993563309761427
6.051723999999999,,1.149691423196264e-12,6.517,0.47200000286102295,-2.5714997858793196
6.517241,,1.241169099953872e-12,6.979,0.46700000762939453,-2.58286649479268
6.982759,,1.3321737180339678e-12,7.445,0.46700000762939453,-2.5833326770127414
7.448276,,1.4223604897196738e-12,7.905,0.45100000500679016,-2.6186357337930533
7.913793000000001,,1.5113726517030857e-12,8.37,0.46399998664855957,-2.5907228150451758
8.379309999999998,,1.5988422194594943e-12,8.836,0.46700000762939453,-2.5845478832604196
8.844828000000001,,1.6843908141957216e-12,9.302,0.46399998664855957,-2.59138467308026
9.310345,,1.7676305625594715e-12,9.768,0.46700000762939453,-2.585079498373549
9.775862,,1.848165069045337e-12,10.234,0.460999995470047,-2.598304752171052
10.241379,,1.9255904607712147e-12,10.702,0.47699999809265137,-2.5635168987852994
10.706897,,1.9994965040268563e-12,11.164,0.48100000619888306,-2.554786870574632
11.172414,,2.069467791714635e-12,11.631,0.4819999933242798,-2.5525065126009627
11.637931,,2.135085000511928e-12,12.094,0.46399998664855957,-2.5915372102810976
12.103447999999998,,2.1959262162854614e-12,12.557,0.45500001311302185,-2.610883024486542
12.568966000000001,,2.251568325981228e-12,13.02,0.4690000116825104,-2.580051319654278
13.034483,,2.3015884738999508e-12,13.485,0.46399998664855957,-2.5905551730634735
13.5,,2.3455655799482986e-12,13.955,0.46700000762939453,-2.5835827308316714
13.965517,,2.3830819171311155e-12,14.421,0.4699999988079071,-2.5765767544886478
14.431034,,2.4137247452206573e-12,14.887,0.46000000834465027,-2.5978741830731935
14.896552,,2.437087997206282e-12,15.345,0.4880000054836273,-2.5363790076999555
15.362069,,2.4527740147932364e-12,15.81,0.4860000014305115,-2.5402539654563725
15.827586000000002,,2.4603953288832107e-12,16.276,0.47200000286102295,-2.570298363913618
16.293103,,2.459576480633347e-12,16.742,0.46399998664855957,-2.587311765186992
16.758621,,2.449955878355588e-12,17.208,0.43799999356269836,-2.643595988249233
17.224138,,2.431187685185895e-12,17.676,0.47600001096725464,-2.5605138206796263
17.689655,,2.4029437321242004e-12,18.138,0.46700000762939453,-2.5799041278400874
18.155172,,2.3649154507223684e-12,18.605,0.47699999809265137,-2.5579826149981333
18.62069,,2.316815819380248e-12,19.068,0.47600001096725464,-2.5601131068574676
19.086207,,2.2583813169005607e-12,19.531,0.4699999988079071,-2.573225677499411
19.551724,,2.189373876653277e-12,20.001,0.4620000123977661,-2.5907838013909843
20.017241000000002,,2.109582834410797e-12,20.46,0.47999998927116394,-2.5517818801243455
20.482758999999998,,2.0188268626381505e-12,20.931,0.46399998664855957,-2.586932214055302
20.948276,,1.9169558837590627e-12,21.396,0.46299999952316284,-2.589472499684682
21.413793000000002,,1.8038529546706678e-12,21.86,0.46299999952316284,-2.5898932129827865
21.87931,,1.6794361145484049e-12,22.326,0.4819999933242798,-2.548965391751752
22.344828,,1.5436601877697738e-12,22.79,0.4699999988079071,-2.5756065505791095
22.810344999999998,,1.3965185335926776e-12,23.256,0.4819999933242798,-2.5499754540168365
23.275862,,1.2380447340526343e-12,23.715,0.46299999952316284,-2.5918819095561316
23.741379,,1.068314211394698e-12,24.181,0.4690000116825104,-2.5793059175418898
24.206897,,8.874457662320368e-13,24.649,0.46700000762939453,-2.5841275232861203
24.672414,,6.956030275252555e-13,25.112,0.46799999475479126,-2.582366828938552
25.137931,,4.929958054062193e-13,25.575,0.45899999141693115,-2.6023330965204283
25.603448,,2.7988133782874934e-13,26.046,0.46399998664855957,-2.591727476800869
26.068966,,5.6565422017534797e-14,26.513,0.46700000762939453,-2.5853988545105255
26.534483,,1.7659657829272326e-13,26.975,0.5690000057220459,-2.3632947411575524
27.0,,4.1919885878224155e-13,27.441,0.4740000069141388,-2.5702890642069582
27.465517,,6.707844425015596e-13,27.905,0.46399998664855957,-2.592003598034033
27.931034,,9.30844598600517e-13,28.37,0.46799999475479126,-2.583126388551986
28.396552,,1.198818420414109e-12,28.835,0.46399998664855957,-2.5915927464990793
28.862069,,1.4740925712912401e-12,29.301,0.4659999907016754,-2.5869090563831216
29.327586,,1.7560012063166968e-12,29.761,0.46399998664855957,-2.5908718417572523
29.793103000000002,,2.0438260778017394e-12,30.226,0.4699999988079071,-2.577349280098733
30.258620999999998,,2.3367968321038526e-12,30.694,0.4749999940395355,-2.565962883265783
30.724138,,2.6340915049807754e-12,31.156,0.4620000123977661,-2.5937647918915463
31.189655000000002,,2.9348372222874915e-12,31.62,0.4749999940395355,-2.56491086905783
31.655172000000004,,3.2381111123870285e-12,32.09,0.47200000286102295,-2.570920600698217
32.12069,,3.542941436166475e-12,32.553,0.48100000619888306,-2.550808015384128
32.586207,,3.848308940028468e-12,33.016,0.4740000069141388,-2.5655909671956842
33.051724,,4.153148436665616e-12,33.481,0.48399999737739563,-2.543388695357103
33.517241000000006,,4.4563506178210675e-12,33.951,0.46399998664855957,-2.586611017111291
33.982759,,4.7567641025931365e-12,34.417,0.47999998927116394,-2.5514785303842045
34.448276,,5.053197724156003e-12,34.876,0.45899999141693115,-2.5970416977325868
34.913793,,5.344423057042839e-12,35.342,0.4659999907016754,-2.58169490411247
35.37931,,5.629177186372938e-12,35.809,0.4779999852180481,-2.555550348410158
35.844828,,5.906165719601789e-12,36.275,0.4729999899864197,-2.566538171899092
36.310345,,6.174066040533614e-12,36.739,0.47600001096725464,-2.560189440324687
36.775862,,6.431530804461207e-12,37.205,0.4620000123977661,-2.5909652111130073
37.241378999999995,,6.677191672389467e-12,37.665,0.4740000069141388,-2.5651755371978497
37.706897000000005,,6.909663281358572e-12,38.135,0.4659999907016754,-2.583027491126867
38.172414,,7.127547446912416e-12,38.598,0.46299999952316284,-2.590041941450295
38.637931,,7.329437592759714e-12,39.06,0.4779999852180481,-2.557881780037984
39.103448,,7.513923401651529e-12,39.531,0.5009999871253967,-2.508316381473415
39.568965999999996,,7.679595680452419e-12,39.993,0.47600001096725464,-2.563332529387155
40.034483,,7.82505143131571e-12,40.459,0.46700000762939453,-2.5834803359063683
40.5,,7.948899119789419e-12,40.923,0.4569999873638153,-2.605780955011098
40.965517,,8.049764129581245e-12,41.389,0.46799999475479126,-2.5822882235823057
41.431034,,8.12629439260221e-12,41.853,0.47200000286102295,-2.5739891768119136
41.896552,,8.17716618179226e-12,42.319,0.4729999899864197,-2.5721556903963045
42.362069000000005,,8.201090053111302e-12,42.783,0.4699999988079071,-2.5789552063710137
42.827586000000004,,8.19681692195938e-12,43.248,0.48500001430511475,-2.5464487297837164
43.293103,,8.163144258174178e-12,43.715,0.4699999988079071,-2.5792055128469142
43.758621,,8.098922382646776e-12,44.18,0.550000011920929,-2.404890282719556
44.224138,,8.003060847502001e-12,44.642,0.47999998927116394,-2.557271233320277
44.689655,,7.874534880712161e-12,45.105,0.4560000002384186,-2.6093381666316455
45.155172,,7.712391874957106e-12,45.575,0.47600001096725464,-2.565456966703764
45.620689999999996,,7.515757899513979e-12,46.038,0.4690000116825104,-2.5803210005191253
46.086206999999995,,7.283844212961643e-12,46.504,0.4620000123977661,-2.595118608612971
46.551724,,7.015953753522505e-12,46.969,0.43799999356269836,-2.6469016726630414
47.017241,,6.711487582943147e-12,47.435,0.45899999141693115,-2.6006100665332377
47.482759,,6.369951258940028e-12,47.902,0.47200000286102295,-2.5717282899826523
47.948276,,5.990961110412554e-12,48.36,0.47200000286102295,-2.571166040451752
48.413793,,5.574250388858252e-12,48.828,0.4740000069141388,-2.5662606714034584
48.879310000000004,,5.119675268718731e-12,49.293,0.4659999907016754,-2.5831731181708295
49.344828,,4.627220668745755e-12,49.757,0.47600001096725464,-2.5609172491955356
49.810345,,4.097005865909277e-12,50.223,0.421999990940094,-2.6781579222343073
50.275862,,3.529289872878811e-12,50.691,0.4180000126361847,-2.6865435849872603
50.741379,,2.9244765497011003e-12,51.153,0.48399999737739563,-2.5425116400712198
51.206897,,2.2831194199756898e-12,51.616,0.47200000286102295,-2.568507412587138
51.672414,,1.6059261616006247e-12,52.087,0.46399998664855957,-2.585885783577589
52.137931,,8.937627420278931e-13,52.55,0.4230000078678131,-2.675259618397491
52.603448,,1.4765716793702482e-13,53.012,0.46700000762939453,-2.5795478706534727
53.068966,,6.31197180690037e-13,53.478,0.47600001096725464,-2.5601828080586952
53.534483,,1.441438661924766e-12,53.941,0.4860000014305115,-2.5387242918677373
54.0,,2.2815349582113237e-12,54.407,0.37700000405311584,-2.776601601391781
54.465517,,3.1497811667646046e-12,54.872,0.47200000286102295,-2.5701007191418017
54.931034,,4.04429842262318e-12,55.337,0.4830000102519989,-2.54665629292288
55.396552,,4.963033082268915e-12,55.802,0.47999998927116394,-2.5537446624631106
55.862069,,5.9037564949325065e-12,56.268,0.4729999899864197,-2.5695621480801694
56.327586,,6.8640653877807874e-12,56.735,0.460999995470047,-2.596270441907863
56.793102999999995,,7.841382890124993e-12,57.2,0.46299999952316284,-2.5924583173705362
57.258621000000005,,8.832960220597275e-12,57.661,0.4749999940395355,-2.5668234640457617
57.724138,,9.83587905991408e-12,58.13,0.4690000116825104,-2.580351885633529
58.189655,,1.0847054630378235e-11,58.591,0.5,-2.5132033076054237
58.655172,,1.1863239501666146e-11,59.06,0.4959999918937683,-2.5222274298884764
59.120689999999996,,1.2881028140702098e-11,59.524,0.46399998664855957,-2.5921644008169418
59.586207,,1.3896862221538371e-11,59.986,0.4729999899864197,-2.5726818413581345
60.051724,,1.4907036709138593e-11,60.452,0.4699999988079071,-2.5792447571973787
60.517241,,1.590770672880357e-11,60.917,0.48500001430511475,-2.546492638170707
60.982758999999994,,1.689489523068569e-11,61.383,0.46799999475479126,-2.5833602262211532
61.448276,,1.7864501456412116e-11,61.85,0.47600001096725464,-2.565669945511538
61.913793,,1.8812310212281257e-11,62.315,0.46700000762939453,-2.584933572174602
62.379310000000004,,1.973400195081508e-11,62.78,0.4779999852180481,-2.5605518186051004
62.84482800000001,,2.062516365964562e-11,63.246,0.4650000035762787,-2.5883980930054897
63.310345000000005,,2.148130055379251e-11,63.712,0.46399998664855957,-2.590056273832375
63.775862000000004,,2.229784856435464e-11,64.171,0.47699999809265137,-2.5611850861531997
64.241379,,2.3070187613499076e-11,64.639,0.460999995470047,-2.5954833334665457
64.706897,,2.37936556623909e-11,65.102,0.4749999940395355,-2.5644280555843926
65.172414,,2.4463563515376015e-11,65.572,0.4569999873638153,-2.6031127007182566
65.637931,,2.5075210360312873e-11,66.034,0.46299999952316284,-2.5895494796964105
66.103448,,2.562390002145688e-11,66.5,0.49000000953674316,-2.53028905005734
66.56896599999999,,2.6104957897742697e-11,66.964,0.45899999141693115,-2.5974575696179074
67.03448300000001,,2.651374855569375e-11,67.43,0.47999998927116394,-2.5514150612435516
67.5,,2.6845693942526385e-11,67.895,0.47699999809265137,-2.55774756542335
67.965517,,2.709629218131848e-11,68.36,0.4699999988079071,-2.5728881301058024
68.431034,,2.726113690639101e-11,68.825,0.47600001096725464,-2.5598031486916235
68.896552,,2.7335937093318125e-11,69.29,0.4749999940395355,-2.562065905858608
69.362069,,2.7316537334249637e-11,69.757,0.4440000057220459,-2.6297830154333957
69.827586,,2.719893850551286e-11,70.215,0.45100000500679016,-2.6148018391512866
70.293103,,2.6979318770772272e-11,70.683,0.48100000619888306,-2.5497934038064063
70.75862099999999,,2.66540548593797e-11,71.145,0.47600001096725464,-2.5611072314623065
71.22413800000001,,2.6219743555959878e-11,71.613,0.4569999873638153,-2.6029786423575496
71.689655,,2.567322333376113e-11,72.076,0.46299999952316284,-2.5904260555077965
72.15517200000001,,2.501159606087481e-11,72.546,0.4790000021457672,-2.5561130325857615
72.62069,,2.423224870510547e-11,73.008,0.46700000762939453,-2.582810837362914
73.086207,,2.3332874960073346e-11,73.474,0.46299999952316284,-2.5920712261008814
73.551724,,2.2311496712067802e-11,73.938,0.46299999952316284,-2.5925922707617683
74.017241,,2.116648526426238e-11,74.403,0.46399998664855957,-2.5908939470889156
74.482759,,1.989658223216534e-11,74.868,0.4699999988079071,-2.5782466216171835
74.94827599999999,,1.850092002163194e-11,75.333,0.4659999907016754,-2.5873168928416392
75.41379300000001,,1.6979041798422746e-11,75.798,0.4779999852180481,-2.5614487193732676
75.87931,,1.5330920856173892e-11,76.264,0.4620000123977661,-2.5964940954295193
76.344828,,1.3556979287767124e-11,76.732,0.46700000762939453,-2.5856939515386017
76.810345,,1.1658105863466855e-11,77.19,0.46399998664855957,-2.5922264817675456
77.275862,,9.6356730178454e-12,77.661,0.46399998664855957,-2.592126696488886
77.741379,,7.49155284646255e-12,78.123,0.4790000021457672,-2.55925377811763
78.206897,,5.228132012517966e-12,78.591,0.49399998784065247,-2.5262927930216788
78.67241399999999,,2.8483254632707143e-12,79.053,0.4729999899864197,-2.5716833777238475
79.137931,,3.5558885593476457e-13,79.516,0.47200000286102295,-2.5734330174589304
79.603448,,2.2460704069723835e-12,79.986,0.46700000762939453,-2.5838432752657243
80.068966,,4.952083632214344e-12,80.445,0.46399998664855957,-2.5898576325294935
80.53448300000001,,7.75731287872202e-12,80.917,0.48100000619888306,-2.552276397086271
81.0,,1.0656044685736849e-11,81.375,0.46299999952316284,-2.5909421047051224
81.465517,,1.3641985581347371e-11,81.843,0.46399998664855957,-2.588225076475572
81.931034,,1.6708259464318446e-11,82.308,0.46000000834465027,-2.5964298786121414
82.396552,,1.984740694944771e-11,82.772,0.46299999952316284,-2.5894287093435424
82.86206899999999,,2.3051386763582562e-11,83.237,0.46399998664855957,-2.5868436510746537
83.327586,,2.6311579275885063e-11,83.709,0.4740000069141388,-2.564721695667055
83.79310299999999,,2.961879224193524e-11,84.168,0.4699999988079071,-2.5731818616171402
84.258621,,3.2963268836810095e-11,84.631,0.47200000286102295,-2.5686587504658154
84.72413800000001,,3.633469804736233e-11,85.101,0.4869999885559082,-2.5359066026664436
85.189655,,3.972222748854678e-11,85.565,0.4830000102519989,-2.5446436674906616
85.65517200000001,,4.3114478702803565e-11,86.027,0.4569999873638153,-2.6014056228989735
86.12069,,4.6499564995205237e-11,86.493,0.46399998664855957,-2.5863638218361085
86.586207,,4.986511185031381e-11,86.956,0.48399999737739563,-2.5430845699075575
87.051724,,5.319827996947593e-11,87.422,0.4650000035762787,-2.5848479551056722
87.517241,,5.648579095961731e-11,87.887,0.4869999885559082,-2.5373505020900002
87.98275899999999,,5.97139556964887e-11,88.353,0.46399998664855957,-2.5879424844654713
88.448276,,6.286870537677444e-11,88.817,0.47600001096725464,-2.562317178713291
88.913793,,6.59356252645138e-11,89.283,0.4950000047683716,-2.5214604539503256
89.37931,,6.8899991127917e-11,89.749,0.47600001096725464,-2.5633942332253667
89.844828,,7.174680835290044e-11,90.215,0.44600000977516174,-2.6292793103038465
90.310345,,7.446085370953393e-11,90.676,0.46399998664855957,-2.590560359692117
90.775862,,7.70267197371095e-11,91.145,0.47200000286102295,-2.573583325713329
91.241379,,7.942886170272686e-11,91.606,0.47699999809265137,-2.563083111310365
91.706897,,8.165164707717038e-11,92.075,0.48399999737739563,-2.5481538280527234
92.17241399999999,,8.367940746045221e-11,92.538,0.47200000286102295,-2.574537090287828
92.63793100000001,,8.549649287774424e-11,93.001,0.46399998664855957,-2.5921171568858044
93.103448,,8.708732835454953e-11,93.467,0.46399998664855957,-2.592175279597488
93.568966,,8.84364726679033e-11,93.93,0.4729999899864197,-2.572531080213036
94.03448300000001,,8.952867915818106e-11,94.396,0.46299999952316284,-2.5941877489714806
94.5,,9.034895847376162e-11,94.86,0.48100000619888306,-2.5547527050546672
94.965517,,9.08826431083867e-11,95.326,0.4699999988079071,-2.578415503202736
95.431034,,9.111545357861618e-11,95.79,0.47600001096725464,-2.56496753710415
95.896552,,9.103356607634189e-11,96.256,0.36399999260902405,-2.808540279287211
96.36206899999999,,9.062368141893805e-11,96.72,0.45399999618530273,-2.6119816834052436
96.827586,,8.987309510733892e-11,97.186,0.4970000088214874,-2.517788036589226
97.293103,,8.876976829019222e-11,97.654,0.4410000145435333,-2.6392624750540867
97.758621,,8.730239942029002e-11,98.116,0.47699999809265137,-2.560299794515571
98.224138,,8.546049637777819e-11,98.584,0.4650000035762787,-2.5859269132972424
98.689655,,8.323444882324259e-11,99.046,0.45899999141693115,-2.5985124982765564
99.155172,,8.061560053272014e-11,99.516,0.46700000762939453,-2.580642387707861
99.62069,,7.759632145603843e-11,99.979,0.46799999475479126,-2.578081582394779
100.086207,,7.417007922970585e-11,100.444,0.46299999952316284,-2.588662900284636
100.551724,,7.033150986591035e-11,100.91,0.45100000500679016,-2.614574946949403
101.017241,,6.607648733009618e-11,101.376,0.4699999988079071,-2.5730363437960344
101.482759,,6.140219171113135e-11,101.835,0.4259999990463257,-2.6688448177965283
101.948276,,5.630717568031206e-11,102.301,0.47200000286102295,-2.568669041966001
102.413793,,5.079142892843077e-11,102.768,0.45899999141693115,-2.5971258077400527
102.87931,,4.485644026391971e-11,103.233,0.46799999475479126,-2.5777397646499467
103.344828,,3.8505257049727856e-11,103.701,0.47699999809265137,-2.5584341499853576
103.810345,,3.17425416521536e-11,104.164,0.37700000405311584,-2.7766738329423055
104.275862,,2.457462457139255e-11,104.628,0.47699999809265137,-2.5592464381201943
104.741379,,1.7009553921124534e-11,105.09,0.46299999952316284,-2.5902327030858454
105.206897,,9.057140923109182e-12,105.561,0.4729999899864197,-2.5689625912423852
105.672414,,7.290010825366187e-13,106.023,0.47699999809265137,-2.5607794565219755
106.13793100000001,,7.961409289161071e-12,106.489,0.46299999952316284,-2.591810771444339
106.603448,,1.6998761535143685e-11,106.951,0.46000000834465027,-2.598859965485137
107.068966,,2.6365828425285083e-11,107.417,0.46399998664855957,-2.590626346983494
107.534483,,3.604346356244647e-11,107.884,0.4690000116825104,-2.580166792537346
108.0,,4.6010586739625975e-11,108.349,0.49000000953674316,-2.5347878714355634
108.46551699999999,,5.624417555717855e-11,108.816,0.46299999952316284,-2.5939114239950447
108.931034,,6.671926360034118e-11,109.282,0.4830000102519989,-2.5505569262372645
109.396552,,7.74089454668828e-11,109.742,0.4659999907016754,-2.5877245992268025
109.862069,,8.82843889227997e-11,110.208,0.4779999852180481,-2.56161974755611
110.32758600000001,,9.931485445057425e-11,110.671,0.46399998664855957,-2.59206726013393
110.793103,,1.1046772243959041e-10,111.141,0.46299999952316284,-2.5941019942056682
111.258621,,1.217085282518406e-10,111.601,0.46399998664855957,-2.591694074438365
111.724138,,1.3300100537805805e-10,112.071,0.46000000834465027,-2.6001011791043473
112.189655,,1.4430713687986366e-10,112.532,0.48899999260902405,-2.5365439500089413
112.655172,,1.5558721529243112e-10,113.001,0.44699999690055847,-2.627613209934639
113.12069,,1.667999111395556e-10,113.46,0.47200000286102295,-2.572669352760999
113.586207,,1.7790235018887416e-10,113.927,0.43799999356269836,-2.6462373848495506
114.051724,,1.8885019954935196e-10,114.392,0.4560000002384186,-2.6065031306582847
114.51724100000001,,1.9959776268604277e-10,114.858,0.47999998927116394,-2.5536998441001972
114.982759,,2.100980833985888e-10,115.324,0.47600001096725464,-2.5619159918045304
115.448276,,2.203030587799836e-10,115.791,0.46399998664855957,-2.5875937975051015
115.913793,,2.3016356114082746e-10,116.256,0.4959999918937683,-2.5174573739518338
116.37931,,2.3962956885171297e-10,116.717,0.47200000286102295,-2.5693838656869183
116.84482799999999,,2.486503060225457e-10,117.183,0.4690000116825104,-2.5756285708535542
117.310345,,2.571743909026035e-10,117.646,0.4009999930858612,-2.723565999748126
117.77586199999999,,2.6514999284903623e-10,118.116,0.49000000953674316,-2.529543110046896
118.241379,,2.7252499767439106e-10,118.579,0.47200000286102295,-2.568725258288888
118.70689700000001,,2.7924718114570377e-10,119.042,0.4519999921321869,-2.6123544214051186
119.172414,,2.8526439036881855e-10,119.509,0.46399998664855957,-2.586355443733333
119.63793100000001,,2.9052473275199415e-10,119.971,0.4860000014305115,-2.5386534619726255
120.103448,,2.949767722026255e-10,120.437,0.4620000123977661,-2.5912451273337975
120.568966,,2.9856973217017944e-10,120.902,0.4620000123977661,-2.59161605949021
121.034483,,3.0125370510733215e-10,121.367,0.46299999952316284,-2.5898641804406375
121.5,,3.0297986787993755e-10,121.831,0.47600001096725464,-2.562010861437732
121.96551699999999,,3.0370070261498087e-10,122.297,0.46000000834465027,-2.5973662106997906
122.431034,,3.033702224342272e-10,122.762,0.46299999952316284,-2.5913401476854867
122.896552,,3.019442014800095e-10,123.227,0.46700000762939453,-2.583132858647184
123.362069,,2.9938040859866756e-10,123.69,0.46399998664855957,-2.590158031424347
123.827586,,2.956388440067136e-10,124.16,0.47200000286102295,-2.573184850173442
124.293103,,2.906819782250173e-10,124.62,0.4690000116825104,-2.5801296779090954
124.758621,,2.844749925273548e-10,125.09,0.4659999907016754,-2.5870150823208924
125.22413800000001,,2.7698602011171984e-10,125.553,0.46700000762939453,-2.5851159545020526
125.68965500000002,,2.681863871660308e-10,126.016,0.4749999940395355,-2.5678880030370617
126.15517200000001,,2.580508529644719e-10,126.482,0.49399998784065247,-2.526609923966055
126.62069000000001,,2.465578480968542e-10,126.952,0.4790000021457672,-2.5593169990562994
127.086207,,2.3368970990127206e-10,127.41,0.4830000102519989,-2.5505404359063344
127.55172400000001,,2.1943291414014694e-10,127.875,0.46700000762939453,-2.5852501791468967
128.017241,,2.037783019316822e-10,128.341,0.4659999907016754,-2.587198894743761
128.48275900000002,,1.8672130092299625e-10,128.805,0.4659999907016754,-2.586895245360553
128.948276,,1.6826213966794289e-10,129.271,0.4699999988079071,-2.57781276516458
129.413793,,1.4840605415206324e-10,129.735,0.4650000035762787,-2.588285300081658
129.87931,,1.2716348538942975e-10,130.201,0.4699999988079071,-2.576931550128106
130.344828,,1.045502670015265e-10,130.672,0.46399998664855957,-2.5895173305814487
130.81034499999998,,8.058780167694822e-11,131.134,0.4009999930858612,-2.726276649421203
131.275862,,5.530322540277176e-11,131.597,0.47600001096725464,-2.562389069699913
131.741379,,2.872955835413717e-11,132.06,0.47600001096725464,-2.5619200747489836
132.206897,,9.058413280398668e-13,132.528,0.46299999952316284,-2.5898063181807682
132.67241399999997,,2.812274338925203e-11,132.99,0.45899999141693115,-2.598131091642071
133.13793099999998,,5.83047678242236e-11,133.456,0.47600001096725464,-2.5607622214872756
133.60344800000001,,8.95824718788762e-11,133.92,0.46700000762939453,-2.5801057352172867
134.06896600000002,,1.2189169572934948e-10,134.387,0.4790000021457672,-2.553772597903575
134.53448300000002,,1.551618321148213e-10,134.853,0.46799999475479126,-2.577628752595921
135.0,,1.8931579954575018e-10,135.319,0.46399998664855957,-2.5863180029656117
135.465517,,2.2427003743040692e-10,135.784,0.4620000123977661,-2.5907344057370096
135.931034,,2.599345240836633e-10,136.25,0.460999995470047,-2.5930548805484523
136.396552,,2.962128185420802e-10,136.716,0.45100000500679016,-2.6150614681384226
136.862069,,3.330021270643948e-10,137.175,0.5049999952316284,-2.4977053291670726
137.327586,,3.7019339514649003e-10,137.646,0.47099998593330383,-2.572130869986984
137.793103,,4.0767142582479677e-10,138.109,0.4690000116825104,-2.5768896054347903
138.258621,,4.453150249818067e-10,138.572,0.47200000286102295,-2.5707936245634047
138.724138,,4.82997174301956e-10,139.042,0.46700000762939453,-2.582151924730126
139.189655,,5.20585232455585e-10,139.5,0.46399998664855957,-2.5891642211144035
139.655172,,5.579411650130186e-10,139.972,0.453000009059906,-2.6136029061906703
140.12069,,5.949218035100975e-10,140.43,0.45899999141693115,-2.60098803788594
140.586207,,6.313791340007803e-10,140.897,0.46399998664855957,-2.5905213466041106
141.05172399999998,,6.671606153418379e-10,141.363,0.45500001311302185,-2.610512310281559
141.51724099999998,,7.021095273592713e-10,141.827,0.46700000762939453,-2.584696898236966
141.982759,,7.360653489460422e-10,142.293,0.4740000069141388,-2.5697097060571874
142.44827600000002,,7.688641660361663e-10,142.757,0.46299999952316284,-2.5938651105794204
142.913793,,8.003391092913608e-10,143.223,0.46700000762939453,-2.5852622692150167
143.37931,,8.303208212234625e-10,143.686,0.46399998664855957,-2.5918284838960086
143.844828,,8.58637952358965e-10,144.156,0.4650000035762787,-2.58959776319201
144.310345,,8.851176859315119e-10,144.616,0.4659999907016754,-2.587286611545724
144.77586200000002,,9.09586290464297e-10,145.086,0.47699999809265137,-2.563112349999669
145.241379,,9.318696994773595e-10,145.55,0.49799999594688416,-2.5170807144443326
145.706897,,9.517941174250528e-10,146.012,0.46700000762939453,-2.5842761446010316
146.172414,,9.691866508368276e-10,146.478,0.43799999356269836,-2.6470635360245107
146.637931,,9.838759635002968e-10,146.941,0.47200000286102295,-2.5725582765689423
147.103448,,9.956929543897131e-10,147.406,0.47200000286102295,-2.572101836268089
147.568966,,1.0044714569059181e-09,147.872,0.48500001430511475,-2.543310650352715
148.034483,,1.0100489578559288e-09,148.338,0.46399998664855957,-2.5885954743291646
148.5,,1.012267334462094e-09,148.802,0.4699999988079071,-2.575073114266352
148.965517,,1.0109736075526354e-09,149.268,0.4749999940395355,-2.5637595732261675
149.43103399999998,,1.0060207089478964e-09,149.735,0.47999998927116394,-2.5524884571089044
149.89655199999999,,9.972682609202694e-10,150.201,0.48100000619888306,-2.549985399943622
150.362069,,9.84583365471092e-10,150.665,0.4560000002384186,-2.6041908753447167
150.82758600000003,,9.67841401035354e-10,151.127,0.4690000116825104,-2.5756797345566915
151.293103,,9.46926824095398e-10,151.59,0.4880000054836273,-2.5341740619851456
151.758621,,9.217339730585275e-10,152.06,0.47699999809265137,-2.5581076968699423
152.224138,,8.92167871631117e-10,152.524,0.47200000286102295,-2.5690502292405695
152.68965500000002,,8.58145028804107e-10,152.987,0.48399999737739563,-2.543035139808512
153.155172,,8.195942324522403e-10,153.452,0.46399998664855957,-2.5868122589283
153.62069,,7.764573334426964e-10,153.917,0.46700000762939453,-2.580550000735448
154.086207,,7.286900170485389e-10,154.383,0.46700000762939453,-2.58088524789114
154.551724,,6.762625583692396e-10,154.85,0.47200000286102295,-2.570378378607441
155.017241,,6.191605583751223e-10,155.316,0.46299999952316284,-2.5904119044613663
155.482759,,5.573856571155212e-10,155.78,0.47200000286102295,-2.5712561334596886
155.948276,,4.909562205624033e-10,156.246,0.47200000286102295,-2.571720672500337
156.413793,,4.1990799750279476e-10,156.712,0.46399998664855957,-2.5896127378082037
156.87931,,3.442947428452047e-10,157.171,0.4429999887943268,-2.6358121099327274
157.34482799999998,,2.641888036679682e-10,157.639,0.4830000102519989,-2.5490852989124333
157.81034499999998,,1.7968166431163424e-10,158.101,0.47200000286102295,-2.57342745109291
158.275862,,9.088444680380005e-11,158.565,0.45500001311302185,-2.61078774884332
158.741379,,2.071637096299471e-12,159.035,0.39500001072883606,-2.741768402073222
159.20689700000003,,9.903488593404463e-11,159.5,0.45899999141693115,-2.602528348533286
159.672414,,1.9983276435131737e-10,159.964,0.46799999475479126,-2.5830382570598234
160.137931,,3.0427161826879417e-10,160.429,0.49000000953674316,-2.5351443043295885
160.60344800000001,,4.1213645303871704e-10,160.895,0.46000000834465027,-2.600457061957293
161.06896600000002,,5.231907780783905e-10,161.36,0.47600001096725464,-2.565470582312244
161.534483,,6.371765214093011e-10,161.82,0.45899999141693115,-2.602302310896064
162.0,,7.538140174255146e-10,162.286,0.47999998927116394,-2.5562742072215654
162.465517,,8.7280207109754e-10,162.75,0.47999998927116394,-2.5559345357138628
162.931034,,9.938181016838893e-10,163.216,0.45100000500679016,-2.618722970902815
163.396552,,1.1165183688718646e-09,163.686,0.4729999899864197,-2.5703603513380036
163.862069,,1.2405382841014826e-09,164.149,0.47999998927116394,-2.554650259488917
164.327586,,1.3654928096417771e-09,164.617,0.43799999356269836,-2.645680998688257
164.793103,,1.4909769477869064e-09,165.079,0.4749999940395355,-2.564600745806552
165.258621,,1.6165663223205341e-09,165.542,0.4779999852180481,-2.557610664639643
165.72413799999998,,1.7418178541608827e-09,166.005,0.47099998593330383,-2.572436425020249
166.189655,,1.8662705328457715e-09,166.471,0.4729999899864197,-2.5676969719311944
166.655172,,1.9894462852470188e-09,166.936,0.47600001096725464,-2.5608332906268263
167.12069,,2.110850942617047e-09,167.402,0.4699999988079071,-2.573642122747944
167.58620699999997,,2.2299753067676844e-09,167.868,0.47600001096725464,-2.5603799856021827
168.051724,,2.34629631586239e-09,168.334,0.4390000104904175,-2.640879249344352
168.517241,,2.4592783099688582e-09,168.799,0.4959999918937683,-2.516668747629512
168.98275900000002,,2.5683743961697526e-09,169.264,0.45100000500679016,-2.6147640197757474
169.44827600000002,,2.6730279126657246e-09,169.731,0.45500001311302185,-2.6061880786668232
169.913793,,2.7726739909276255e-09,170.19,0.4749999940395355,-2.5628325852231773
170.37931,,2.8667412145646128e-09,170.658,0.5,-2.508654698843864
170.844828,,2.9546533731725663e-09,171.12,0.46700000762939453,-2.580899925386066
171.310345,,3.035831309013741e-09,171.59,0.4399999976158142,-2.64012539898939
171.775862,,3.1096948539549016e-09,172.053,0.46700000762939453,-2.5817447456316867
172.241379,,3.1756648536583676e-09,172.521,0.4650000035762787,-2.5865718945708878
172.706897,,3.2331652755796187e-09,172.983,0.4690000116825104,-2.578339121373726
173.172414,,3.2816253968775687e-09,173.449,0.46399998664855957,-2.5897114032802477
173.637931,,3.3204820678906224e-09,173.916,0.4699999988079071,-2.5771008179964143
174.103448,,3.349182046374572e-09,174.382,0.47999998927116394,-2.555743450145122
174.568966,,3.3671843972387017e-09,174.842,0.47200000286102295,-2.5735558516433303
175.034483,,3.3739629520557025e-09,175.308,0.4650000035762787,-2.5891321152154947
175.5,,3.3690088221607296e-09,175.776,0.46700000762939453,-2.5850332512236287
175.96551699999998,,3.35183295869683e-09,176.235,0.47600001096725464,-2.56560837311996
176.43103399999998,,3.321968752509767e-09,176.709,0.46299999952316284,-2.59403243744664
176.896552,,3.278974666346733e-09,177.168,0.4690000116825104,-2.580977675647514
177.36206900000002,,3.2224368913724232e-09,177.631,0.45100000500679016,-2.6201257729845984
177.827586,,3.1519720195843605e-09,178.101,0.4729999899864197,-2.572045222313926
178.293103,,3.0672297232891302e-09,178.565,0.4880000054836273,-2.539136139850396
178.758621,,2.9678954323943195e-09,179.027,0.4740000069141388,-2.569335097312032
179.224138,,2.8536929998794587e-09,179.493,0.4860000014305115,-2.54282557437952
179.68965500000002,,2.7243873454352095e-09,179.956,0.4650000035762787,-2.588159239045024
180.155172,,2.5797870669055118e-09,180.422,0.48899999260902405,-2.5354144478160423
180.62069,,2.4197470088345064e-09,180.887,0.46700000762939453,-2.582862192397949
181.086207,,2.244170777110921e-09,181.353,0.4659999907016754,-2.5845484026110537
181.551724,,2.0530131884193307e-09,181.82,0.4690000116825104,-2.577525603032185
182.01724099999998,,1.8462826429524549e-09,182.286,0.4650000035762787,-2.5857741524533346
182.482759,,1.6240434086135349e-09,182.75,0.4650000035762787,-2.5853433868480926
182.948276,,1.386417804744938e-09,183.215,0.4819999933242798,-2.547924050585077
183.413793,,1.133588273260553e-09,183.675,0.4690000116825104,-2.575924089249561
183.87931,,8.657993249373161e-10,184.145,0.46799999475479126,-2.5778506424711636
184.34482799999998,,5.83359348537343e-10,184.606,0.47200000286102295,-2.5689622586217378
184.81034499999998,,2.8664227038860473e-10,185.075,0.46700000762939453,-2.5797655681024563
185.27586200000002,,2.391094794924339e-11,185.539,0.49300000071525574,-2.523117177317593
185.74137900000002,,3.4779098626455044e-10,186.001,0.46399998664855957,-2.586380847643778
186.206897,,6.844190287610354e-10,186.467,0.4729999899864197,-2.5669401966504655
186.672414,,1.0331458257190222e-09,186.931,0.46299999952316284,-2.5889736587590413
187.137931,,1.3932509656717505e-09,187.396,0.46799999475479126,-2.578399843474668
187.60344800000001,,1.7639423697824968e-09,187.863,0.39899998903274536,-2.7291100511631905
188.06896600000002,,2.144356019820958e-09,188.329,0.46299999952316284,-2.5901133511642094
188.534483,,2.5335559307970236e-09,188.79,0.47200000286102295,-2.570981030591222
189.0,,2.9305343789156455e-09,189.256,0.47600001096725464,-2.5627641779807537
189.465517,,3.3342123950670246e-09,189.72,0.48500001430511475,-2.543660308742506
189.931034,,3.743440533561057e-09,190.186,0.5109999775886536,-2.4875090914728446
190.39655199999999,,4.1569999252532546e-09,190.653,0.3799999952316284,-2.773381220567508
190.862069,,4.573603623590783e-09,191.116,0.45100000500679016,-2.6191302075550484
191.327586,,4.991898251431578e-09,191.587,0.47999998927116394,-2.5563321503333656
191.793103,,5.4104659557566284e-09,192.049,0.4560000002384186,-2.6089379981491025
192.25862099999998,,5.827826676605624e-09,192.513,0.4740000069141388,-2.5699660292903936
192.72413799999998,,6.242440735719614e-09,192.975,0.47200000286102295,-2.5744845052298975
193.189655,,6.652711749471634e-09,193.441,0.4650000035762787,-2.589808277315966
193.655172,,7.0569898697082895e-09,193.905,0.46399998664855957,-2.591970074904562
194.12069000000002,,7.453575355113013e-09,194.371,0.4749999940395355,-2.5678981947947626
194.586207,,7.840722474636429e-09,194.838,0.4819999933242798,-2.5524537086046757
195.051724,,8.216643743422428e-09,195.304,0.46700000762939453,-2.5848579554223123
195.517241,,8.57951449049203e-09,195.769,0.4620000123977661,-2.595403212022878
195.98275900000002,,8.927477756232745e-09,196.234,0.47600001096725464,-2.564492604621293
196.448276,,9.258649516481411e-09,196.702,0.47999998927116394,-2.5553192090126977
196.913793,,9.571124228685644e-09,197.164,0.47699999809265137,-2.56136091852403
197.37931,,9.862980694286171e-09,197.627,0.4830000102519989,-2.5477747974606864
197.844828,,1.013228823008221e-08,198.09,0.47200000286102295,-2.571221963374959
198.310345,,1.0377113139928237e-08,198.558,0.453000009059906,-2.6121114776348335
198.775862,,1.05955254766664e-08,199.02,0.47600001096725464,-2.5615273466302853
199.241379,,1.078560608272836e-08,199.486,0.47999998927116394,-2.5523816705581686
199.706897,,1.0945453896347598e-08,199.956,0.48500001430511475,-2.5411143216202237
200.172414,,1.1073193508812569e-08,200.421,0.47200000286102295,-2.5691317359648447
200.63793099999998,,1.1166982956667083e-08,200.88,0.37599998712539673,-2.7780580407634146
201.103448,,1.1225021731231845e-08,201.345,0.47999998927116394,-2.5513445810637148
201.568966,,1.1245558986285303e-08,201.813,0.4440000057220459,-2.6297350132889923
202.034483,,1.1226901923208127e-08,202.278,0.47600001096725464,-2.560070510965612
202.5,,1.1167424331369327e-08,202.743,0.4659999907016754,-2.582000594818495
202.965517,,1.1065575260018976e-08,203.209,0.46299999952316284,-2.588766700016079
203.431034,,1.0919887796458754e-08,203.672,0.46700000762939453,-2.580361924300076
203.896552,,1.0728987923793151e-08,204.142,0.4880000054836273,-2.5349896056911563
204.36206900000002,,1.0491603430127554e-08,204.602,0.46700000762939453,-2.581177664319887
204.827586,,1.020657283968103e-08,205.065,0.46399998664855957,-2.5881939850682665
205.293103,,9.872854334928098e-09,205.535,0.46399998664855957,-2.5887036648308603
205.758621,,9.489534637581877e-09,205.997,0.47600001096725464,-2.5630826955211012
206.224138,,9.055837814987578e-09,206.463,0.4830000102519989,-2.548351224088673
206.689655,,8.57113397731736e-09,206.927,0.46399998664855957,-2.5902444501396573
207.155172,,8.034947829852113e-09,207.393,0.46700000762939453,-2.5841719255616415
207.62069,,7.4469670436097815e-09,207.857,0.46700000762939453,-2.5845857051082777
208.086207,,6.80705040664058e-09,208.323,0.46399998664855957,-2.591472767617166
208.551724,,6.11523571746388e-09,208.788,0.4740000069141388,-2.5699634432833736
209.01724099999998,,5.371747381376812e-09,209.253,0.47200000286102295,-2.5745150568397133
209.482759,,4.5770036697276775e-09,209.72,0.47200000286102295,-2.574620172382999
209.948276,,3.731623601725029e-09,210.186,0.4690000116825104,-2.5811687450649345
210.413793,,2.8364334079525754e-09,210.649,0.46700000762939453,-2.5854459017949165
210.87930999999998,,1.892472534487645e-09,211.112,0.47999998927116394,-2.556952881212801
211.344828,,9.009991463831711e-10,211.575,0.4909999966621399,-2.532731259451742
211.810345,,1.3650491072351492e-10,212.045,0.46700000762939453,-2.584684302471925
212.27586200000002,,1.218329731961372e-09,212.505,0.47699999809265137,-2.5624962491112857
212.741379,,2.342533598318761e-09,212.977,0.4659999907016754,-2.586005641920798
213.206897,,3.5069398858000955e-09,213.435,0.46299999952316284,-2.5920462178075443
213.672414,,4.7091346783416745e-09,213.902,0.45899999141693115,-2.6002418448643976
214.137931,,5.946465123388364e-09,214.368,0.47600001096725464,-2.5626783254998213
214.60344800000001,,7.216038568065889e-09,214.835,0.46799999475479126,-2.579589776699004
215.068966,,8.514722512739613e-09,215.3,0.4749999940395355,-2.563846228876583
215.534483,,9.839145417426306e-09,215.764,0.43799999356269836,-2.6440040949034023
216.0,,1.1185698395017334e-08,216.23,0.4860000014305115,-2.5390321705724688
216.465517,,1.255053782357753e-08,216.694,0.46399998664855957,-2.5866329228629277
216.93103399999998,,1.3929588908101716e-08,217.156,0.4819999933242798,-2.547164785132207
217.39655199999999,,1.5318550220038872e-08,217.624,0.4749999940395355,-2.5622478413512217
217.862069,,1.67128992406317e-08,218.086,0.46799999475479126,-2.5774212142166513
218.327586,,1.8107898931666385e-08,218.55,0.4729999899864197,-2.566543918704723
218.793103,,1.949860535458457e-08,219.019,0.46700000762939453,-2.579724464221378
219.25862099999998,,2.087987635607783e-08,219.485,0.46399998664855957,-2.58645875600767
219.724138,,2.22463813352664e-08,219.948,0.45899999141693115,-2.597634075615
220.18965500000002,,2.3592612104361093e-08,220.413,0.453000009059906,-2.6110633687874687
220.65517200000002,,2.4912894851323912e-08,220.88,0.46399998664855957,-2.5875199948254526
221.12069,,2.6201403209482736e-08,221.346,0.46700000762939453,-2.5814564151865342
221.586207,,2.745217243532432e-08,221.805,0.46799999475479126,-2.5797857181924297
222.051724,,2.865911469179284e-08,222.271,0.47600001096725464,-2.562883703326815
222.517241,,2.9816035430365544e-08,222.737,0.4909999966621399,-2.5307333137866017
222.98275900000002,,3.091665086097025e-08,223.203,0.4650000035762787,-2.5878927320382306
223.448276,,3.195460649445994e-08,223.665,0.4620000123977661,-2.594913032007499
223.913793,,3.2923496737876734e-08,224.134,0.47200000286102295,-2.573565940717796
224.37931,,3.3816885518131454e-08,224.598,0.4699999988079071,-2.578303533197906
224.844828,,3.462832790500695e-08,225.06,0.46299999952316284,-2.5938633073468695
225.31034499999998,,3.535139269957519e-08,225.528,0.47099998593330383,-2.5766627136405345
225.775862,,3.597968594921262e-08,225.991,0.46399998664855957,-2.592053894362456
226.241379,,3.6506875345419454e-08,226.456,0.47699999809265137,-2.5637795193831994
226.706897,,3.6926715455610554e-08,226.92,0.49000000953674316,-2.5354104179284045
227.172414,,3.723307373496447e-08,227.386,0.4569999873638153,-2.6071658241204014
227.63793099999998,,3.741995725930834e-08,227.853,0.47999998927116394,-2.5568283117008965
228.103448,,3.7481540114897376e-08,228.318,0.4620000123977661,-2.595734103126769
228.56896600000002,,3.7412191375836416e-08,228.784,0.47200000286102295,-2.573566276991684
229.03448300000002,,3.720650359480555e-08,229.249,0.45899999141693115,-2.601448033973202
229.5,,3.6859321727711945e-08,229.716,0.4830000102519989,-2.5486740143327506
229.965517,,3.63657724079153e-08,230.175,0.3019999861717224,-2.942495467516576
230.431034,,3.572129348078532e-08,230.642,0.4560000002384186,-2.606461105895734
230.896552,,3.492166370456766e-08,231.105,0.45399999618530273,-2.610301628036372
231.362069,,3.396303251888126e-08,231.575,0.4959999918937683,-2.5182994278618196
231.827586,,3.284194977766755e-08,232.038,0.45899999141693115,-2.598442836076985
232.293103,,3.155539533908242e-08,232.504,0.4650000035762787,-2.5849514775048417
232.758621,,3.010080840068882e-08,232.97,0.46399998664855957,-2.586771328469208
233.224138,,2.8476116464393973e-08,233.436,0.4560000002384186,-2.6039134166208404
233.689655,,2.667976381190436e-08,233.901,0.46299999952316284,-2.5884566233210005
234.155172,,2.471073936806713e-08,234.36,0.4880000054836273,-2.533870769498986
234.62069,,2.2568603826352004e-08,234.831,0.48100000619888306,-2.549091152497503
235.086207,,2.025351590792698e-08,235.296,0.47999998927116394,-2.551329973170161
235.55172399999998,,1.7766257623317713e-08,235.761,0.45100000500679016,-2.6146602019445
236.01724099999998,,1.5108258403537218e-08,236.22,0.49300000071525574,-2.5233915641519475
236.482759,,1.228161796585324e-08,236.69,0.4650000035762787,-2.5847059900984726
236.94827600000002,,9.289127778047453e-09,237.153,0.46700000762939453,-2.58072936769286
237.413793,,6.134290984136123e-09,237.616,0.4959999918937683,-2.51798606706202
237.87931,,2.8213406540874873e-09,238.087,0.46399998664855957,-2.5881833525057076
238.344828,,6.447437798920895e-10,238.55,0.4699999988079071,-2.57562087851565
238.810345,,4.258222037402889e-09,239.012,0.4830000102519989,-2.5478214386565794
239.27586200000002,,8.012580590088281e-09,239.478,0.47999998927116394,-2.5548775480528465
239.741379,,1.1900522482355455e-08,239.941,0.46299999952316284,-2.592416085877699
240.206897,,1.5913959504758662e-08,240.407,0.48500001430511475,-2.544953658223587
240.672414,,2.0044006849546302e-08,240.873,0.46399998664855957,-2.5911251692774524
241.137931,,2.4280980374619152e-08,241.338,0.49000000953674316,-2.5348389927148265
241.603448,,2.8614396598302465e-08,241.805,0.47200000286102295,-2.5743411056692977
242.068966,,3.303297554288782e-08,242.271,0.47600001096725464,-2.565831836878699
242.534483,,3.752464653984129e-08,242.736,0.46700000762939453,-2.58555794847064
243.0,,4.207655710389427e-08,243.201,0.45899999141693115,-2.603015031923139
243.465517,,4.6675084976925694e-08,243.664,0.4690000116825104,-2.581165222355698
243.93103399999998,,5.130585343560461e-08,244.127,0.4560000002384186,-2.6093350561852433
244.39655199999999,,5.595374994918783e-08,244.59,0.45899999141693115,-2.602561832683373
244.862069,,6.060294826565779e-08,245.06,0.46700000762939453,-2.5848176352712864
245.327586,,6.523693399554333e-08,245.524,0.5849999785423279,-2.3273512545779376
245.793103,,6.983853375329411e-08,245.986,0.4659999907016754,-2.5861630497019057
246.258621,,7.438994790598575e-08,246.452,0.46299999952316284,-2.592205848928944
246.724138,,7.887278696842502e-08,246.917,0.4790000021457672,-2.556825757267894
247.18965500000002,,8.326811167241527e-08,247.382,0.46700000762939453,-2.5824349286964177
247.655172,,8.755647672604592e-08,247.85,0.46399998664855957,-2.5884400032513897
248.12069,,9.171797826640295e-08,248.315,0.46399998664855957,-2.5879294031322573
248.586207,,9.573230499608003e-08,248.779,0.4830000102519989,-2.546060112709484
249.051724,,9.957879298032451e-08,249.245,0.46000000834465027,-2.595744158126451
249.517241,,1.0323648406760504e-07,249.712,0.4620000123977661,-2.591025521469582
249.982759,,1.0668418788186615e-07,250.171,0.47600001096725464,-2.5602379016763206
250.44827600000002,,1.0990054731976994e-07,250.639,0.4830000102519989,-2.5447837800715987
250.913793,,1.1286410747085247e-07,251.101,0.46399998664855957,-2.586063702607621
251.37931000000003,,1.1555338786277814e-07,251.569,0.4620000123977661,-2.590399828304208
251.844828,,1.1794695791779925e-07,252.03,0.45899999141693115,-2.597009295591269
252.31034499999998,,1.2002351549016402e-07,252.496,0.4819999933242798,-2.5470659852052315
252.77586200000002,,1.2176196833760993e-07,252.966,0.4779999852180481,-2.5560326565222384
253.241379,,1.2314151836327872e-07,253.425,0.45899999141693115,-2.597757904156653
253.706897,,1.2414174844744691e-07,253.894,0.46700000762939453,-2.5807290523787088
254.172414,,1.2474271167143535e-07,254.359,0.46399998664855957,-2.5877227871466224
254.63793099999998,,1.2492502271899943e-07,254.824,0.47200000286102295,-2.570794492579313
255.10344800000001,,1.2466995122346852e-07,255.29,0.46299999952316284,-2.59093106597249
255.56896600000002,,1.2395951681196e-07,255.75,0.4749999940395355,-2.5653275576734544
256.03448299999997,,1.2277658558120573e-07,256.215,0.4699999988079071,-2.5767558471486995
256.5,,1.2110496772296007e-07,256.683,0.453000009059906,-2.6143065449723206
256.965517,,1.1892951600068276e-07,257.146,0.47600001096725464,-2.5646744178035776
257.431034,,1.1623622476327129e-07,257.616,0.4620000123977661,-2.5956004578533247
257.896552,,1.1301232916613357e-07,258.079,0.4699999988079071,-2.578531202650267
258.362069,,1.092464042549126e-07,258.547,0.46399998664855957,-2.59188690819404
258.827586,,1.0492846355277882e-07,259.009,0.46399998664855957,-2.5920858043666883
259.29310300000003,,1.0005005677846697e-07,259.474,0.4909999966621399,-2.5333696227621676
259.758621,,9.460436630923088e-08,259.938,0.4569999873638153,-2.6074557486407857
260.224138,,8.858630199070022e-08,260.404,0.4779999852180481,-2.561620688592382
260.689655,,8.199259388432607e-08,260.869,0.46799999475479126,-2.583230745338106
261.155172,,7.482188253277531e-08,261.335,0.46799999475479126,-2.582966633098847
261.62068999999997,,6.707480631435755e-08,261.801,0.4749999940395355,-2.567372347998591
262.086207,,5.8754085449419266e-08,262.26,0.4659999907016754,-2.5865672053345623
262.551724,,4.9864602214697384e-08,262.725,0.48500001430511475,-2.544703044269152
263.017241,,4.041347691596414e-08,263.191,0.46399998664855957,-2.5899424246267593
263.482759,,3.041013916499362e-08,263.661,0.4699999988079071,-2.576331696536227
263.94827599999996,,1.986639400401035e-08,264.123,0.4790000021457672,-2.5561751163970277
264.413793,,8.796482419415343e-09,264.591,0.46399998664855957,-2.588312965642036
264.87931,,2.7828642132062025e-09,265.053,0.46399998664855957,-2.5877949584229687
265.34482799999995,,1.4852376208940984e-08,265.516,0.49399998784065247,-2.5219571060201944
265.810345,,2.7390204630856882e-08,265.986,0.4790000021457672,-2.5542120388973806
266.27586199999996,,4.0371887772032137e-08,266.445,0.45899999141693115,-2.597427444200385
266.741379,,5.377032550242445e-08,266.912,0.5099999904632568,-2.4860371448833027
267.206897,,6.7555761911676e-08,267.378,0.4620000123977661,-2.5904196279910865
267.672414,,8.169577666800013e-08,267.846,0.4569999873638153,-2.6012139412401414
268.137931,,9.615528550037457e-08,268.311,0.45500001311302185,-2.6055702375072674
268.603448,,1.1089655019633643e-07,268.775,0.4740000069141388,-2.564273048313547
269.06896600000005,,1.2587919849070042e-07,269.241,0.4749999940395355,-2.5622861178020293
269.53448299999997,,1.410602542014782e-07,269.702,0.46399998664855957,-2.586531575589184
270.0,,1.5639417794814115e-07,270.171,0.49000000953674316,-2.5302469533936556
270.465517,,1.718329187641246e-07,270.631,0.4699999988079071,-2.574248894544273
270.931034,,1.873259768901128e-07,271.101,0.47600001096725464,-2.561661565093779
271.396552,,2.0282047800716839e-07,271.561,0.4620000123977661,-2.5926884660619263
271.86206899999996,,2.1826125913918513e-07,272.03,0.4690000116825104,-2.5779890891999164
272.327586,,2.3359096642246144e-07,272.496,0.4729999899864197,-2.569834007400919
272.793103,,2.487501649064377e-07,272.959,0.45100000500679016,-2.618314884623024
273.258621,,2.6367746051384405e-07,273.425,0.4740000069141388,-2.568731003853046
273.724138,,2.7830963425070503e-07,273.89,0.46399998664855957,-2.5910004520866368
274.18965499999996,,2.9258178871689366e-07,274.356,0.47600001096725464,-2.56528204045205
274.655172,,3.0642750692627455e-07,274.821,0.47099998593330383,-2.5765298128383844
275.12069,,3.197790234019933e-07,275.287,0.5299999713897705,-2.4482607690639817
275.586207,,3.3256740746723045e-07,275.747,0.4880000054836273,-2.5399420706937366
276.051724,,3.447227586048302e-07,276.212,0.4749999940395355,-2.56834461364952
276.517241,,3.561744137107304e-07,276.675,0.4690000116825104,-2.581397353795541
276.98275900000004,,3.6685116601616846e-07,277.145,0.46299999952316284,-2.5943520661693302
277.448276,,3.7668149540233057e-07,277.605,0.4650000035762787,-2.589783297880324
277.913793,,3.8559380977857103e-07,278.075,0.46399998664855957,-2.5916627640322525
278.37931,,3.935166971416947e-07,278.535,0.46000000834465027,-2.599999540295078
278.844828,,4.0037918787920464e-07,279.005,0.46399998664855957,-2.590840299439767
279.31034500000004,,4.0611102682402826e-07,279.47,0.46399998664855957,-2.5903422119754764
279.77586199999996,,4.106429545122122e-07,279.937,0.4699999988079071,-2.5767338588227853
280.241379,,4.13906997038584e-07,280.395,0.4620000123977661,-2.5936046011179306
280.706897,,4.1583676384860664e-07,280.862,0.4729999899864197,-2.569076195225322
281.172414,,4.1636775274778595e-07,281.328,0.46399998664855957,-2.588133034187152
281.637931,,4.1543766135322804e-07,281.794,0.46000000834465027,-2.5963260086706885
282.10344799999996,,4.12986704155496e-07,282.259,0.4650000035762787,-2.5849568985389273
282.568966,,4.089579343029932e-07,282.724,0.46399998664855957,-2.58671996375417
283.034483,,4.03297569165929e-07,283.189,0.46799999475479126,-2.5776626572904564
283.5,,3.959553186827255e-07,283.65,0.49000000953674316,-2.5294726187613734
283.965517,,3.8688471543874595e-07,284.12,0.46000000834465027,-2.59466307001327
284.431034,,3.7604344537569567e-07,284.583,0.46399998664855957,-2.585876133544406
284.89655200000004,,3.6339367798022334e-07,285.045,0.46700000762939453,-2.5793671085753354
285.362069,,3.4890239475237655e-07,285.513,0.4729999899864197,-2.566420584192113
285.827586,,3.325417147088998e-07,285.975,0.4569999873638153,-2.6014989834989963
286.293103,,3.142892156331622e-07,286.441,0.47200000286102295,-2.5691274772008112
286.758621,,2.9412824974302715e-07,286.906,0.46399998664855957,-2.5869437805724105
287.22413800000004,,2.720482524104886e-07,287.371,0.49900001287460327,-2.511144475577184
287.689655,,2.480450425326632e-07,287.838,0.46399998664855957,-2.5879028202786345
288.155172,,2.2212111312300088e-07,288.304,0.4560000002384186,-2.6058750447839074
288.62069,,1.9428591066462757e-07,288.769,0.46399998664855957,-2.5890106775458435
289.086207,,1.645561017448164e-07,289.234,0.4880000054836273,-2.5372917203828216
289.55172400000004,,1.3295582547095457e-07,289.702,0.46399998664855957,-2.5901338620200547
290.01724099999996,,9.951693015428525e-08,290.164,0.4690000116825104,-2.5797642917901604
290.482759,,6.427919273840257e-08,290.628,0.4740000069141388,-2.5693480912441364
290.948276,,2.7290519445202878e-08,291.09,0.4790000021457672,-2.5588701518398764
291.413793,,1.1392873888019982e-08,291.561,0.515999972820282,-2.4785999887534205
291.87931,,5.1706303300181204e-08,292.023,0.460999995470047,-2.598679030554021
292.344828,,9.357648153439597e-08,292.489,0.4490000009536743,-2.6249835825189995
292.81034500000004,,1.3692140769197542e-07,292.952,0.460999995470047,-2.598904254184977
293.275862,,1.8165028317789654e-07,293.417,0.4830000102519989,-2.550939369165143
293.74137900000005,,2.276634553727973e-07,293.882,0.44999998807907104,-2.622701762398655
294.206897,,2.748523904297024e-07,294.348,0.46399998664855957,-2.591973587579119
294.672414,,3.230996765502645e-07,294.813,0.46700000762939453,-2.5851233294238414
295.13793100000004,,3.722790590451805e-07,295.279,0.503000020980835,-2.5062988859708013
295.603448,,4.222555084265031e-07,295.746,0.460999995470047,-2.5973416469348254
296.068966,,4.7288532271572126e-07,296.212,0.45500001311302185,-2.6099004069303193
296.534483,,5.240162650806609e-07,296.672,0.47200000286102295,-2.572314052911998
297.0,,5.754877378364091e-07,297.142,0.47600001096725464,-2.5630299688600147
297.46551700000003,,6.271309937605644e-07,297.605,0.47600001096725464,-2.5624572474261416
297.931034,,6.787693855811638e-07,298.068,0.45500001311302185,-2.6076507008387004
298.396552,,7.302186543966477e-07,298.535,0.4749999940395355,-2.563551602069339
298.862069,,7.812872576812628e-07,298.998,0.4650000035762787,-2.5848598730727246
299.327586,,8.317767374164287e-07,299.463,0.46399998664855957,-2.5866229904636717
299.79310300000003,,8.814821287689248e-07,299.927,0.3569999933242798,-2.819400489929002
300.258621,,9.301924096104091e-07,300.393,0.46700000762939453,-2.579501002042385
300.724138,,9.776909910399387e-07,300.857,0.47099998593330383,-2.5706336282464215
301.189655,,1.023756248931996e-06,301.323,0.3889999985694885,-2.749229093358528
301.65517200000005,,1.0681620963872793e-06,301.787,0.4690000116825104,-2.5749854426469945
302.12069,,1.1106785968124252e-06,302.252,0.46399998664855957,-2.5860260768854917
302.586207,,1.1510726171982002e-06,302.717,0.4729999899864197,-2.5666583859053613
303.05172400000004,,1.1891085210038293e-06,303.183,0.46799999475479126,-2.5778769471339955
303.517241,,1.2245488998883863e-06,303.646,0.4869999885559082,-2.5368827212104197
303.982759,,1.2571553433589295e-06,304.116,0.4569999873638153,-2.602704734258142
304.448276,,1.2866892452297451e-06,304.579,0.4690000116825104,-2.5770722861988884
304.913793,,1.31291264560811e-06,305.041,0.46000000834465027,-2.5972251181934505
305.37931000000003,,1.3355891069398828e-06,305.509,0.4959999918937683,-2.5193552479846035
305.844828,,1.354484622463497e-06,305.971,0.4749999940395355,-2.565667054512837
306.310345,,1.3693685552340938e-06,306.437,0.46299999952316284,-2.5923531776321354
306.775862,,1.38001460569119e-06,306.902,0.45899999141693115,-2.6015769368452384
307.241379,,1.3862018055540147e-06,307.368,0.4779999852180481,-2.5606433293957753
307.70689699999997,,1.3877155356391118e-06,307.835,0.47200000286102295,-2.574113185585338
308.172414,,1.384348565005663e-06,308.301,0.47999998927116394,-2.557007190323593
308.637931,,1.3759021086459156e-06,308.761,0.4620000123977661,-2.5964617754864374
309.103448,,1.3621869007518275e-06,309.226,0.47999998927116394,-2.5573940848762526
309.568966,,1.3430242804052998e-06,309.694,0.4880000054836273,-2.5400171007589045
310.034483,,1.3182472863589448e-06,310.156,0.4650000035762787,-2.590081073656329
310.5,,1.2877017573979787e-06,310.62,0.4699999988079071,-2.5790479281441008
310.96551700000003,,1.2512474346023816e-06,311.09,0.4620000123977661,-2.596247130578231
311.431034,,1.2087590616627194e-06,311.55,0.49000000953674316,-2.5349318158620613
311.896552,,1.1601274792438427e-06,312.02,0.46399998664855957,-2.5911896829487118
312.362069,,1.1052607092388814e-06,312.486,0.45399999618530273,-2.6125276828715283
312.827586,,1.04408502461244e-06,312.948,0.49000000953674316,-2.533600270541744
313.29310300000003,,9.765460003975006e-07,313.414,0.44699999690055847,-2.62675337138763
313.758621,,9.026095412861594e-07,313.879,0.45100000500679016,-2.617493938996515
314.224138,,8.222628811408106e-07,314.345,0.4699999988079071,-2.575555530995022
314.689655,,7.35515549650643e-07,314.809,0.46399998664855957,-2.5880997289365992
315.155172,,6.424003012691878e-07,315.275,0.4880000054836273,-2.535315915303346
315.62068999999997,,5.429740014930188e-07,315.735,0.4129999876022339,-2.698265367417691
316.086207,,4.3731846548040584e-07,316.2,0.4580000042915344,-2.599838557933693
316.551724,,3.255412439626026e-07,316.669,0.47200000286102295,-2.569022449392901
317.017241,,2.0777635137032524e-07,317.131,0.46700000762939453,-2.5796810381074526
317.482759,,8.418493108465447e-08,317.601,0.46399998664855957,-2.586069418985251
317.94827599999996,,4.5044147274167816e-08,318.064,0.4749999940395355,-2.562047743879058
318.413793,,1.7969376358401954e-07,318.527,0.46299999952316284,-2.5882273033064926
318.87931000000003,,3.1951810100665295e-07,318.99,0.4790000021457672,-2.553495517690422
319.344828,,4.642422827830439e-07,319.456,0.44600000977516174,-2.6256044975611643
319.810345,,6.135620969178549e-07,319.92,0.45100000500679016,-2.6150059565264727
320.275862,,7.671438135300144e-07,320.386,0.4869999885559082,-2.5369410993474992
320.741379,,9.246240995224404e-07,320.853,0.46799999475479126,-2.5787613872791626
321.20689699999997,,1.0856100350780292e-06,321.319,0.48100000619888306,-2.5509112405646723
321.672414,,1.2496792363207518e-06,321.783,0.46399998664855957,-2.5884529410540913
322.137931,,1.4163800882896968e-06,322.248,0.46399998664855957,-2.588975129417594
322.603448,,1.5852320921598565e-06,322.713,0.42899999022483826,-2.665752981960521
323.068966,,1.755726330406147e-06,323.179,0.47600001096725464,-2.563869292024364
323.53448299999997,,1.927326053346422e-06,323.646,0.4339999854564667,-2.655857637421373
324.0,,2.099467390215014e-06,324.109,0.4659999907016754,-2.586583709487859
324.465517,,2.271560187610585e-06,324.572,0.4690000116825104,-2.5804348139540845
324.931034,,2.442988977830916e-06,325.035,0.4620000123977661,-2.596004676507098
325.396552,,2.6131140792528135e-06,325.5,0.4440000057220459,-2.6354630852904157
325.86206899999996,,2.781272830537907e-06,325.972,0.49000000953674316,-2.5354041856949863
326.327586,,2.946780960045026e-06,326.43,0.49799999594688416,-2.518044180254554
326.793103,,3.1089340914075856e-06,326.897,0.4659999907016754,-2.5877379386822366
327.258621,,3.2670093857904756e-06,327.363,0.47600001096725464,-2.5658380490720805
327.724138,,3.4202673208760236e-06,327.827,0.46399998664855957,-2.5917823943723786
328.189655,,3.5679536061434074e-06,328.293,0.46399998664855957,-2.5915033195532238
328.655172,,3.709301233501316e-06,328.757,0.46399998664855957,-2.5911535617410473
329.12068999999997,,3.84353266181063e-06,329.222,0.46799999475479126,-2.5820291800349993
329.586207,,3.969862133293487e-06,329.69,0.47200000286102295,-2.5728570669469977
330.051724,,4.087498119268496e-06,330.153,0.47600001096725464,-2.5636508119070505
330.517241,,4.1956458920803615e-06,330.621,0.46299999952316284,-2.5914623842601863
330.982759,,4.293510219507145e-06,331.082,0.4749999940395355,-2.564804050973353
331.44827599999996,,4.3802981773313295e-06,331.546,0.4779999852180481,-2.557765107315758
331.913793,,4.455222075153414e-06,332.016,0.46700000762939453,-2.5812536655732146
332.37931,,4.5175024899106015e-06,332.482,0.382999986410141,-2.7638263530597325
332.844828,,4.566371400940117e-06,332.945,0.43799999356269836,-2.643624549872898
333.310345,,4.601075419798711e-06,333.41,0.45899999141693115,-2.5975647459862925
333.77586199999996,,4.620879107419007e-06,333.871,0.46399998664855957,-2.5864381426956866
334.241379,,4.62506837055164e-06,334.337,0.49000000953674316,-2.5296400978411944
334.706897,,4.61295392881185e-06,334.803,0.46799999475479126,-2.577500997303555
335.17241399999995,,4.5838748430226105e-06,335.269,0.46299999952316284,-2.5884105667246344
335.637931,,4.53720209492593e-06,335.736,0.4620000123977661,-2.5906909712162096
336.103448,,4.472342207722095e-06,336.202,0.47999998927116394,-2.5516589141042827
336.56896600000005,,4.388740896295884e-06,336.664,0.45899999141693115,-2.597669801812543
337.034483,,4.285886735401862e-06,337.127,0.47699999809265137,-2.558781092567915
337.5,,4.1633148335103055e-06,337.59,0.4659999907016754,-2.5831308820513157
337.965517,,4.02061049946406e-06,338.06,0.46799999475479126,-2.5792042166346127
338.431034,,3.857412888567264e-06,338.524,0.46299999952316284,-2.5905613630114375
338.89655200000004,,3.673418614222384e-06,338.986,0.48500001430511475,-2.5431140789565476
339.36206899999996,,3.4683853107552137e-06,339.452,0.4569999873638153,-2.604603885688513
339.827586,,3.242135132621279e-06,339.917,0.4620000123977661,-2.594188804052599
340.293103,,2.9945581747743836e-06,340.383,0.45899999141693115,-2.6011799703257164
340.758621,,2.725615798601732e-06,340.85,0.46299999952316284,-2.5928840701778264
341.224138,,2.4353438474931364e-06,341.315,0.4729999899864197,-2.57146734403235
341.68965499999996,,2.123855735817084e-06,341.779,0.47600001096725464,-2.565240891029677
342.155172,,1.7913453948268317e-06,342.244,0.4620000123977661,-2.59598238196829
342.62069,,1.4380900588180343e-06,342.71,0.4659999907016754,-2.5874326950267172
343.086207,,1.0644528747084913e-06,343.176,0.46799999475479126,-2.583160247361617
343.551724,,6.708853181131277e-07,343.639,0.4880000054836273,-2.539589418583871
344.01724099999996,,2.579293989459992e-07,344.101,0.460999995470047,-2.5983324987731526
344.48275900000004,,1.7378036040154933e-07,344.569,0.46399998664855957,-2.591636797151213
344.948276,,6.235151911789129e-07,345.031,0.46700000762939453,-2.584867165660747
345.413793,,1.0904506054207463e-06,345.497,0.46299999952316284,-2.5932814337545107
345.87931,,1.5736652006404613e-06,345.967,0.46299999952316284,-2.592923650834094
346.344828,,2.0721397583195123e-06,346.425,0.5009999871253967,-2.5097299757363585
346.81034500000004,,2.5847566520937938e-06,346.89,0.4620000123977661,-2.5942564492578595
347.275862,,3.1102995811213974e-06,347.356,0.4690000116825104,-2.578543178451143
347.741379,,3.647453643625689e-06,347.82,0.4790000021457672,-2.556286131311696
348.206897,,4.1948057650427604e-06,348.286,0.49900001287460327,-2.5122478029522117
348.672414,,4.750845494561587e-06,348.754,0.47699999809265137,-2.559731321024003
349.13793100000004,,5.313966183127686e-06,349.219,0.47699999809265137,-2.559316718149925
349.60344799999996,,5.882466555185954e-06,349.687,0.4650000035762787,-2.5850909634813584
350.068966,,6.454552685565149e-06,350.149,0.45399999618530273,-2.608743167862009
350.534483,,7.028340391954949e-06,350.613,0.4339999854564667,-2.6520699273833497
351.0,,7.601858052396583e-06,351.075,0.453000009059906,-2.6105036439514238
351.465517,,8.173049856100088e-06,351.546,0.47600001096725464,-2.560301145267712
351.93103399999995,,8.739779494715788e-06,352.009,0.45899999141693115,-2.597324462579688
352.396552,,9.2998342999256e-06,352.475,0.4650000035762787,-2.5843186432346035
352.862069,,9.850929831882274e-06,352.938,0.4569999873638153,-2.601891674994304
353.32758600000005,,1.0390714921613358e-05,353.404,0.4790000021457672,-2.55417792247188
353.793103,,1.0916777169023237e-05,353.872,0.5709999799728394,-2.354022321152589
354.258621,,1.1426648896573326e-05,354.33,0.47200000286102295,-2.5700415139601938
354.72413800000004,,1.1917813557099866e-05,354.796,0.4650000035762787,-2.5856699955761733
355.189655,,1.2387712592543561e-05,355.262,0.4830000102519989,-2.5468677330294547
355.655172,,1.2833752738618848e-05,355.728,0.47200000286102295,-2.571269259099237
356.12069,,1.3253313768646488e-05,356.194,0.48500001430511475,-2.5433930797203357
356.586207,,1.3643756667915258e-05,356.657,0.46399998664855957,-2.589588020071219
357.05172400000004,,1.4002432228031138e-05,357.127,0.47200000286102295,-2.572586471046387
357.517241,,1.4326690048760216e-05,357.59,0.47999998927116394,-2.5555569489485928
357.982759,,1.4613887932879574e-05,358.053,0.4490000009536743,-2.6234552323208207
358.448276,,1.486140165752412e-05,358.516,0.4569999873638153,-2.6063372842022274
358.913793,,1.5066635103462327e-05,358.986,0.46399998664855957,-2.5913402080265073
359.37931000000003,,1.522703072165623e-05,359.452,0.45399999618530273,-2.6133149191206155
359.844828,,1.534008031436735e-05,359.916,0.4790000021457672,-2.5589661066813223
360.310345,,1.5403336105967105e-05,360.375,0.4440000057220459,-2.6352620582213273
360.775862,,1.5414422076504917e-05,360.847,0.4560000002384186,-2.609086800634312
361.241379,,1.5371045528986992e-05,361.305,0.4569999873638153,-2.60680318895994
361.706897,,1.5271008859231294e-05,361.772,0.45399999618530273,-2.61316353333311
362.172414,,1.5112221495097629e-05,362.237,0.46399998664855957,-2.5911359406297803
362.63793100000004,,1.489271196985427e-05,362.71,0.46000000834465027,-2.5995506215625817
363.103448,,1.461064009244264e-05,363.168,0.47600001096725464,-2.5643420002672146
363.568966,,1.426430917544799e-05,363.631,0.46399998664855957,-2.5900951435410957
364.034483,,1.3852178279685865e-05,364.101,0.47699999809265137,-2.5613527803159197
364.5,,1.3372874432480328e-05,364.561,0.46399998664855957,-2.5892383593448303
364.96551700000003,,1.2825204774950037e-05,365.031,0.48100000619888306,-2.5517600665549534
365.431034,,1.2208168591941537e-05,365.496,0.48100000619888306,-2.5513270114805406
365.896552,,1.1520969176665327e-05,365.959,0.46399998664855957,-2.587951862116382
366.362069,,1.0763025480608897e-05,366.425,0.44699999690055847,-2.6246105146851293
366.827586,,9.93398349793176e-06,366.89,0.45500001311302185,-2.6068486921443967
367.29310300000003,,9.033727332300261e-06,367.356,0.4790000021457672,-2.5542836179506105
367.758621,,8.062389893004331e-06,367.821,0.46299999952316284,-2.5889269420423844
368.224138,,7.020363166224095e-06,368.286,0.4480000138282776,-2.6214607596107076
368.689655,,5.908308006490729e-06,368.746,0.4749999940395355,-2.5625651988442044
369.155172,,4.727163392722919e-06,369.212,0.45500001311302185,-2.6061416410364817
369.62068999999997,,3.4781550927266994e-06,369.675,0.47200000286102295,-2.5691835273098858
370.086207,,2.1628036797316736e-06,370.145,0.47600001096725464,-2.5606205811944354
370.55172400000004,,7.829318444093393e-07,370.606,0.46399998664855957,-2.5869842051183607
371.017241,,6.593290541119657e-07,371.075,0.45899999141693115,-2.5981594131626853
371.482759,,2.161533254447837e-06,371.539,0.49399998784065247,-2.522242418381121
371.948276,,3.720915732101363e-06,372.001,0.4659999907016754,-2.58362360552294
372.413793,,5.334388266571643e-06,372.467,0.47999998927116394,-2.5535339554553134
372.87931000000003,,6.99853649051797e-06,372.931,0.46700000762939453,-2.5822885240303752
373.344828,,8.709617973905877e-06,373.397,0.45899999141693115,-2.60015849664336
373.810345,,1.0463561394657803e-05,373.861,0.46399998664855957,-2.5897022361047908
374.275862,,1.2255966845683423e-05,374.326,0.46399998664855957,-2.5901226973287215
374.741379,,1.4082107326268029e-05,374.791,0.4790000021457672,-2.5578342428426333
375.20689699999997,,1.593693146364766e-05,375.257,0.4410000145435333,-2.640973784752855
375.672414,,1.7815067508193888e-05,375.724,0.47600001096725464,-2.5650217601536576
376.137931,,1.9710828642966638e-05,376.189,0.4650000035762787,-2.5892281624221414
376.603448,,2.1618219645468516e-05,376.65,0.46399998664855957,-2.5915812824971187
377.068966,,2.3530944936248077e-05,377.12,0.47600001096725464,-2.5655398720671028
377.53448299999997,,2.544241804555216e-05,377.583,0.48100000619888306,-2.554673424548367
378.0,,2.7345772525520056e-05,378.045,0.4699999988079071,-2.5785886109033775
378.465517,,2.9233874331446845e-05,378.513,0.4560000002384186,-2.608964890843192
378.931034,,3.1099335691422605e-05,378.976,0.4740000069141388,-2.569553472425573
379.396552,,3.293453047918236e-05,379.442,0.5059999823570251,-2.499574708964989
379.862069,,3.473161110028387e-05,379.909,0.4659999907016754,-2.586399071548637
380.327586,,3.64825268967727e-05,380.375,0.47200000286102295,-2.572956152132092
380.79310300000003,,3.8179044070303655e-05,380.839,0.47200000286102295,-2.572547100720565
381.258621,,3.981276711827354e-05,381.305,0.4819999933242798,-2.550325188515532
381.724138,,4.137516177189116e-05,381.772,0.47200000286102295,-2.5716624067201845
382.189655,,4.285757941927821e-05,382.23,0.4569999873638153,-2.6038927802540903
382.655172,,4.425128299067031e-05,382.702,0.46799999475479126,-2.579491843531824
383.12068999999997,,4.554747427658506e-05,383.164,0.49000000953674316,-2.531151654912051
383.586207,,4.673732264345684e-05,383.627,0.46299999952316284,-2.5896028023354565
384.051724,,4.781199510472308e-05,384.09,0.3869999945163727,-2.7548582553442476
384.517241,,4.8762687698699505e-05,384.558,0.4519999921321869,-2.612986297004617
384.982759,,4.9580658117821256e-05,385.02,0.4749999940395355,-2.562685882674425
385.44827599999996,,5.0257259526971755e-05,385.486,0.47999998927116394,-2.5516728197636573
385.913793,,5.078397550169148e-05,385.956,0.47200000286102295,-2.5690567869333574
386.37931,,5.115245601007688e-05,386.422,0.4959999918937683,-2.5167997130014714
386.84482799999995,,5.13545543551675e-05,386.88,0.46399998664855957,-2.586621635149748
387.310345,,5.1382364987600985e-05,387.345,0.4490000009536743,-2.6194791340939023
387.775862,,5.12282620913155e-05,387.812,0.46700000762939453,-2.5805095651360586
388.241379,,5.0884938838122874e-05,388.278,0.4790000021457672,-2.5546724878935065
388.70689699999997,,5.034544720009056e-05,388.742,0.4729999899864197,-2.5681020807185146
389.172414,,4.9603238201883646e-05,389.208,0.48399999737739563,-2.5445349546337535
389.637931,,4.865220248855827e-05,389.676,0.4779999852180481,-2.558033518877115
390.103448,,4.748671107779355e-05,390.138,0.45399999618530273,-2.610764417896219
390.56896600000005,,4.6101656159231094e-05,390.601,0.4390000104904175,-2.6438925883826103
391.03448299999997,,4.44924917974896e-05,391.071,0.4880000054836273,-2.5375794086066046
391.5,,4.265527438956812e-05,391.532,0.4350000023841858,-2.653467170126386
391.965517,,4.058670272177671e-05,392.001,0.4690000116825104,-2.579779285624266
392.431034,,3.8284157466069536e-05,392.46,0.4690000116825104,-2.580120714619029
392.896552,,3.574573995073475e-05,392.927,0.45500001311302185,-2.610907982403235
393.36206899999996,,3.2970310035850804e-05,393.393,0.47200000286102295,-2.574093605774226
393.827586,,2.995752291978201e-05,393.857,0.5090000033378601,-2.4936349457570373
394.293103,,2.670786469928968e-05,394.323,0.46299999952316284,-2.593927495108608
394.75862099999995,,2.322268650261144e-05,394.787,0.46700000762939453,-2.585209534187201
395.224138,,1.950423701214202e-05,395.253,0.4620000123977661,-2.5960222140088285
395.68965499999996,,1.5555693191165502e-05,395.72,0.46399998664855957,-2.591509542601452
396.155172,,1.1381189027472584e-05,396.186,0.48399999737739563,-2.5477103236641403
396.62069,,6.985842105677259e-06,396.65,0.46399998664855957,-2.590992453412514
397.086207,,2.37577781965467e-06,397.112,0.46399998664855957,-2.590645721556539
397.551724,,2.441848963215656e-06,397.58,0.5040000081062317,-2.5031068385683515
398.017241,,7.458834973372165e-06,398.042,0.4860000014305115,-2.541893854033489
398.48275900000004,,1.2665912531676782e-05,398.509,0.4650000035762787,-2.5871938862578996
398.94827599999996,,1.8052736646634543e-05,398.972,0.46399998664855957,-2.588912520580745
399.413793,,2.3607875396415336e-05,399.437,0.4729999899864197,-2.5688500128823586
399.87931,,2.9318803771944824e-05,399.901,0.46000000834465027,-2.5967365159288835
400.344828,,3.517190115261319e-05,400.367,0.46399998664855957,-2.5876179725099275
400.810345,,4.11524525806167e-05,400.831,0.47600001096725464,-2.561113873195744
401.27586199999996,,4.724465399358307e-05,401.296,0.46000000834465027,-2.5956662104613355
401.741379,,5.3431621567923485e-05,401.761,0.45899999141693115,-2.597602532580301
402.206897,,5.9695405317291655e-05,402.226,0.46299999952316284,-2.588716731505882
402.672414,,6.601700708160442e-05,402.694,0.38199999928474426,-2.7650938069570485
403.137931,,7.237640303228498e-05,403.156,0.4650000035762787,-2.5842542395344696
403.60344799999996,,7.875257080872516e-05,403.62,0.46299999952316284,-2.588680427579984
404.068966,,8.512352138942768e-05,404.09,0.4650000035762787,-2.5844688775593543
404.534483,,9.146633578888767e-05,404.55,0.46700000762939453,-2.5803297016394597
405.0,,9.775720665800995e-05,405.021,0.4620000123977661,-2.5915068730358817
405.465517,,0.00010397148485174556,405.486,0.47600001096725464,-2.561346937746623
405.931034,,0.00011008373101268206,405.949,0.4410000145435333,-2.637988099824384
406.39655200000004,,0.00011606777220355296,406.415,0.46299999952316284,-2.590482702787492
406.862069,,0.00012189676360506346,406.88,0.4740000069141388,-2.5669658329323517
407.327586,,0.00012754325527808806,407.345,0.4620000123977661,-2.5935674564012907
407.793103,,0.00013297926397120696,407.806,0.4819999933242798,-2.5504482504698367
408.258621,,0.0001381763499357464,408.271,0.4699999988079071,-2.577027982160833
408.72413800000004,,0.00014310569869100838,408.736,0.47200000286102295,-2.573076067814922
409.18965499999996,,0.0001477382076622576,409.201,0.45899999141693115,-2.601761884134854
409.655172,,0.00015204457759332302,409.672,0.4580000042915344,-2.604251669500842
410.12069,,0.0001559954086144149,410.134,0.47200000286102295,-2.574000509368019
410.586207,,0.00015956130082400827,410.598,0.46399998664855957,-2.591610806761075
411.05172400000004,,0.00016271295922145712,411.06,0.46700000762939453,-2.5851817754108812
411.51724099999996,,0.00016542130280443974,411.531,0.46700000762939453,-2.5852116265555214
411.982759,,0.00016765757762245847,411.994,0.4880000054836273,-2.53941151896489
412.448276,,0.00016939347355449474,412.459,0.46299999952316284,-2.593752184851529
412.913793,,0.00017060124455562398,412.923,0.46799999475479126,-2.582660553146255
413.37931,,0.00017125383209400127,413.389,0.45500001311302185,-2.61071823939878
413.844828,,0.00017132499147621546,413.853,0.4650000035762787,-2.588608850637378
414.31034500000004,,0.00017078942073565941,414.319,0.45899999141693115,-2.601309226077305
414.775862,,0.0001696228917353631,414.784,0.47200000286102295,-2.572577372816421
415.241379,,0.0001678023831137731,415.249,0.46000000834465027,-2.5982858533537248
415.706897,,0.000165306214679329,415.717,0.47600001096725464,-2.5629789807638503
416.172414,,0.00016211418283747854,416.175,0.45899999141693115,-2.599567538293046
416.63793100000004,,0.00015820769661208702,416.642,0.4690000116825104,-2.5773457668853723
417.103448,,0.00015356991380213053,417.105,0.46700000762939453,-2.581293881222011
417.568966,,0.0001481858767942205,417.576,0.453000009059906,-2.611423958595549
418.034483,,0.00014204264753199137,418.038,0.460999995470047,-2.5936732331223866
418.5,,0.00013512944112479815,418.505,0.47099998593330383,-2.5716237964959205
418.96551700000003,,0.0001274377575606242,418.97,0.4909999966621399,-2.5278531573847305
419.43103399999995,,0.00011896151097169611,419.436,0.45500001311302185,-2.6061576637730806
419.896552,,0.00010969715588615291,419.901,0.4729999899864197,-2.5668903054063597
420.362069,,9.964380988532529e-05,420.36,0.4749999940395355,-2.5625578204955124
420.827586,,8.880337207385699e-05,420.831,0.4860000014305115,-2.5386926507055483
421.293103,,7.71806367591506e-05,421.29,0.46399998664855957,-2.586795140941591
421.758621,,6.478340172754957e-05,421.757,0.45500001311302185,-2.606643041044614
422.22413800000004,,5.1622570497382335e-05,422.223,0.4659999907016754,-2.58297952293843
422.689655,,3.771224792359476e-05,422.691,0.4729999899864197,-2.5680828023096876
423.15517200000005,,2.3069828525284007e-05,423.153,0.4659999907016754,-2.5837287027314932
423.62069,,7.716076906117873e-06,423.621,0.4699999988079071,-2.575439444756986
424.086207,,8.32480036152689e-06,424.083,0.4699999988079071,-2.5758823118144494
424.55172400000004,,2.5025092014756585e-05,424.546,0.47699999809265137,-2.5610789575423025
425.017241,,4.2353529161259975e-05,425.016,0.48100000619888306,-2.5528024129828597
425.482759,,6.02752427359841e-05,425.482,0.46000000834465027,-2.5989702823016407
425.948276,,7.875173195563539e-05,425.944,0.453000009059906,-2.6146039001486323
426.413793,,9.774084436025212e-05,426.41,0.46299999952316284,-2.5931565822225453
426.87931000000003,,0.0001171967680154443,426.876,0.45899999141693115,-2.6021562910018248
427.344828,,0.00013707003643054281,427.342,0.4749999940395355,-2.5675201796342955
427.810345,,0.00015730754672679055,427.801,0.47699999809265137,-2.5633151883258494
428.275862,,0.00017785259156580138,428.267,0.46399998664855957,-2.5917153294581405
428.741379,,0.00019864490532177395,428.732,0.46299999952316284,-2.5938951045568834
429.20689699999997,,0.00021962072495135067,429.197,0.49000000953674316,-2.534995850139234
429.672414,,0.00024071286598254083,429.66,0.4650000035762787,-2.5893111572464202
430.137931,,0.000261850814008773,430.13,0.4740000069141388,-2.5694817712182747
430.603448,,0.00028296083203591035,430.591,0.46399998664855957,-2.5909829503025685
431.068966,,0.0003039660839889655,431.061,0.46700000762939453,-2.584106265973146
431.534483,,0.000324786774641312,431.524,0.46399998664855957,-2.590256331955059
432.0,,0.0003453403061824457,431.986,0.4830000102519989,-2.5484417779419064
432.46551700000003,,0.0003655414515908436,432.452,0.4790000021457672,-2.5567137207693413
432.931034,,0.0003853025449262671,432.919,0.47999998927116394,-2.55408270581058
433.396552,,0.0004045336886010233,433.385,0.46399998664855957,-2.5884926519572042
433.862069,,0.0004231429776323213,433.85,0.4659999907016754,-2.5837046311735268
434.327586,,0.0004410367408180344,434.316,0.4620000123977661,-2.5920192370154624
434.79310300000003,,0.0004581197987160167,434.78,0.47200000286102295,-2.56987535074217
435.258621,,0.0004742957382427393,435.246,0.49000000953674316,-2.530354716629221
435.724138,,0.0004894672036405537,435.712,0.4819999933242798,-2.5475398497110473
436.189655,,0.0005035362034944957,436.171,0.4749999940395355,-2.5626145440039028
436.655172,,0.0005164044334093822,436.639,0.46700000762939453,-2.5799420111638596
437.12068999999997,,0.0005279736138862003,437.101,0.47200000286102295,-2.569024742083574
437.586207,,0.000538145842863634,437.569,0.4690000116825104,-2.5756152082332218
438.051724,,0.0005468239623162141,438.031,0.46399998664855957,-2.586640296652123
438.517241,,0.0005539119382252357,438.496,0.46799999475479126,-2.578131163232998
438.982759,,0.000559315253162491,438.96,0.46399998664855957,-2.587119049326382
439.448276,,0.0005629413106502546,439.425,0.460999995470047,-2.593988219268201
439.913793,,0.0005646998503840843,439.89,0.45899999141693115,-2.5987292042215504
440.37931000000003,,0.0005645033733281301,440.356,0.4659999907016754,-2.5839014817906127
440.844828,,0.0005622675756160592,440.82,0.46399998664855957,-2.5887080688748454
441.310345,,0.0005579117901146886,441.285,0.46299999952316284,-2.591349069677004
441.775862,,0.0005513594344322657,441.75,0.44699999690055847,-2.6266695653422962
442.241379,,0.0005425384640793686,442.215,0.46799999475479126,-2.5813661912317176
442.70689699999997,,0.0005313818294179172,442.683,0.4359999895095825,-2.6515040592613706
443.172414,,0.0005178279349631323,443.146,0.46399998664855957,-2.59088338361048
443.637931,,0.000501821099534777,443.616,0.46700000762939453,-2.584677223824091
444.103448,,0.0004833120156880038,444.079,0.45500001311302185,-2.611088683342564
444.568966,,0.00046225820679096717,444.542,0.4749999940395355,-2.5677130352793043
445.03448299999997,,0.000438624480056382,445.005,0.4860000014305115,-2.5438678906592234
445.5,,0.00041238337377778216,445.471,0.46700000762939453,-2.585300664318169
445.965517,,0.0003835155969687051,445.937,0.4790000021457672,-2.559112673013171
446.431034,,0.00035201045955476695,446.403,0.4659999907016754,-2.587309528301978
446.896552,,0.00031786629122495077,446.868,0.45899999141693115,-2.6023570371826685
447.36206899999996,,0.0002810908470097693,447.334,0.48500001430511475,-2.5454375867819046
447.827586,,0.00024170169762063594,447.801,0.460999995470047,-2.59738689656583
448.29310300000003,,0.00019972660255713914,448.267,0.49000000953674316,-2.533813838982122
448.758621,,0.0001552038639673085,448.732,0.4830000102519989,-2.54862949350571
449.224138,,0.0001081826592307276,449.19,0.4690000116825104,-2.578666028367316
449.689655,,5.872335022581927e-05,449.661,0.46399998664855957,-2.589079862058787
450.155172,,6.897767241125121e-06,450.123,0.4880000054836273,-2.5363123468542965
450.62068999999997,,4.721053450376446e-05,450.591,0.4650000035762787,-2.585955134529408
451.086207,,0.00010350604774850816,451.053,0.4569999873638153,-2.6029466937503942
451.551724,,0.00016188111749303953,451.516,0.46799999475479126,-2.5785862125445345
452.017241,,0.00022221577867926297,451.986,0.4749999940395355,-2.5629943774991832
452.482759,,0.0002843776291853738,452.445,0.5339999794960022,-2.4341757408611593
452.94827599999996,,0.000348221740018109,452.916,0.4729999899864197,-2.5668653189459922
453.413793,,0.0004135906045327306,453.375,0.4620000123977661,-2.5907007431909723
453.87931,,0.00048031412844601107,453.843,0.46399998664855957,-2.5862979452400325
454.344828,,0.000548209662333757,454.308,0.4659999907016754,-2.581981000244825
454.810345,,0.0006170820782213283,454.776,0.46299999952316284,-2.588642239595708
455.27586199999996,,0.0006867238917830727,455.241,0.4560000002384186,-2.604099730058355
455.741379,,0.0007569154315645865,455.701,0.4690000116825104,-2.5760598877860152
456.206897,,0.0008274250565302393,456.171,0.45899999141693115,-2.598196171165214
456.672414,,0.0008980094231173751,456.631,0.4790000021457672,-2.555029318703311
457.137931,,0.0009684138028479139,457.102,0.46299999952316284,-2.5903377812236204
457.603448,,0.0010383724514078287,457.564,0.45899999141693115,-2.5995330644471455
458.06896600000005,,0.0011076090299556069,458.027,0.43799999356269836,-2.6457822041237677
458.53448299999997,,0.0011758370792626393,458.493,0.4650000035762787,-2.587458168941118
459.0,,0.0012427605471211735,458.955,0.46399998664855957,-2.590122437966208
459.465517,,0.0013080743692784466,459.421,0.4620000123977661,-2.5949359143910296
459.931034,,0.0013714651039696108,459.887,0.47699999809265137,-2.562668762491432
460.39655200000004,,0.0014326116199294059,460.352,0.4309999942779541,-2.6632429980111345
460.86206899999996,,0.0014911858375642431,460.816,0.46399998664855957,-2.591637401096692
461.327586,,0.0015468535227592534,461.282,0.4659999907016754,-2.58749373790622
461.793103,,0.0015992751325751104,461.747,0.45899999141693115,-2.602874281525721
462.258621,,0.0016481067118616429,462.213,0.4659999907016754,-2.587665817787875
462.724138,,0.0016930008395918848,462.676,0.46299999952316284,-2.5941541455645947
463.18965499999996,,0.0017336076235031038,463.145,0.46700000762939453,-2.5853032272721226
463.655172,,0.0017695757413975113,463.606,0.44699999690055847,-2.628655318318296
464.12069,,0.0018005535271842323,464.076,0.4830000102519989,-2.5499248132796324
464.58620699999994,,0.0018261900994679587,464.539,0.4909999966621399,-2.5321260987864416
465.051724,,0.0018461365302783104,465.001,0.46700000762939453,-2.583984233630069
465.517241,,0.0018600470513782717,465.467,0.4880000054836273,-2.537756696220277
465.98275900000004,,0.0018675802953414132,465.93,0.4790000021457672,-2.5568565396549623
466.448276,,0.0018684005681477555,466.396,0.4560000002384186,-2.606441383610739
466.913793,,0.0018621791496467237,466.861,0.4560000002384186,-2.6059184533383704
467.37931,,0.001848595618259946,467.327,0.4659999907016754,-2.583626696862235
467.844828,,0.001827339196585714,467.794,0.45399999618530273,-2.6092984270275026
468.31034500000004,,0.001798110114198377,468.26,0.47999998927116394,-2.552229284198668
468.77586199999996,,0.001760620982507559,468.725,0.46399998664855957,-2.586724053841225
469.241379,,0.0017145981756321515,469.19,0.45500001311302185,-2.6060406601163795
469.706897,,0.0016597832129413726,469.653,0.4740000069141388,-2.5644371944790914
470.172414,,0.0015959341416433783,470.116,0.4779999852180481,-2.555601718790005
470.63793100000004,,0.0015228269160112112,470.587,0.4659999907016754,-2.5817166106049854
471.10344799999996,,0.0014402567623437886,471.049,0.39899998903274536,-2.7277521708951302
471.568966,,0.001348039516037483,471.513,0.47200000286102295,-2.5688714259050656
472.034483,,0.0012460129299792114,471.975,0.46399998664855957,-2.5865499382816983
472.5,,0.0011340379689413055,472.441,0.46399998664855957,-2.586879275431808
472.965517,,0.0010120000902741203,472.905,0.47600001096725464,-2.561134758194146
473.43103399999995,,0.0008798104676164589,473.371,0.4699999988079071,-2.574663474965489
473.89655200000004,,0.0007374071089108035,473.835,0.46399998664855957,-2.5882357825959734
474.362069,,0.0005847559050737261,474.301,0.46399998664855957,-2.5887647229158364
474.827586,,0.0004218517245406447,474.768,0.4569999873638153,-2.6045567000209506
475.293103,,0.0002487195567997851,475.234,0.4880000054836273,-2.5375553972946716
475.758621,,6.541545638150232e-05,475.702,0.4790000021457672,-2.5576780272624884
476.22413800000004,,0.00012797293144527116,476.164,0.47200000286102295,-2.573405160632411
476.689655,,0.00033132594073443164,476.627,0.4569999873638153,-2.606509212869068
477.155172,,0.0005444908574821456,477.09,0.503000020980835,-2.506649828833241
477.62069,,0.0007672804187400409,477.561,0.46700000762939453,-2.58536205203189
478.086207,,0.0009994723758830456,478.023,0.48500001430511475,-2.546340750973211
478.55172400000004,,0.0012408111068190932,478.489,0.46399998664855957,-2.592194648939279
479.01724099999996,,0.0014910089135018168,478.952,0.46299999952316284,-2.594380421924388
479.482759,,0.0017497431064407625,479.417,0.45899999141693115,-2.6030072404804416
479.948276,,0.0020166506383315005,479.883,0.46399998664855957,-2.59193384563933
480.413793,,0.002291329719173605,480.348,0.4749999940395355,-2.5677011929573923
480.87931000000003,,0.0025733523236807277,480.813,0.4650000035762787,-2.5891405557307126
481.344828,,0.002862271324469193,481.279,0.45899999141693115,-2.6017965468355424
481.810345,,0.0031576012420461144,481.746,0.45100000500679016,-2.6187541679797075
482.275862,,0.0034587893082063136,482.205,0.46399998664855957,-2.5899191500983085
482.74137900000005,,0.003765233367354616,482.672,0.46299999952316284,-2.591559403686849
483.206897,,0.0040763573771146,483.135,0.46700000762939453,-2.5822968483377258
483.672414,,0.004391636867201456,483.605,0.4690000116825104,-2.57739864495474
484.13793100000004,,0.004710466366321158,484.068,0.46399998664855957,-2.587774649866089
484.603448,,0.005032003991908459,484.531,0.42100000381469727,-2.680979716164985
485.068966,,0.005355323100097665,485.001,0.4880000054836273,-2.5345890324276046
485.534483,,0.005679856153908248,485.467,0.4650000035762787,-2.584344146138868
486.0,,0.0060054406130303105,485.93,0.4659999907016754,-2.5818896122252752
486.46551700000003,,0.006331446794495345,486.396,0.4650000035762787,-2.5838792573768266
486.931034,,0.006655992074535343,486.861,0.4830000102519989,-2.5445671771686342
487.396552,,0.006977111951575296,487.327,0.4620000123977661,-2.5903179308829993
487.862069,,0.007295314812118217,487.791,0.45899999141693115,-2.596949327654315
488.327586,,0.007613216919851864,488.25,0.4970000088214874,-2.5143494247011655
488.79310300000003,,0.007930003326304195,488.717,0.46399998664855957,-2.5865208330692355
489.258621,,0.008237765489140656,489.183,0.46399998664855957,-2.586876242316607
489.724138,,0.008529975325958972,489.646,0.46399998664855957,-2.5873011238063093
490.189655,,0.008815781558836016,490.116,0.4749999940395355,-2.563817336788597
490.655172,,0.009113995001823555,490.576,0.4650000035762787,-2.5861269018597546
491.12069,,0.009418899933517362,491.046,0.47099998593330383,-2.5736040620344407
491.586207,,0.0096853561553857,491.505,0.46299999952316284,-2.5915915882334444
492.05172400000004,,0.00988722172742067,491.97,0.47999998927116394,-2.55510512304662
492.517241,,0.01009459630069369,492.436,0.4650000035762787,-2.588310526624642
492.982759,,0.010415311659201435,492.902,0.46399998664855957,-2.5909741983083854
493.448276,,0.010789434256080296,493.367,0.46299999952316284,-2.5935825069712704
493.913793,,0.010945660209154637,493.832,0.46399998664855957,-2.5917650227269817
494.37931000000003,,0.010789092857571004,494.297,0.46700000762939453,-2.5855102930102376
494.844828,,0.010800210518974012,494.764,0.46299999952316284,-2.5944173900758387
495.310345,,0.011555624340521629,495.23,0.5419999957084656,-2.4224002558894306
495.775862,,0.012525176267595781,495.69,0.46799999475479126,-2.5836154076704654
496.241379,,0.012098532572062452,496.16,0.4729999899864197,-2.572617373430612
496.70689699999997,,0.010086429562115105,496.62,0.46399998664855957,-2.592024918084562
497.172414,,0.009682224614382673,497.09,0.47699999809265137,-2.5634125982036733
497.637931,,0.013890476471975175,497.553,0.4620000123977661,-2.5957215675145884
498.103448,,0.018386463937378306,498.016,0.4830000102519989,-2.5495294318538884
498.568966,,0.011863453207505942,498.482,0.44699999690055847,-2.627464069894295
499.03448299999997,,0.011491573017826717,498.945,0.46399998664855957,-2.5898897511735672
499.5,,0.042294622407732144,499.41,0.46000000834465027,-2.598042894733326
499.96551700000003,,0.06485266929420291,499.875,0.46399998664855957,-2.588759662067981
500.431034,,0.0739546224128702,500.341,0.46700000762939453,-2.581664883646599
500.89655200000004,,0.07665485390200112,500.806,0.4729999899864197,-2.5680608665109754
501.362069,,0.07986377216844896,501.272,0.46399998664855957,-2.58717931490855
501.827586,,0.0833900217686727,501.739,0.46399998664855957,-2.5867478714038747
502.293103,,0.08405868470659761,502.205,0.45399999618530273,-2.6081744488602565
502.758621,,0.07997808744010136,502.665,0.4569999873638153,-2.60136156175535
503.224138,,0.06974752451444773,503.135,0.45500001311302185,-2.6055334352074992
503.68965499999996,,0.051716660566065796,503.598,0.47600001096725464,-2.5596933991338227
504.15517200000005,,0.02636471739689872,504.061,0.45500001311302185,-2.605456023002723
504.62068999999997,,0.001474927140287,504.531,0.45899999141693115,-2.596851961145575
505.08620699999994,,0.02435462619004001,504.993,0.45500001311302185,-2.605773549535984
505.55172400000004,,0.03733678508190313,505.459,0.4699999988079071,-2.573391009455877
506.017241,,0.04159460053048328,505.924,0.4729999899864197,-2.567232860114734
506.48275899999993,,0.042336464603522576,506.389,0.46299999952316284,-2.5894660864826844
506.948276,,0.04324399465648536,506.853,0.503000020980835,-2.5028218437247274
507.413793,,0.04384250196159063,507.319,0.46399998664855957,-2.5883302634105285
507.87931,,0.04225593785781562,507.784,0.45500001311302185,-2.608502844266223
508.344828,,0.03910184462844399,508.25,0.47600001096725464,-2.563323368780355
508.810345,,0.03767064455405508,508.717,0.4620000123977661,-2.5943862776234554
509.27586199999996,,0.04065000168611243,509.175,0.4650000035762787,-2.588384873937827
509.74137900000005,,0.04739368577256453,509.646,0.4699999988079071,-2.5779826857384243
510.20689699999997,,0.05446559857094078,510.108,0.4729999899864197,-2.5718790890279
510.67241399999995,,0.05847735372785651,510.576,0.46700000762939453,-2.58531129572957
511.13793100000004,,0.058179180726009465,511.039,0.45500001311302185,-2.6117328346359003
511.603448,,0.054025117495576466,511.506,0.4909999966621399,-2.5334880424798034
512.0689659999999,,0.04647259650523833,511.97,0.46299999952316284,-2.5945791863472447
512.534483,,0.03556155481612048,512.436,0.4490000009536743,-2.625069510736935
513.0,,0.02199952282992957,512.901,0.4440000057220459,-2.6358536104130232
513.465517,,0.0073339667192551085,513.367,0.4909999966621399,-2.5332523411374077
513.931034,,0.007705759789259658,513.831,0.45500001311302185,-2.6113883181138395
514.396552,,0.024036574649925452,514.297,0.4650000035762787,-2.5892249838391335
514.862069,,0.04205855794308373,514.762,0.4650000035762787,-2.588778200293104
515.327586,,0.05896232039590117,515.22,0.4650000035762787,-2.5882747192150344
515.793103,,0.06984470010229421,515.69,0.4429999887943268,-2.635660411497001
516.258621,,0.07234947819496919,516.153,0.4650000035762787,-2.5871611418518436
516.724138,,0.06920002965026867,516.621,0.46399998664855957,-2.5887632893026087
517.189655,,0.06507876063738999,517.083,0.4620000123977661,-2.5925534569118396
517.655172,,0.06162101858750272,517.546,0.45100000500679016,-2.615978428953485
518.1206900000001,,0.056446411477232325,518.016,0.46700000762939453,-2.5806232231003348
518.5862070000001,,0.04667128972693633,518.482,0.45899999141693115,-2.597613811807775
519.051724,,0.03241401453445169,518.944,0.4740000069141388,-2.564566597871962
519.517241,,0.016789216291153954,519.41,0.44600000977516174,-2.6252838260137454
519.982759,,0.0030588380680549505,519.871,0.47600001096725464,-2.559730823848282
520.448276,,0.007638701877395293,520.337,0.492000013589859,-2.5247754080966045
520.9137929999999,,0.015739302383209614,520.801,0.43799999356269836,-2.642424937097102
521.37931,,0.02156448035633105,521.267,0.48100000619888306,-2.548845913872841
521.844828,,0.025522479461438357,521.732,0.4519999921321869,-2.612227234211597
522.310345,,0.029512876276133145,522.197,0.45100000500679016,-2.6146983098018435
522.7758620000001,,0.03612714916624293,522.661,0.4440000057220459,-2.6303253666047763
523.241379,,0.045875465581520246,523.13,0.46299999952316284,-2.589380316770137
523.7068969999999,,0.056754526505274815,523.591,0.4440000057220459,-2.631282973504896
524.172414,,0.0669060782594413,524.06,0.45899999141693115,-2.5991554368056815
524.637931,,0.07508351347941902,524.521,0.4620000123977661,-2.5931985142529315
525.103448,,0.07705865148734663,524.99,0.46399998664855957,-2.5894292845533977
525.568966,,0.0655937543584183,525.456,0.45899999141693115,-2.6009016094269075
526.034483,,0.039068907135539996,525.921,0.45100000500679016,-2.618883652935779
526.5,,0.008273759129719508,526.386,0.4819999933242798,-2.5518552090283175
526.9655170000001,,0.011462884275433589,526.846,0.48399999737739563,-2.5479477481207424
527.4310340000001,,0.015163539500126078,527.311,0.47699999809265137,-2.5635740797396815
527.8965519999999,,0.010880844443114351,527.776,0.47699999809265137,-2.563864578249049
528.362069,,0.008310534446126554,528.242,0.4650000035762787,-2.590205068592612
528.827586,,0.009621860690170812,528.709,0.4779999852180481,-2.5619797988644524
529.293103,,0.01158298504504776,529.175,0.45399999618530273,-2.614262115635663
529.7586210000001,,0.011934003637461749,529.635,0.4830000102519989,-2.5509738817931367
530.224138,,0.011340569710619574,530.105,0.47600001096725464,-2.5660176296527744
530.689655,,0.011144992978178711,530.568,0.47600001096725464,-2.565717379567445
531.155172,,0.011538373926354997,531.031,0.49000000953674316,-2.5348315585811716
531.62069,,0.01194141858861794,531.496,0.503000020980835,-2.506050798874317
532.086207,,0.012042547958569683,531.966,0.5230000019073486,-2.4619588523699565
532.5517239999999,,0.012008377669971747,532.425,0.4909999966621399,-2.5311114298357715
533.017241,,0.012047023050893028,532.894,0.4950000047683716,-2.521805500841527
533.482759,,0.012139549072757876,533.359,0.5109999775886536,-2.4863471407733524
533.9482760000001,,0.012178665544174459,533.823,0.5149999856948853,-2.4770415822457035
534.413793,,0.012170943846136541,534.289,0.515999972820282,-2.4742989736932084
534.87931,,0.012199325044611731,534.754,0.5410000085830688,-2.419312636284414
535.344828,,0.012234939735742032,535.22,0.531000018119812,-2.4406385872932264
535.810345,,0.012122017677240457,535.683,0.5249999761581421,-2.4533241629077454
536.275862,,0.011850100382311627,536.145,0.5339999794960022,-2.43341664298004
536.7413789999999,,0.011734085852735008,536.613,0.5630000233650208,-2.3700318136288736
537.206897,,0.01202003052309522,537.075,0.546999990940094,-2.404788090331681
537.672414,,0.01223632477881885,537.543,0.5759999752044678,-2.3416102171433844
538.137931,,0.011485075191407842,538.005,0.5630000233650208,-2.3700407373968866
538.6034480000001,,0.0100482129349367,538.47,0.5740000009536743,-2.3462863642235194
539.0689659999999,,0.010421476094248237,538.937,0.5540000200271606,-2.3901671906888917
539.5344829999999,,0.015721014117757674,539.403,0.5419999957084656,-2.4167082940193203
540.0,,0.026868229850815762,539.868,0.574999988079071,-2.345288386662086
540.465517,,0.041983769541159066,540.334,0.5830000042915344,-2.3283979245931405
540.931034,,0.05807948140622386,540.799,0.574999988079071,-2.346412595141756
541.396552,,0.07207925481550549,541.265,0.5979999899864197,-2.2969181684750426
541.862069,,0.08076398272327989,541.731,0.5830000042915344,-2.3302227302341243
542.327586,,0.0817721017736555,542.19,0.5770000219345093,-2.3439113332135046
542.7931030000001,,0.07505129941444094,542.657,0.5920000076293945,-2.311821935763746
543.258621,,0.061989461134558436,543.127,0.6010000109672546,-2.292759479844263
543.7241379999999,,0.04293013724988273,543.59,0.5889999866485596,-2.319386811801215
544.189655,,0.016958427464799294,544.053,0.5699999928474426,-2.3611885434030473
544.655172,,0.015289403686848255,544.516,0.593999981880188,-2.3092202027870075
545.12069,,0.04956399251841529,544.986,0.5680000185966492,-2.3660859400747563
545.5862070000001,,0.07930219281595569,545.452,0.5529999732971191,-2.398882089190679
546.051724,,0.0987910211362334,545.917,0.5669999718666077,-2.368389391927366
546.517241,,0.10580459907312764,546.375,0.5809999704360962,-2.3377873466539003
546.982759,,0.10254729566870087,546.842,0.5640000104904175,-2.3746158399979787
547.448276,,0.09414172634964782,547.308,0.5669999718666077,-2.3677698763427735
547.9137929999999,,0.08526224693140658,547.772,0.5509999990463257,-2.4022255586745187
548.3793099999999,,0.07755972343759922,548.237,0.574999988079071,-2.3494542872268536
548.844828,,0.06957111882225721,548.709,0.5809999704360962,-2.3358307929062767
549.310345,,0.05842119594802708,549.167,0.5690000057220459,-2.3613704664541117
549.775862,,0.042512622188570735,549.635,0.5339999794960022,-2.4369854428523046
550.241379,,0.02410847705917945,550.097,0.5540000200271606,-2.392760718296477
550.706897,,0.008728764685632035,550.561,0.5389999747276306,-2.424794491261051
551.172414,,0.00010884841084776676,551.031,0.49000000953674316,-2.530928008528551
551.637931,,0.003980172321590825,551.496,0.5130000114440918,-2.4802448077703683
552.103448,,0.008528733568325696,551.96,0.5139999985694885,-2.4775549735876994
552.568966,,0.01385185151434852,552.425,0.45500001311302185,-2.6056628951088148
553.034483,,0.014805423529668531,552.89,0.5130000114440918,-2.4789616578037075
553.5,,0.008716724785168323,553.356,0.5120000243186951,-2.480902405613322
553.965517,,0.00023525057527894622,553.82,0.503000020980835,-2.5003801620562527
554.4310340000001,,0.004228024689661755,554.286,0.492000013589859,-2.524327314851535
554.896552,,0.0037687153298518817,554.75,0.4959999918937683,-2.5157077677431
555.3620689999999,,0.0021455801358126743,555.215,0.47999998927116394,-2.5507715659599532
555.827586,,0.00212294171556368,555.676,0.5139999985694885,-2.4770069027093484
556.293103,,0.00324403764582565,556.146,0.46299999952316284,-2.588522079974855
556.758621,,0.0040219321110561155,556.609,0.4869999885559082,-2.5367218550571264
557.224138,,0.004089865741871362,557.071,0.4659999907016754,-2.5830298314455655
557.689655,,0.004024940537655912,557.535,0.44600000977516174,-2.627212056435744
558.155172,,0.004233307328249218,558.005,0.47099998593330383,-2.573390349550374
558.6206900000001,,0.004588916843783729,558.471,0.4729999899864197,-2.569692579591479
559.0862070000001,,0.0048295417289481975,558.937,0.45899999141693115,-2.600847974783016
559.5517239999999,,0.004905458019987492,559.395,0.4690000116825104,-2.5796909414659974
560.017241,,0.004947678260807041,559.861,0.46299999952316284,-2.5933484081209524
560.482759,,0.005066301392022907,560.326,0.46399998664855957,-2.591693544146272
560.948276,,0.0052194790882462965,560.791,0.4429999887943268,-2.637891608709935
561.413793,,0.005246882680403748,561.256,0.46399998664855957,-2.5924957718854857
561.87931,,0.005075805134774885,561.724,0.460999995470047,-2.5992855244251705
562.344828,,0.004916368269657934,562.19,0.45899999141693115,-2.603786518074637
562.8103450000001,,0.005075823100583871,562.653,0.46700000762939453,-2.586386217250292
563.275862,,0.00539243982448829,563.116,0.46299999952316284,-2.5950136877179277
563.7413789999999,,0.005119607174724122,563.587,0.45500001311302185,-2.612242183141312
564.206897,,0.003990617859583937,564.049,0.45899999141693115,-2.603219589457131
564.672414,,0.0033357347289735538,564.517,0.44699999690055847,-2.628957288648021
565.137931,,0.004801431841867335,564.979,0.45899999141693115,-2.602321640790181
565.603448,,0.006905422767610602,565.444,0.44200000166893005,-2.6387958006630443
566.068966,,0.004270227931123702,565.909,0.4259999990463257,-2.673037940019295
566.534483,,0.007218199725908322,566.374,0.4129999876022339,-2.700710404753973
567.0,,0.024761768424037787,566.838,0.4009999930858612,-2.726190935304764
567.465517,,0.040454788240492305,567.304,0.4050000011920929,-2.7168202795632492
567.931034,,0.04841604247564641,567.769,0.3869999945163727,-2.7554071152441533
568.396552,,0.04815447138352672,568.235,0.49000000953674316,-2.5304218684730566
568.862069,,0.042271551213347615,568.698,0.3479999899864197,-2.8392667351135934
569.327586,,0.03419001439120332,569.161,0.3630000054836273,-2.8061431553814216
569.793103,,0.028098244321970396,569.631,0.3799999952316284,-2.7687566889296775
570.2586210000001,,0.028140993219179056,570.094,0.35499998927116394,-2.822977457679429
570.724138,,0.03577012843541367,570.557,0.3720000088214874,-2.785806028939656
571.189655,,0.04796902644249057,571.02,0.34299999475479126,-2.8489674640191662
571.655172,,0.058679355638395124,571.485,0.3140000104904175,-2.912244960514369
572.12069,,0.0626648700562792,571.955,0.32499998807907104,-2.8884904231113384
572.586207,,0.059309749806894095,572.421,0.33000001311302185,-2.8779143388929627
573.051724,,0.053899856557848555,572.88,0.3370000123977661,-2.8630766276736535
573.517241,,0.05444790787315429,573.345,0.34700000286102295,-2.8417846227325123
573.982759,,0.06488920252518826,573.813,0.3479999899864197,-2.8401656937068047
574.4482760000001,,0.08043899638073786,574.278,0.33399999141693115,-2.87127394126468
574.913793,,0.09100369078408341,574.742,0.3490000069141388,-2.8392298854286406
575.37931,,0.09040744559071487,575.208,0.3070000112056732,-2.9313780069199433
575.844828,,0.08188532761613382,575.676,0.3269999921321869,-2.888439929149234
576.310345,,0.07364835344101187,576.138,0.32199999690055847,-2.8999385093118177
576.775862,,0.06937898148992071,576.601,0.3269999921321869,-2.889602165968611
577.241379,,0.06452471637440269,577.071,0.3009999990463257,-2.94673880596171
577.706897,,0.05226132401995988,577.531,0.3109999895095825,-2.9253647161772167
578.172414,,0.03131206125629456,578.001,0.2980000078678131,-2.9540079983657703
578.6379310000001,,0.006952724652358509,578.467,0.3140000104904175,-2.919369385040366
579.1034480000001,,0.013782707120709663,578.93,0.3140000104904175,-2.9194812523851614
579.5689659999999,,0.026516594068255798,579.396,0.3050000071525574,-2.9390898263377077
580.034483,,0.031011529970585677,579.861,0.296999990940094,-2.9564094686193445
580.5,,0.030150358308118477,580.326,0.3100000023841858,-2.9278710757541493
580.965517,,0.026873180229478533,580.791,0.29499998688697815,-2.96023552617863
581.431034,,0.021546673009280863,581.257,0.3019999861717224,-2.9445804904046473
581.896552,,0.01325123540967556,581.716,0.2980000078678131,-2.9528142106163893
582.362069,,0.003674746114204957,582.182,0.3190000057220459,-2.906520080494318
582.827586,,0.002025064843834705,582.65,0.30399999022483826,-2.9386121409586607
583.2931030000001,,0.0007868297372599262,583.113,0.2930000126361847,-2.9619629246763277
583.758621,,0.012492236669346698,583.576,0.296999990940094,-2.9526270884935535
584.2241379999999,,0.030784174934910827,584.045,0.3100000023841858,-2.9236953162684247
584.689655,,0.05548317131396252,584.516,0.3100000023841858,-2.923116133062695
585.155172,,0.08994422305660021,584.971,0.296999990940094,-2.9509072644636984
585.6206900000001,,0.13607611889997956,585.437,0.3100000023841858,-2.9221177631030666
586.0862070000001,,0.1877367164292525,585.902,0.3100000023841858,-2.921728958250188
586.551724,,0.23045901136358943,586.368,0.2939999997615814,-2.9562885671874723
587.017241,,0.2499549726105646,586.835,0.28299999237060547,-2.9800546943918307
587.482759,,0.24238560730861217,587.3,0.31299999356269836,-2.9146019031404236
587.948276,,0.21650731295428183,587.764,0.3179999887943268,-2.9037225890544476
588.4137929999999,,0.1858957117456145,588.23,0.3019999861717224,-2.9387009112541254
588.87931,,0.15908973906918053,588.691,0.3100000023841858,-2.921493955401956
589.344828,,0.13566317963729801,589.161,0.3059999942779541,-2.930526120242109
589.810345,,0.10938351349703976,589.624,0.33500000834465027,-2.8677475041428666
590.2758620000001,,0.07476380329874428,590.086,0.328000009059906,-2.8834715103092026
590.741379,,0.0325405605958045,590.55,0.34299999475479126,-2.851321228209224
591.2068969999999,,0.009430061593481854,591.02,0.3529999852180481,-2.8301032162435464
591.672414,,0.04100485313581296,591.486,0.35899999737739563,-2.81762063753575
592.137931,,0.05740088922736008,591.948,0.35499998927116394,-2.8269272613076044
592.603448,,0.06289047672900709,592.414,0.3930000066757202,-2.7447147411846835
593.068966,,0.06537744898567142,592.879,0.37400001287460327,-2.7866512718256256
593.534483,,0.06658810798705679,593.345,0.367000013589859,-2.8023942167632168
594.0,,0.060379172395084314,593.805,0.3540000021457672,-2.8311458521050743
594.4655170000001,,0.04286517249594311,594.271,0.38199999928474426,-2.7704974640148357
594.9310340000001,,0.021012103985383855,594.735,0.3930000066757202,-2.7467998261549917
595.3965519999999,,0.006829849474043848,595.2,0.382999986410141,-2.7687597105728456
595.862069,,0.00461677994505285,595.668,0.3970000147819519,-2.7383334234318757
596.327586,,0.009042928412662517,596.131,0.40299999713897705,-2.725236324700461
596.793103,,0.015730172635974038,596.599,0.3880000114440918,-2.757792378323968
597.2586210000001,,0.0276625656942737,597.061,0.4009999930858612,-2.72925300928479
597.724138,,0.04800906826277532,597.531,0.4009999930858612,-2.72895020862771
598.189655,,0.0709848605324684,597.994,0.4129999876022339,-2.7024275617928577
598.655172,,0.0851280773781049,598.459,0.414000004529953,-2.699805933012255
599.12069,,0.08498770243299225,598.927,0.4259999990463257,-2.673168959853228
599.586207,,0.07596232292716945,599.385,0.4259999990463257,-2.672640774209512
600.0517239999999,,0.06753387948837629,599.85,0.4429999887943268,-2.635056714907082
600.517241,,0.06470505671287259,600.315,0.46399998664855957,-2.5887552844060666
600.982759,,0.0665963863854862,600.78,0.44200000166893005,-2.6361493971492753
601.448276,,0.0700641109664694,601.246,0.46700000762939453,-2.5811772440534777
601.913793,,0.0718585907315095,601.712,0.46000000834465027,-2.595967298964928
602.37931,,0.0688490398596628,602.178,0.46399998664855957,-2.5868515122890354
602.844828,,0.06013910496757356,602.646,0.46299999952316284,-2.588700368809656
603.310345,,0.049967270567864264,603.108,0.45399999618530273,-2.608060017986885
603.775862,,0.04559727525149559,603.572,0.4519999921321869,-2.6122584706279683
604.2413789999999,,0.05020793741961833,604.035,0.45500001311302185,-2.605657734522714
604.706897,,0.05883711653990367,604.5,0.44699999690055847,-2.6231180312345432
605.172414,,0.06248859521470518,604.971,0.48399999737739563,-2.5426330637516017
605.637931,,0.056071300236451925,605.43,0.4300000071525574,-2.660494629891593
606.1034480000001,,0.04256432441804988,605.902,0.46399998664855957,-2.586718244485305
606.5689659999999,,0.030003266338006096,606.36,0.45100000500679016,-2.6154117688951746
607.0344829999999,,0.024090469820019878,606.828,0.46399998664855957,-2.5875217075215518
607.5,,0.023486102833328706,607.293,0.4620000123977661,-2.592358568450381
607.965517,,0.022543511896535907,607.758,0.46299999952316284,-2.5906915223368183
608.431034,,0.017916543429730803,608.223,0.5299999713897705,-2.445248311362586
608.896552,,0.011291758471454397,608.686,0.460999995470047,-2.5960983089795104
609.362069,,0.0061327929976622226,609.156,0.46399998664855957,-2.5900677782012806
609.827586,,0.0034904943225420293,609.616,0.46299999952316284,-2.5927196530107777
610.293103,,0.0016727996736037461,610.086,0.46000000834465027,-2.5996823130871767
610.758621,,0.0009220116627754326,610.546,0.46399998664855957,-2.5913351168751264
611.2241379999999,,0.0038064180796914615,611.016,0.49000000953674316,-2.5349865622523953
611.689655,,0.0054706709861183575,611.481,0.4729999899864197,-2.572239545755923
612.155172,,0.005895421627780053,611.944,0.4490000009536743,-2.6246569248066707
612.62069,,0.007232819323905983,612.41,0.4779999852180481,-2.561517032943749
613.0862070000001,,0.011387903359708707,612.871,0.4129999876022339,-2.7030810316572724
613.551724,,0.01691460695942719,613.337,0.4620000123977661,-2.5961928065991926
614.017241,,0.01925010143299199,613.803,0.45399999618530273,-2.6134056053797377
614.4827590000001,,0.015268696089062539,614.269,0.46700000762939453,-2.5847908007423412
614.948276,,0.00771191445090072,614.735,0.45100000500679016,-2.6192902188757676
615.4137929999999,,0.003840766921542829,615.201,0.4519999921321869,-2.6166976295531237
615.8793099999999,,0.008619966222435703,615.661,0.42500001192092896,-2.6750658473042765
616.344828,,0.01950063065917964,616.131,0.46299999952316284,-2.5917950124304996
616.810345,,0.02872537845252102,616.594,0.46399998664855957,-2.589121161646928
617.275862,,0.03072846970177199,617.056,0.4519999921321869,-2.6147712856216128
617.741379,,0.02669212994443242,617.524,0.46399998664855957,-2.588150656604395
618.206897,,0.022269760635406192,617.986,0.45100000500679016,-2.616027475491267
618.672414,,0.022118730723119866,618.452,0.45899999141693115,-2.5981975384083555
619.137931,,0.026576912839308412,618.92,0.4480000138282776,-2.621818814898889
619.603448,,0.03208868024835906,619.386,0.46399998664855957,-2.5866837917280967
620.068966,,0.034446271733266025,619.851,0.4560000002384186,-2.6039112471100343
620.534483,,0.03267811345259736,620.316,0.45100000500679016,-2.614683641234685
621.0,,0.02983369235743134,620.776,0.4320000112056732,-2.6560419781359474
621.465517,,0.029248077556712524,621.242,0.4620000123977661,-2.5907322921187284
621.9310340000001,,0.030754256966258504,621.709,0.4650000035762787,-2.5843291534441475
622.396552,,0.031639877883463695,622.176,0.46299999952316284,-2.588897131937439
622.862069,,0.030454683810533942,622.639,0.45100000500679016,-2.615322895110642
623.327586,,0.02835695098287326,623.101,0.46399998664855957,-2.587345098905632
623.793103,,0.026991598023857286,623.569,0.4560000002384186,-2.6051705815788067
624.258621,,0.026317071120536852,624.031,0.4569999873638153,-2.6034277242504897
624.724138,,0.024682538167150752,624.496,0.45100000500679016,-2.616961574327969
625.189655,,0.020553607518180857,624.96,0.4729999899864197,-2.569505167810759
625.655172,,0.014621008635871144,625.426,0.4440000057220459,-2.633157028831738
626.1206900000001,,0.010685630218151146,625.891,0.4650000035762787,-2.587859674945968
626.5862070000001,,0.013056350577551189,626.357,0.4740000069141388,-2.5686751835150177
627.0517239999999,,0.021339311759634494,626.823,0.44999998807907104,-2.621342274142721
627.5172409999999,,0.028822663122455343,627.289,0.45899999141693115,-2.602059281297453
627.982759,,0.02850107561944419,627.754,0.45899999141693115,-2.602320078512531
628.448276,,0.02071766504671903,628.219,0.45100000500679016,-2.6199383894939343
628.913793,,0.01278294171960423,628.683,0.4650000035762787,-2.5895494754918054
629.37931,,0.01069233730525939,629.145,0.5230000019073486,-2.46321856449952
629.844828,,0.013050707926746832,629.616,0.4620000123977661,-2.5960636929351772
630.3103450000001,,0.013918103179240488,630.079,0.46399998664855957,-2.5915740905352154
630.7758620000001,,0.00992888884317212,630.542,0.46399998664855957,-2.591367468457048
631.2413789999999,,0.003014425965193256,631.005,0.46700000762939453,-2.584557312573589
631.706897,,0.002810010561540812,631.471,0.4580000042915344,-2.60383234486355
632.172414,,0.005225541409821342,631.937,0.45100000500679016,-2.618702380180192
632.637931,,0.004483194797643437,632.403,0.46399998664855957,-2.5899638927001285
633.103448,,0.0025782825555428312,632.868,0.47200000286102295,-2.5720954000461784
633.568966,,0.0019430207335595314,633.334,0.45500001311302185,-2.6086832727052287
634.034483,,0.0037378545394570733,633.799,0.47200000286102295,-2.571201138512976
634.5,,0.00717974876946887,634.265,0.3869999945163727,-2.755960028459326
634.9655170000001,,0.010901711641946168,634.731,0.46700000762939453,-2.5812747250345316
635.431034,,0.014303010526701777,635.19,0.4860000014305115,-2.53952992991668
635.8965519999999,,0.01699857832654046,635.661,0.4519999921321869,-2.613305076551281
636.362069,,0.017877794846744396,636.123,0.4699999988079071,-2.5738511497958805
636.827586,,0.01597259100090028,636.591,0.45399999618530273,-2.608539025870318
637.293103,,0.012353773608016469,637.053,0.4620000123977661,-2.5910117284050225
637.7586210000001,,0.010243086819525196,637.521,0.46399998664855957,-2.5866312314524618
638.224138,,0.012275819287680461,637.983,0.4560000002384186,-2.6041120022986433
638.689655,,0.017426290929392366,638.449,0.46700000762939453,-2.5802712295292025
639.155172,,0.02111393583122599,638.917,0.46399998664855957,-2.586999861068626
639.62069,,0.018974906987292466,639.382,0.4620000123977661,-2.591611597649009
640.086207,,0.011143194600581831,639.846,0.44699999690055847,-2.6245999792485994
640.551724,,0.002986122342446196,640.311,0.4869999885559082,-2.5378068772107056
641.017241,,0.0008274875691081913,640.776,0.45500001311302185,-2.607909087843047
641.482759,,0.00622439850826593,641.235,0.46299999952316284,-2.590886483752362
641.9482760000001,,0.014726663344367265,641.709,0.4699999988079071,-2.5760513406892893
642.413793,,0.02019656686772409,642.168,0.47600001096725464,-2.563390570762193
642.87931,,0.019704159557899874,642.631,0.49000000953674316,-2.5332834527253874
643.344828,,0.015088038918304465,643.101,0.46399998664855957,-2.590293349055985
643.810345,,0.01142762293921484,643.561,0.45500001311302185,-2.6102273117392336
644.275862,,0.013290992475120384,644.03,0.45100000500679016,-2.6192208080166766
644.7413789999999,,0.020436486462135653,644.496,0.45100000500679016,-2.619444786443251
645.206897,,0.027408513990024856,644.96,0.46000000834465027,-2.599999673999106
645.672414,,0.028861401018131318,645.425,0.4729999899864197,-2.5717738078737926
646.1379310000001,,0.024816751462797416,645.89,0.46299999952316284,-2.5935877673280663
646.6034480000001,,0.019235390457283737,646.356,0.49000000953674316,-2.5347220019453527
647.0689659999999,,0.01431039926284466,646.821,0.46700000762939453,-2.584720455184567
647.534483,,0.008770696219159503,647.286,0.45899999141693115,-2.6019753185816645
648.0,,0.001898592557700524,647.746,0.46399998664855957,-2.5908502458533125
648.465517,,0.003900439116380052,648.212,0.5040000081062317,-2.5034215810625127
648.931034,,0.006053763031681507,648.68,0.4259999990463257,-2.6730315678954604
649.396552,,0.0051941254779403635,649.142,0.4699999988079071,-2.5768157650333516
649.862069,,0.003970108635931186,649.605,0.453000009059906,-2.613478033520362
650.327586,,0.003834027762802196,650.075,0.4690000116825104,-2.5782362845546807
650.7931030000001,,0.004283430303096041,650.535,0.46399998664855957,-2.5887489642312786
651.258621,,0.004438881238512261,651.005,0.46399998664855957,-2.5883823063318068
651.7241379999999,,0.0041948196369746655,651.471,0.46700000762939453,-2.581504476277484
652.189655,,0.00393347987319547,651.937,0.47200000286102295,-2.570304000392416
652.655172,,0.003853656154535396,652.395,0.47200000286102295,-2.570039976694456
653.12069,,0.003846730718259369,652.862,0.4819999933242798,-2.5480399228389796
653.5862070000001,,0.003774147970591911,653.327,0.45399999618530273,-2.608885056248547
654.051724,,0.0036352476107425753,653.794,0.3799999952316284,-2.770011070700715
654.517241,,0.0034974591385398225,654.26,0.46399998664855957,-2.5869774987547447
654.982759,,0.0033876159240608774,654.724,0.45399999618530273,-2.6088024510462398
655.448276,,0.0032837412991480065,655.19,0.46299999952316284,-2.5892953658464846
655.9137929999999,,0.0031647157204034992,655.65,0.47999998927116394,-2.5524171932946462
656.37931,,0.003033535819377703,656.12,0.46000000834465027,-2.596201197074185
656.844828,,0.0029021800627956947,656.583,0.4519999921321869,-2.6138873750991416
657.310345,,0.002774423097643373,657.045,0.44699999690055847,-2.6250760152933297
657.7758620000001,,0.0026465257493678155,657.516,0.47600001096725464,-2.562219539840086
658.241379,,0.0025158570827803536,657.979,0.45899999141693115,-2.599599266537604
658.7068969999999,,0.002383900172099058,658.444,0.46000000834465027,-2.5977711025237458
659.172414,,0.002253221514121141,658.909,0.4569999873638153,-2.6046552597767976
659.637931,,0.0021248299983442714,659.375,0.45100000500679016,-2.618062750769948
660.103448,,0.0019986225693036336,659.835,0.47699999809265137,-2.5617308964412504
660.568966,,0.001874837850385619,660.3,0.4690000116825104,-2.5794406428863845
661.034483,,0.0017543996527999255,660.772,0.4560000002384186,-2.6080033183711566
661.5,,0.0016383396243904967,661.23,0.46000000834465027,-2.5994824237976952
661.965517,,0.0015274025323388997,661.698,0.4690000116825104,-2.5800165204603975
662.4310340000001,,0.0014221702681754393,662.161,0.46399998664855957,-2.5909960819928437
662.8965519999999,,0.0013232983461343986,662.631,0.46399998664855957,-2.5910247966942705
663.362069,,0.0012315438284277315,663.094,0.4779999852180481,-2.5604945835384854
663.827586,,0.0011476575948330455,663.557,0.4699999988079071,-2.5778380203815283
664.293103,,0.0010723254006164674,664.02,0.503000020980835,-2.5058029483991726
664.7586210000001,,0.001006194030905346,664.485,0.45100000500679016,-2.618904074816057
665.224138,,0.0009499071024948133,664.955,0.47200000286102295,-2.572921995542545
665.689655,,0.0009041032933213003,665.421,0.47200000286102295,-2.5726574810611127
666.155172,,0.0008693948223033889,665.886,0.46700000762939453,-2.5832602872122505
666.62069,,0.0008463562407798204,666.345,0.45899999141693115,-2.6003826213270878
667.086207,,0.0008355278298671598,666.816,0.46000000834465027,-2.5978904219835472
667.5517239999999,,0.0008374213293934455,667.275,0.4620000123977661,-2.5932225776829068
668.017241,,0.0008525190346985966,667.747,0.4569999873638153,-2.6038175894291467
668.482759,,0.0008812656877842423,668.206,0.46799999475479126,-2.57957508232204
668.948276,,0.0009240592167542053,668.676,0.4729999899864197,-2.5684329976077707
669.413793,,0.0009812507990966692,669.138,0.4569999873638153,-2.6030779414482392
669.87931,,0.001053157701150244,669.601,0.46399998664855957,-2.587655544914377
670.3448279999999,,0.001140070875266103,670.072,0.4580000042915344,-2.6006017711134923
